#exp_cfg={"servo_angle": 0.0, "laser_lim": 100.0, "servo_angle_to": 18.0, "laser_wup": 0.0, "bt_dev": "EnSpectr-25AE3", "laser_wdn_max": 0.0, "frames": 10.0, "servo_used": 0, "servo_calib_use": 0, "laser_wdn_min": 0.0, "servo_pix_from": 90.0, "cooler_tout": 300.0, "servo_angle_from": 0.0, "servo_calib": "[-1.9174921013161362e-09, 3.9322238269163779e-05, -0.27385609119055809, 653.59552119713567]", "laser_autoctl": 0, "servo_pix_to": 3682.0, "laser_pw": 100.0, "cooler_on": 0, "laser_volt": 4.0, "cooler_autoctl": 0, "cooler_curr": 70.0, "cooler_startup": 10.0, "laser_fixed_pw": 0, "gain": 1.3, "offset": 2.53059635486, "servo_calib_degree": 3.0, "laser_curr": 55.0, "shutter": 8200.0, "servo_calib_step": 1.0, "laser_fixed_curr": 0, "exp": 2000.0, "ccd_volt": 4.7, "bt_addr": "00:06:66:62:5A:E3", "servo_delay": 500.0, "laser_autooff": 1}
#proc_cfg={"flat_auto_wnd": 200.0, "flat_auto_fr": 200.0, "flat_auto_shift": 5.0, "yconv": 1, "flatten": 1, "flatten_strength": 100.0, "xfrom": 300.0, "auto_max_frame": 2000.0, "auto_signal": 48000.0, "flat_auto_tol": 0.1, "autoclip": 1, "xrel_range": 0.0, "flat_auto_to": 4000.0, "intensity_adj": 1.0, "xrel": 7852.0, "rmhot": 1, "flat_auto_slit": 4.999999999999997, "auto_ini_exp": 300.0, "auto_off": 0, "xto": 2860.0, "flat_auto_ref": "", "flat_auto_rank": 1, "autobackg": 0, "xrel_adj": 0.0, "auto_black_lvl": 1, "base_wnd": 100.0, "sub_baseline": 0, "xconv": 2, "auto_max_exp": 1000.0, "auto_total_exp": 10000.0, "auto_exp": 0, "rmripple": 0, "black_lvl": 8234.7, "shutter_clip_adj": 0.0, "auto_bckg": 0, "flat_auto_thr": 0.9, "subbackg": 1}
316.8218498245369 13108.697415986748
317.89969571804795 13056.435309992852
318.977263876126 13091.790066566193
320.05455438786703 12990.564719841299
321.1315673423287 12943.993611206717
322.2083028285215 12978.692167000983
323.2847609354267 12970.603883895561
324.3609417519747 12855.56413626568
325.43684536705587 12781.128967592605
326.5124718695279 12790.213333677932
327.58782134820103 12763.578671585636
328.66289389184385 12707.11662613829
329.7376895891921 12568.088915153001
330.8122085289342 12578.627304070766
331.88645079971866 12667.988562948221
332.9604164901575 12593.915199833906
334.03410568881554 12446.70106780301
335.1075184842266 12564.255189843254
336.18065496487543 12430.5385137361
337.2535152192122 12450.129434560331
338.32609933564163 12404.898262123272
339.39840740253203 12373.895250905285
340.4704395082099 12355.877383758767
341.5421957409617 12312.853306336934
342.6136761890357 12366.940847714035
343.6848809406365 12235.406794890401
344.75581008392874 12227.66053693859
345.82646370703696 12048.352143231927
346.8968418980512 12178.168304828821
347.96694474501055 12184.289292647982
349.0367723359268 12180.99738732338
350.106324758759 12083.396556760064
351.1756021014353 12012.173539174084
352.2446044518383 12026.937832761545
353.31333189781435 12109.939513985715
354.38178452716966 11990.435824641949
355.449962427665 11976.081595221765
356.51786568702846 11871.037207379619
357.58549439294256 12085.606812598324
358.6528486330535 11942.11305272646
359.71992849496564 11834.507539414228
360.7867340662433 11924.613576549384
361.8532654344144 11882.925480867256
362.9195226869597 11896.672137374964
363.9855059113288 11876.61525843518
365.05121519492604 11793.201958899175
366.11665062511565 11855.7868928551
367.1818122892273 11811.281740614299
368.2467002745434 11831.981570849894
369.31131466831175 11726.761748351522
370.375655557742 11774.233656208147
371.4397230299983 11811.493338474547
372.5035171722102 11807.212871092835
373.5670380714637 11695.96370733863
374.6302858148101 11787.8685098007
375.6932604892554 11744.153356297067
376.7559621817709 11738.270558876164
377.81839097928605 11661.18401297439
378.8805469686886 11643.347440305983
379.94243023683157 11810.189850962448
381.0040408705263 11626.458102876619
382.0653789565458 11537.285338470349
383.1264445816196 11620.38917449987
384.1872378324406 11624.539826807213
385.2477587956637 11580.530093602692
386.3080075579037 11476.076360940058
387.3679842057336 11505.783126651044
388.4276888256918 11549.526190068618
389.48712150426945 11465.142355690778
390.54628232792857 11405.15548131281
391.6051713830857 11473.857440456439
392.66378875611736 11391.16846635087
393.7221345333637 11341.271695869445
394.7802088011249 11342.29592865612
395.838011645661 11373.001792289315
396.89554315319765 11319.688982776524
397.9528034099112 11230.51821312673
399.00979250194723 11188.916145328194
400.06651051541485 11174.256633805697
401.1229575363741 11196.286902050846
402.17913365085224 11123.807250139707
403.23503894483656 11174.897643659933
404.2906735042761 11111.377453856137
405.3460374150818 11056.232904534272
406.401130763119 11067.841758171124
407.455953634224 11090.458130232622
408.5105061141876 11085.258100747815
409.56478828876243 10962.346479373986
410.6188002436629 10973.120934722956
411.6725420645689 10970.148846348877
412.72601383711117 10937.272428717833
413.77921564689314 10978.574715220526
414.8321475794728 10923.02232590493
415.88480972036814 10848.200298825957
416.93720215506437 10873.451872993679
417.9893249690049 10866.254617504714
419.04117824759123 10792.001938695006
420.09276207619223 10812.92604842998
421.144076540133 10790.253012853584
422.1951217247042 10753.492129746843
423.24589771515275 10826.257629307704
424.2964045966928 10693.252295436445
425.34664245449494 10762.528585914904
426.3966113736933 10746.907507572892
427.4463114393875 10705.167039787455
428.49574273662984 10669.133288979838
429.5449053504417 10611.589349897973
430.5937993658026 10738.304513519633
431.6424248676558 10633.56470521858
432.6907819409007 10535.548144740273
433.73887067040596 10583.068261632798
434.7866911409965 10547.999436134176
435.8342434374608 10525.273211497919
436.88152764455117 10545.172192393848
437.9285438469724 10491.207284175653
438.9752921294057 10398.020820398458
440.02177257648145 10463.097716544893
441.06798527279716 10384.619267600343
442.1139303029122 10537.80293883506
443.1596077513459 10584.125305715406
444.2050177025794 10439.130290119687
445.25016024105753 10368.921543171726
446.2950354511886 10386.324663465412
447.33964341733736 10314.065820835389
448.383984223834 10342.874104315026
449.4280579549686 10266.857964791981
450.471864694995 10329.957337542164
451.5154045281306 10320.502699284876
452.5586775385509 10281.593512758032
453.60168381039693 10258.34182117594
454.64442342776783 10367.83387300125
455.6868964747264 10305.828673335494
456.7291030353008 10259.645467729284
457.77104319347563 10280.583002632873
458.8127170332027 10214.913369851734
459.854124638392 10275.955373672658
460.895266092919 10333.11300467415
461.93614148061897 10339.729412265473
462.97675088529104 10293.922577307718
464.01709439069236 10256.758378309416
465.0571720805492 10356.011570117516
466.0969840385442 10318.611142691987
467.1365303483253 10411.619382566409
468.17581109350067 10329.53866370787
469.2148263576437 10261.243948520021
470.2535762242878 10377.649330321516
471.29206077693016 10440.108330975225
472.33028009902773 10356.245153192369
473.3682342740012 10354.85751961105
474.40592338523857 10360.475161809538
475.4433475160804 10466.412528203802
476.4805067498364 10418.555137131621
477.51740116978 10378.663629397013
478.5540308591426 10436.842484486851
479.59039590112116 10641.511984354565
480.6264963788726 10463.354041716237
481.6623323755193 10507.42628099141
482.6979039741436 10464.157276813408
483.7332112577915 10668.85893117263
484.76825430947247 10712.52886560167
485.80303321215797 10709.987961326788
486.837548048783 10806.97474531735
487.8717989022425 10867.362061577423
488.90578585539697 10801.25974241595
489.9395089910686 10885.703155471354
490.97296839203955 10771.18821141666
492.00616414106116 10728.231619087208
493.0390963208429 10712.555074842747
494.0717650140559 10722.426410045438
495.10417030333883 10643.20556091634
496.1363122712901 10616.368852867066
497.16819100046814 10457.39936639718
498.1998065734024 10424.444437542541
499.2311590725767 10441.040247480112
500.26224858044407 10236.33204542755
501.2930751794156 10261.203126585144
502.3236389518679 10277.476927647955
503.35393998014115 10146.446534654995
504.38397834653733 10182.373261033405
505.4137541333221 10157.115736647796
506.4432674227228 10034.815875222812
507.4725182969323 10047.88426535163
508.5015068381035 9992.252115373509
509.53023312835467 10006.550405774371
510.55869724976765 10018.339118994869
511.58689928438434 9945.055593167674
512.6148393142121 9927.238622263238
513.6425174212218 9959.754922653465
514.6699336873462 9904.222085698788
515.6970881944835 9960.895469677418
516.7239810244901 9920.38994688154
517.7506122591931 9884.35259668665
518.7769819803761 9823.139063146384
519.8030902697901 9894.175543409914
520.8289372091476 9817.143248506945
521.8545228801249 9978.403641153473
522.8798473643619 9881.52906079495
523.9049107434621 9828.080582795174
524.9297130989908 9916.143562126961
525.9542545124805 9774.95502760464
526.9785350654201 9830.661899560411
528.0025548392696 9781.778171592236
529.0263139154504 9738.571558636833
530.0498123753423 9757.04627435184
531.073050300296 9681.043333891575
532.0960277716204 9632.369458486608
533.1187448705896 9705.565012648029
534.1412016784416 9647.215528540193
535.1633982763833 9682.965255016563
536.1853347455726 9637.271000874205
537.2070111671401 9663.297707425558
538.2284276221817 9605.668552796338
539.2495841917516 9593.986979226787
540.2704809568677 9489.240240275754
541.2911179985167 9600.514780273068
542.3114953976419 9498.731827389081
543.3316132351592 9506.33870434675
544.3514715919409 9435.131462342437
545.3710705488247 9454.007137948196
546.3904101866156 9461.885514433226
547.4094905860784 9474.380799462615
548.4283118279418 9440.511598805624
549.4468739929034 9484.245816469293
550.4651771616191 9388.489066102324
551.4832214147063 9349.215997586016
552.501006832761 9435.048564583327
553.5185334963226 9356.027891191578
554.5358014859103 9447.62201725539
555.5528108820035 9369.685486252403
556.5695617650363 9353.811557548015
557.5860542154242 9412.560037171246
558.6022883135283 9333.77796977403
559.6182641396881 9307.840876642675
560.6339817741991 9325.745694025109
561.6494412973225 9409.478290756411
562.6646427892883 9375.33617793584
563.6795863302796 9293.770564796327
564.694272000459 9299.717458389732
565.7086998799423 9376.98117491692
566.7228700488104 9261.731680021992
567.7367825871115 9277.815242892157
568.7504375748576 9284.477745108614
569.7638350920224 9233.2090609693
570.7769752185486 9217.345038316325
571.7898580343353 9271.059359360197
572.802483619258 9178.656948117878
573.8148520531431 9242.995443433585
574.8269634157932 9246.64427966276
575.8388177869692 9138.282063928043
576.8504152463938 9140.511070187342
577.8617558737587 9239.176225149813
578.8728397487175 9166.771590123017
579.883666950891 9228.280069552897
580.8942375598654 9227.523197688268
581.9045516551851 9322.680695191728
582.9146093163617 9450.51999844133
583.924410622878 9345.098934170517
584.9339556541727 9343.51854224412
585.9432444896538 9314.396013532214
586.9522772086875 9301.696668041297
587.9610538906127 9360.92698650225
588.9695746147318 9276.05495064356
589.9778394603054 9327.865478601754
590.985848506567 9237.33028957563
591.9936018327098 9239.748950167877
593.0010995178891 9090.348410924717
594.0083416412344 9173.857564276055
595.0153282818283 9080.182286861971
596.0220595187293 9013.18556262348
597.0285354309508 9050.311778343734
598.0347560974806 9024.187520213583
599.0407215972609 8942.71619507449
600.0464320092051 9001.885676019096
601.0518874121954 8946.89094345005
602.0570878850685 8909.62740954629
603.062033506636 8935.538051007094
604.0667243556636 8886.753046186403
605.0711605108936 8889.517713351494
606.0753420510264 9045.467585452447
607.0792690547278 8909.510522662858
608.082941600629 8842.067856152273
609.0863597673306 8861.02615667855
610.0895236333909 9037.244007667063
611.0924332773357 9094.744198642751
612.0950887776617 9007.94335389895
613.0974902128219 9048.807456743665
614.0996376612384 9131.84011294365
615.1015312013005 9190.492324820236
616.1031709113595 9258.586043384039
617.1045568697336 9266.58921785925
618.1056891547069 9399.726380850796
619.1065678445229 9413.21899766338
620.1071930173985 9606.424431152123
621.1075647515099 9564.17118042691
622.1076831250048 9669.46631618965
623.1075482159849 9701.809987887147
624.1071601025305 9807.959127317281
625.1065188626781 9705.13719982607
626.105624574433 9897.361053597266
627.1044773157682 9885.216927930778
628.1030771646128 9918.236133016162
629.1014241988742 9980.210911811457
630.0995184964158 10026.548612695584
631.0973601350688 10072.277500410695
632.0949491926294 10247.309870047327
633.0922857468631 10077.286306900078
634.089369875499 10118.031304996015
635.0862016562278 10120.929024787232
636.0827811667077 9925.630239526125
637.0791084845641 10003.475390474758
638.0751836873878 9918.862965614757
639.0710068527369 9866.68502218018
640.0665780581294 9846.334672619083
641.0618973810506 9625.490474139468
642.0569648989604 9685.87547854141
643.0517806892676 9620.083478035587
644.0463448293649 9592.640463134721
645.040657396592 9449.294452290682
646.0347184682723 9395.556955792803
647.0285281216875 9321.620882681425
648.0220864340772 9304.22869510805
649.0153934826558 9254.656815937837
650.0084493446047 9194.688617171765
651.0012540970674 9093.19560746519
651.9938078171526 9116.745249295369
652.9861105819346 9027.918168919194
653.9781624684565 9111.730553507508
654.9699635537254 8984.034731481745
655.9615139147136 9025.652053299293
656.9528136283589 8920.101533021687
657.9438627715699 9034.04316494412
658.9346614212154 8806.320702274392
659.925209654135 8705.676513010043
660.9155075471263 8753.589803966159
661.9055551769616 8729.770372330826
662.895352620375 8793.464822953762
663.8848999540678 8631.097024477463
664.8741972547068 8561.345828218678
665.863244598926 8580.959677062348
666.8520420633213 8629.21167410454
667.8405897244611 8504.238319605356
668.8288876588758 8469.348070940203
669.8169359430613 8539.581961941221
670.8047346534822 8488.864133072413
671.7922838665672 8474.12633004508
672.7795836587156 8507.64094289231
673.766634106285 8624.505929095065
674.7534352856092 8371.63051246329
675.7399872729766 8436.208876715102
676.7262901446538 8466.027292073832
677.712343976862 8395.725953893747
678.6981488457986 8525.525473964084
679.6837048276229 8392.349359839605
680.6690119984596 8448.613316592078
681.6540704344043 8520.01410104466
682.6388802115107 8368.733754869052
683.6234414058108 8438.404875102919
684.6077540932874 8416.16855605608
685.591818349907 8421.474521411094
686.575634251587 8425.408079432711
687.5592018742263 8419.701189557523
688.5425212936734 8323.87626748182
689.5255925857564 8429.70445873832
690.5084158262707 8327.711512609932
691.4909910909646 8341.244408327839
692.4733184555644 8266.224328988095
693.4553979957618 8302.724249941428
694.4372297872123 8259.692444080278
695.4188139055404 8263.339066246208
696.4001504263324 8241.799381421097
697.3812394251509 8261.995830051575
698.3620809775111 8228.974474295854
699.3426751589104 8221.630794047258
700.3230220448004 8145.1796828499455
701.3031217106054 8221.500403451886
702.2829742317172 8349.310596167707
703.2625796834873 8239.365201005088
704.2419381412474 8172.237148188802
705.22104968028 8275.8779151414
706.1999143758458 8326.377574122274
707.178532303169 8268.490051033677
708.1569035374378 8431.710861082513
709.1350281538107 8565.59796191336
710.1129062274158 8575.522469202859
711.0905378333373 8663.537834832463
712.0679230466376 8733.738476600443
713.0450619423427 8989.49453537032
714.0219545954424 9082.354678121026
714.9986010808989 9028.597863559646
715.9750014736292 9273.809125479787
716.9511558485392 9471.095866307052
717.9270642804786 9544.151966540447
718.9027268442787 9617.24850292225
719.8781436147328 9646.304003339908
720.8533146666014 9560.383401136794
721.828240074612 9552.821673043993
722.8029199134635 9556.766803127373
723.7773542578125 9391.792073888446
724.751543182294 9332.704338492169
725.7254867615029 9230.305490103252
726.6991850700015 9028.409848231338
727.6726381823228 8959.367362091418
728.6458461729599 8958.528782915655
729.6188091163858 9025.483217675734
730.5915270870246 9030.506457949918
731.5640001592856 9082.695233541303
732.536228407529 9084.65691568538
733.5082119060917 9288.766376148584
734.4799507292755 9232.326004934186
735.4514449513481 9266.38813377182
736.4226946465496 9488.869611848593
737.3936998890786 9406.751285767532
738.3644607531078 9312.924544917003
739.3349773127793 9242.417296562491
740.3052496421951 9071.28152003149
741.27527781543 8935.170441567561
742.2450619065221 8740.989106311394
743.2146019894826 8600.382534864217
744.183898138288 8497.163911393915
745.1529504268801 8377.66799179441
746.1217589291682 8178.656332226885
747.0903237190341 8000.811246858719
748.058644870318 8055.278319100742
749.0267224568397 7913.5494936244595
749.994556552374 7760.562975059957
750.9621472306771 7756.247012742977
751.9294945654583 7684.899199198293
752.8965986304011 7682.768800776811
753.8634594991636 7626.82793424497
754.8300772453586 7663.898007951745
755.7964519425768 7606.387690029005
756.762583664371 7635.180410650144
757.7284724842611 7605.02535584714
758.6941184757416 7563.349278096546
759.6595217122667 7557.135343428692
760.6246822672638 7515.785573241356
761.5896002141235 7434.393659050501
762.5542756262093 7506.172091272109
763.5187085768503 7522.798326622846
764.4828991393406 7439.931800244129
765.4468473869474 7369.111301402547
766.4105533929032 7491.739332077856
767.3740172304078 7426.859512263007
768.3372389726283 7422.684702160045
769.3002186926988 7362.490667281343
770.2629564637282 7316.747194256326
771.2254523587872 7280.2365153377295
772.1877064509154 7261.1395626072
773.1497188131179 7191.007324283732
774.1114895183728 7202.245973290877
775.0730186396268 7192.274307214214
776.0343062497905 7140.849248354672
776.9953524217381 7124.536316322662
777.9561572283274 7199.651628896396
778.9167207423689 7139.763244706391
779.8770430366476 7031.004697967555
780.8371241839159 7184.359941636784
781.7969642568951 7101.709171652141
782.7565633282757 7170.307386393343
783.7159214707099 7167.4636646794415
784.6750387568281 7139.262338650212
785.6339152592227 7141.971624194894
786.5925510504512 7060.544973219372
787.5509462030477 7172.960611804835
788.5091007895098 7118.938778933637
789.4670148823006 7125.823256557323
790.4246885538596 7098.163648063147
791.3821218765861 7059.047529522007
792.3393149228505 7009.331552691781
793.2962677649975 7090.566633480649
794.2529804753303 7103.658999267749
795.20945312613 7129.583782315181
796.1656857896378 7041.294850608091
797.1216785380675 7011.240520745991
798.0774314435985 7177.258302516355
799.0329445783846 7152.899979321779
799.9882180145414 7200.992597934819
800.9432518241574 7123.580278675038
801.89804607929 7154.420637876217
802.852600851962 7266.146550239244
803.8069162141637 7151.954975458675
804.760992237856 7199.363138379345
805.714828994971 7198.510692543149
806.6684265574077 7215.023730442631
807.6217849970271 7111.562344964112
808.574904385674 7112.600471980023
809.527784795142 7189.881607905636
810.4804262972102 7196.346440818481
811.4328289636178 7046.0031705888305
812.3849928660748 6985.350884967893
813.3369180762638 6998.628505832382
814.2886046658241 7053.72568294317
815.2400527063783 6975.575428856801
816.1912622695108 6983.1059568570145
817.1422334267718 6982.847115873477
818.0929662496856 6874.4137937812075
819.0434608097457 6782.010429918884
819.9937171784059 6766.694938252738
820.9437354271013 6732.695482564695
821.8935156272255 6759.91649951655
822.8430578501484 6757.692655221402
823.7923621672016 6623.075831983893
824.7414286496896 6710.653271995519
825.6902573688876 6689.06914869959
826.6388483960363 6729.972823436571
827.5872018023492 6619.091200222456
828.5353176590033 6724.1575906966245
829.4831960371503 6583.2488684596465
830.4308370079016 6558.571706638734
831.3782406423525 6632.0944476217865
832.3254070115545 6675.950201545209
833.2723361865319 6590.595810351644
834.2190282382799 6515.027301284927
835.1654832377644 6573.73200889993
836.1117012559116 6491.1448289345735
837.0576823636256 6625.535883418289
838.003426631778 6510.889378927005
838.9489341312074 6477.2097899706905
839.8942049327197 6541.262090274716
840.8392391070975 6593.762012411937
841.7840367250865 6510.526943334715
842.7285978573982 6489.283779592597
843.672922574724 6542.297219382923
844.6170109477152 6537.0095666775105
845.560863046996 6550.900699865158
846.5044789431595 6508.85654399979
847.4478587067697 6521.321717342029
848.3910024083561 6600.849572711038
849.333910118421 6550.771590268921
850.2765819074339 6464.495272678228
851.2190178458332 6575.23177062155
852.161218004032 6548.778788230689
853.1031824524016 6583.640081892021
854.0449112612987 6454.073702951686
854.9864045010327 6503.624954474804
855.9276622418947 6402.291798760299
856.8686845541379 6538.518900578378
857.8094715079915 6562.041520143762
858.7500231736467 6576.378940547935
859.690339621271 6552.5795160634425
860.6304209209939 6565.339266985473
861.5702671429244 6397.734951461413
862.5098783571284 6469.661068334453
863.4492546336569 6493.70076286239
864.3883960425155 6498.40692279762
865.3273026536863 6442.24038418217
866.2659745371238 6420.703952125294
867.2044117627465 6540.50157522613
868.1426144004472 6490.728864574985
869.0805825200823 6547.977068958887
870.0183161914847 6536.962492576031
870.9558154844526 6558.392028625434
871.8930804687552 6565.079581027033
872.8301112141307 6528.4808268763745
873.7669077902865 6586.436855901884
874.7034702669062 6660.828950999907
875.6397987136315 6628.110885113756
876.5758932000863 6636.080764028664
877.5117537958522 6688.11510654469
878.4473805704911 6677.456216692777
879.3827735935283 6680.143544825582
880.3179329344603 6750.8925587359
881.2528586627541 6730.563567390277
882.1875508478479 6786.076431247835
883.1220095591489 6668.095381605948
884.0562348660296 6666.196323718436
884.9902268378391 6647.317809458518
885.9239855438955 6605.23844106334
886.8575110534839 6516.305907235672
887.7908034358588 6660.506031755333
888.7238627602474 6611.373472548215
889.6566890958475 6624.057938223271
890.5892825118208 6485.213990368846
891.5216430773125 6512.914788465528
892.4537708614189 6500.294289370888
893.3856659332196 6451.274246344391
894.3173283617652 6382.447947477896
895.2487582160684 6397.079891294255
896.179955565116 6411.5666869914585
897.110920477864 6277.197560330961
898.0416530232451 6308.069922783756
898.9721532701478 6283.95426358783
899.9024212874428 6379.13694877009
900.8324571439662 6257.431321484697
901.7622609085302 6244.151519458619
902.6918326499072 6286.597491135961
903.6211724368477 6242.552599688637
904.5502803380696 6287.4141346300885
905.4791564222614 6363.4915523107
906.4078007580792 6166.594781351296
907.3362134141571 6274.021691194812
908.2643944590909 6296.0223467765145
909.1923439614493 6191.603462523208
910.1200619897754 6232.6810746760775
911.0475486125779 6301.632060400439
911.9748038983344 6278.281811821427
912.9018279155007 6201.946706903996
913.8286207324982 6128.088552026016
914.7551824177117 6293.431428283573
915.6815130395116 6225.892513734482
916.6076126662283 6175.459339060743
917.533481366163 6134.556856569947
918.4591192075914 6239.409553170315
919.3845262587565 6192.111267743517
920.3097025878706 6101.301817241207
921.2346482631237 6100.134445389847
922.1593633526682 6149.83596510107
923.0838479246304 6132.81629422694
924.0081020471061 6220.714224000701
924.9321257881656 6032.595959618894
925.8559192158464 6092.604515581301
926.7794823981512 5984.329293663399
927.7028154030686 5987.997386412442
928.6259182985414 6015.4960389289445
929.5487911524906 6158.744561290021
930.4714340328119 6067.178804343507
931.3938470073608 6021.255820372766
932.3160301439748 5988.379441359023
933.2379835104548 5982.96385462246
934.1597071745709 6035.5680452973775
935.0812012040769 6001.937188743144
936.002465666681 6079.04618955884
936.9235006300696 6095.252879874458
937.8443061619055 6006.859925352002
938.7648823298077 6000.074977226178
939.6852292013809 6052.551646982457
940.6053468441951 6014.928945672202
941.5252353257874 5915.952086218482
942.4448947136698 5985.944324374816
943.364325075323 6017.80601128774
944.2835264782043 6015.835220946026
945.2024989897309 6045.838477584498
946.1212426773054 6008.926393155261
947.0397576082851 6086.3352933893675
947.9580438500125 6143.1087307064245
948.8761014697939 6115.988530967358
949.7939305349064 6079.851725945529
950.7115311125999 6057.241328571915
951.6289032700952 5998.196811653235
952.5460470745875 6094.276468679445
953.4629625932339 6023.945394091695
954.3796498931715 6076.650430761934
955.2961090415029 6192.834113568612
956.2123401053068 6063.645351710954
957.1283431516276 6087.520758134446
958.0441182474842 6028.865816877218
958.9596654598663 6138.572218066564
959.8749848557309 6114.40543632251
960.7900765020167 6111.811557764295
961.7049404656209 5997.024283936257
962.6195768134185 6071.858161433867
963.5339856122537 6032.477788216102
964.4481669289453 6072.831591995868
965.3621208302793 5974.062537829837
966.2758473830145 5986.20205948546
967.1893466538822 6078.503156482418
968.1026187095813 6030.28914628342
969.0156636167867 5996.817703314405
969.9284814421426 6045.66585098021
970.8410722522622 5986.121522969533
971.753436113735 5924.970171043281
972.6655730931161 5886.079569286641
973.5774832569368 6000.027376602102
974.4891666716958 5915.444940540414
975.4006234038698 5908.055638517223
976.3118535198955 5841.601892701599
977.2228570861935 5958.873120624351
978.1336341691494 5990.52426937977
979.0441848351202 5851.193100334365
979.9545091504333 5986.6929559547625
980.864607181391 5966.920680470268
981.7744789942699 5872.309731977997
982.6841246553086 5992.417235644882
983.5935442307236 5930.822935982707
984.5027377867027 5935.005525212996
985.4117053894024 5952.256200835343
986.3204471049557 5922.6630887832525
987.2289629994648 5934.013971521604
988.1372531390007 6064.87374055991
989.0453175896091 6055.3660574808655
989.9531564173067 5966.750590645916
990.860769688079 5931.981431155472
991.7681574678918 6004.369943664918
992.6753198226706 6016.370780375748
993.582256818323 5928.003087320261
994.4889685207218 5954.704076766046
995.3954549957143 6129.151806447542
996.301716309119 6000.102126087762
997.2077525267232 5948.479607591733
998.1135637142943 6033.368185931837
999.0191499375615 6059.439847764285
999.924511262232 6009.403373865736
1000.8296477539861 6006.191109819947
1001.7345594784656 6000.560777466488
1002.6392465012996 6007.255931436723
1003.5437088880753 6062.59069980981
1004.4479467043584 5969.495303369413
1005.3519600156869 5924.222460613977
1006.2557488875718 5987.098509309877
1007.1593133854858 5934.596300241936
1008.0626535748888 5881.454534798775
1008.9657695212009 5820.0776427428955
1009.8686612898182 5989.2309141280575
1010.7713289461135 6018.035345574546
1011.6737725554212 5924.063643912971
1012.5759921830577 5916.764160861478
1013.4779878943027 5922.9857328706075
1014.379759754418 5904.501519558444
1015.2813078286254 5817.791813024189
1016.18263218213 5817.443849416917
1017.0837328801026 5827.754928699459
1017.9846099876886 5850.5965372223645
1018.8852635700023 5802.752176410026
1019.7856936921362 5734.955000181744
1020.6859004191447 5833.63658772206
1021.5858838160675 5787.413886217168
1022.4856439479063 5736.557687871135
1023.3851808796389 5742.704897319316
1024.2844946762143 5834.558124412886
1025.183585402554 5691.250070653116
1026.082453123554 5641.612663121127
1026.9810979040776 5730.62638329846
1027.8795198089647 5685.513443234027
1028.777718903024 5775.756963980713
1029.6756952510368 5768.87769582472
1030.5734489177648 5649.9386214359
1031.4709799679313 5741.087375245787
1032.3682884662358 5788.261109269611
1033.2653744773506 5638.8131749669155
1034.1622380659192 5708.879257143177
1035.058879296559 5841.565054909846
1035.9552982338591 5927.72303648964
1036.8514949423825 5877.566510618868
1037.7474694866614 5961.655258689047
1038.6432219312028 5883.234859198719
1039.5387523404825 6143.674570036615
1040.4340607789582 6068.647840069401
1041.3291473110476 6087.749461933605
1042.2240120011465 6228.209222508742
1043.1186549136273 6363.114467812264
1044.0130761128294 6330.147204777404
1044.9072756630649 6405.649182679938
1045.8012536286205 6458.271708127859
1046.6950100737577 6529.250054371746
1047.588545062701 6666.041625549226
1048.481858659663 6623.970041964092
1049.3749509288118 6630.80722111341
1050.2678219343034 6577.546878676515
1051.1604717402515 6521.80960768242
1052.0529004107575 6393.781666773119
1052.9451080098825 6501.390282506034
1053.8370946016694 6508.044450940429
1054.7288602501267 6428.86409967509
1055.6204050192446 6308.599702275556
1056.511728972977 6278.403161762934
1057.402832175254 6108.419163104995
1058.2937146899785 6136.048236207693
1059.1843765810263 6074.290530174613
1060.0748179122456 6040.760367928158
1060.9650387474576 6040.209969682747
1061.855039150456 6009.029442767703
1062.7448191850071 5967.293933048223
1063.6343789148505 5872.062924380039
1064.5237184037014 5955.371880553625
1065.412837715241 5853.860036761105
1066.3017369131267 5727.134986119569
1067.190416060992 5768.098328676753
1068.0788752224398 5711.474511607334
1068.9671144610438 5670.463699187602
1069.8551338403558 5709.203280234426
1070.7429334239023 5749.571168023782
1071.6305132751695 5660.999711815762
1072.517873457633 5743.774433437687
1073.4050140347335 5663.523728081351
1074.2919350698776 5721.738611166363
1075.1786366264623 5637.305807519915
1076.0651187678395 5671.903995767522
1076.95138155735 5586.536722913363
1077.8374250582929 5607.416669138115
1078.7232493339507 5636.244248272982
1079.608854447577 5555.449817672278
1080.4942404623907 5609.2029499188375
1081.3794074415982 5654.293452197485
1082.2643554483657 5725.403426708414
1083.149084545841 5717.12823841491
1084.033594797138 5663.622354201349
1084.9178862653516 5672.6753791909705
1085.8019590135427 5846.1292033684485
1086.6858131047484 5609.645742844071
1087.5694486019802 5762.401342844094
1088.4528655682225 5794.439574803369
1089.3360640664287 5904.133395406456
1090.2190441595321 5789.94802980953
1091.1018059104317 5819.004573837798
1091.98434938201 5912.566454155998
1092.866674637111 5916.118250059275
1093.748781738559 5855.922760272336
1094.6306707491512 5770.593321231357
1095.5123417316554 5918.921828469876
1096.3937947488157 5739.337370986669
1097.2750298633455 5866.101755480164
1098.156047137938 5764.516970381027
1099.0368466352556 5809.244188619198
1099.9174284179317 5830.633596221759
1100.7977925485757 5707.883437795141
1101.6779390897755 5720.050140392749
1102.5578681040806 5666.248986715713
1103.4375796540226 5668.418288823971
1104.3170738021054 5660.5385011041035
1105.1963506108077 5495.700873656897
1106.0754101425773 5431.907214578814
1106.9542524598382 5549.917581515134
1107.8328776249855 5475.937321986826
1108.7112857003904 5398.169706210951
1109.5894767483987 5437.828124805459
1110.4674508313292 5531.843703570088
1111.3452080114657 5421.424160421299
1112.2227483510815 5469.542183566651
1113.1000719124077 5502.219059730717
1113.9771787576592 5383.369767263235
1114.854068949022 5506.471593305753
1115.7307425486542 5529.234078886125
1116.6071996186893 5499.86090054939
1117.483440221229 5511.412651579403
1118.3594644183577 5522.591337452199
1119.235272272128 5548.849058746875
1120.1108638445658 5501.466502215066
1120.9862391976712 5638.3144165153535
1121.8613983934229 5713.046591847318
1122.7363414937627 5625.620058041202
1123.6110685606182 5691.406760734951
1124.485579655884 5760.467958280558
1125.359874841426 5804.02866087433
1126.2339541790916 5722.075300567493
1127.1078177306936 5907.429142112194
1127.9814655580267 5725.94816343141
1128.854897722851 5830.690810097092
1129.7281142869106 5695.244985225981
1130.6011153119125 5829.827533761662
1131.473900859548 5928.488204397889
1132.3464709914697 5790.920340892753
1133.2188257693178 5753.21154090071
1134.0909652546961 5693.871117156302
1134.96288950919 5582.24426577767
1135.8345985943506 5671.158770474694
1136.7060925717087 5511.214035012976
1137.57737150277 5565.176150452802
1138.4484354490069 5620.072142101373
1139.3192844718778 5511.6211070291365
1140.1899186327992 5459.133897651172
1141.060337993178 5539.202723241071
1141.930542614382 5453.793211814766
1142.8005325577597 5346.750226194501
1143.670307884635 5225.45935457216
1144.5398686563003 5309.951821573607
1145.409214934025 5387.696118392215
1146.2783467790541 5150.004053092719
1147.1472642526023 5289.6407434760795
1148.0159674158622 5335.634442019978
1148.8844563300026 5213.328889077426
1149.7527310561618 5194.0524874960265
1150.6207916554504 5192.600893134456
1151.4886381889592 5077.732733567036
1152.3562707177498 5254.328204409945
1153.2236893028585 5161.992784804967
1154.090894005296 5067.98560730826
1154.9578848860474 5146.039181500686
1155.8246620060709 5071.9629617166775
1156.6912254262988 5089.129552485785
1157.5575752076438 5051.8816230099355
1158.42371141098 5162.7461053277075
1159.2896340971656 5218.957692942809
1160.1553433270346 5073.549892921738
1161.0208391613887 5099.143707182402
1161.8861216610057 5027.4014640478335
1162.75119088664 5091.631547109073
1163.6160468990201 5076.37899918701
1164.4806897588442 4994.21892756277
1165.3451195267917 5032.401476542058
1166.2093362635114 5101.20070040211
1167.0733400296285 5080.496836361939
1167.9371308857444 5022.3051352194525
1168.8007088924278 5026.140484083244
1169.6640741102328 5042.210183634787
1170.5272265996773 5002.080767672628
1171.390166421259 4860.419896239969
1172.252893635452 5097.444832476223
1173.1154083026995 5082.878306865787
1173.977710483421 5173.419417360139
1174.8398002380145 5008.092727461278
1175.7016776268483 5061.285891325151
1176.563342710264 5072.861021600638
1177.4247955485826 5122.347813277369
1178.2860362020947 5087.324639854494
1179.147064731069 5023.871362959152
1180.0078811957483 5018.780604170468
1180.8684856563486 5070.465812796865
1181.7288781730604 5072.378567265875
1182.589058806052 5052.806992393589
1183.4490276154593 5220.8295737448925
1184.3087846614017 5017.029845938674
1185.1683300039676 5129.435644780451
1186.027663703222 5184.296649294337
1186.8867858192025 5086.337282691015
1187.7456964119228 5187.049402425724
1188.6043955413716 5168.787358157219
1189.4628832675116 5247.166990798826
1190.3211596502842 5240.534322911944
1191.179224749596 5240.18401803895
1192.0370786253388 5182.89238693009
1192.8947213373758 5308.964281582421
1193.7521529455407 5399.144260698564
1194.6093735096438 5208.111074494749
1195.466383089477 5233.0738757368445
1196.3231817447977 5177.142144834067
1197.1797695353398 5331.460030069273
1198.0361465208189 5213.96991328795
1198.8923127609214 5211.249890620276
1199.7482683153048 5276.561237156902
1200.6040132436028 5348.861587604195
1201.459547605431 5154.737499859711
1202.3148714603722 5255.7864531537125
1203.1699848679855 5173.078604113586
1204.0248878878065 5267.162361261204
1204.8795805793507 5052.684560498629
1205.7340630020935 5292.064316262103
1206.5883352155033 5277.215472446387
1207.4423972790064 5156.396625157564
1208.2962492520237 5133.74535212396
1209.1498911939307 5126.625285186358
1210.0033231640937 5230.883283390261
1210.8565452218427 5158.915162811442
1211.7095574264913 4962.373144661007
1212.5623598373222 5023.009811681133
1213.4149525135963 4891.731966754725
1214.2673355145507 5054.372573105402
1215.1195088993936 5001.54648622961
1215.9714727273113 5000.994931363495
1216.8232270574663 5139.996707274344
1217.6747719489904 4873.283265563735
1218.5261074609934 4977.145528351419
1219.3772336525653 5028.416899425104
1220.2281505827668 5077.43425539791
1221.0788583106296 5059.687538358971
1221.9293568951707 4866.726662417802
1222.7796463953746 4710.817293114045
1223.629726870202 4971.596036864888
1224.4795983785934 4852.312764814093
1225.3292609794553 4853.985324891564
1226.1787147316809 4776.317018308072
1227.0279596941327 4807.21531855198
1227.8769959256424 4896.197274516994
1228.7258234850306 4862.552829781928
1229.5744424310833 4782.036058664936
1230.422852822563 4903.150103662825
1231.2710547182105 4893.875391466916
1232.119048176739 4899.2382894198845
1232.9668332568417 4758.5223177108755
1233.8144100171812 4843.182264455326
1234.6617785163999 4873.414276582568
1235.508938813111 4639.164452204468
1236.3558909659114 4684.556393567507
1237.2026350333617 4871.843615859457
1238.049171074008 4925.506259816893
1238.8954991463652 4801.75398388738
1239.741619308932 4876.2203845944805
1240.587531620169 4883.693639322091
1241.4332361385277 4889.913928612633
1242.2787329224248 4813.439745547295
1243.1240220302534 4719.466690443391
1243.9691035203869 4701.240628769974
1244.813977451171 4958.570963973719
1245.6586438809263 4852.610645680079
1246.5031028679496 4654.208434187251
1247.3473544705157 4877.825351817105
1248.1913987468706 4788.310639761354
1249.0352357552383 4746.1167508070985
1249.8788655538228 4765.419494457838
1250.7222882007918 4873.078253513966
1251.565503754302 4814.212192201976
1252.4085122724755 4648.024927138022
1253.2513138134182 4900.922073690149
1254.0939084352049 4749.046421177865
1254.9362961958905 4863.349025855269
1255.7784771535007 4832.592782015978
1256.6204513660432 4855.495273589845
1257.4622188915 4936.290473730232
1258.3037797878242 4879.465886004772
1259.1451341129468 4757.949645602459
1259.9862819247755 4884.962831245362
1260.8272232811978 4809.872552026789
1261.6679582400666 4961.930210102217
1262.5084868592203 4739.454813518051
1263.34880919647 4774.192766600593
1264.1889253095997 4833.782915576621
1265.0288352563712 4907.310489198831
1265.8685390945266 4810.784252511052
1266.7080368817751 4847.138181615231
1267.5473286758115 4902.971226179784
1268.386414534294 4861.036556369443
1269.2252945148703 4702.919606231933
1270.0639686751547 4834.279554141316
1270.9024370727402 4726.244206788369
1271.7406997651997 4783.488749870979
1272.5787568100714 4673.496538241414
1273.4166082648808 4773.755753595514
1274.2542541871244 4781.3223437171155
1275.091694634275 4906.27909816404
1275.9289296637817 4649.20130030771
1276.7659593330663 4898.278772027983
1277.6027836995308 4670.429872639312
1278.4394028205552 4787.865036643786
1279.2758167534867 4798.778426487409
1280.112025555658 4679.656803880438
1280.9480292843746 4761.64115325554
1281.7838279969128 4614.948809082459
1282.6194217505326 4787.401861762494
1283.4548106024686 4635.588523110409
1284.289994609926 4638.413036896133
1285.1249738300921 4825.5859286908835
1285.959748320127 4668.170216731721
1286.7943181371702 4793.359792680355
1287.6286833383328 4780.487826828614
1288.4628439807038 4802.860706536588
1289.2968001213521 4715.52682947805
1290.1305518173194 4775.096969314754
1290.9640991256183 4794.949630787756
1291.7974421032523 4734.183245638666
1292.630580807183 4700.279859059987
1293.463515294361 4861.196980078084
1294.29624562171 4897.22062603889
1295.12877184613 4816.416855851602
1295.961094024493 4692.505108276249
1296.79321221365 4769.945530283965
1297.6251264704333 4972.650281414775
1298.4568368516466 5093.5472091744095
1299.2883434140658 4907.502415799338
1300.1196462144526 4889.245271028378
1300.9507453095375 5021.894684239486
1301.7816407560313 5048.503650499816
1302.6123326106172 4977.216787792405
1303.4428209299622 4890.874144696649
1304.2731057707024 5051.00922863267
1305.1031871894502 4918.648293643541
1305.933065242798 5078.528528466247
1306.7627399873181 5028.257902855194
1307.5922114795467 5176.360926934267
1308.4214797760123 5078.8367243383145
1309.2505449332057 4997.037778144757
1310.0794070076026 5096.994218093837
1310.9080660556538 5189.947056566062
1311.736522133786 5136.748155550472
1312.5647752983987 5139.625481964269
1313.3928256058734 4999.5571929664675
1314.2206731125661 5120.963678540526
1315.048317874809 5178.541748706411
1315.8757599489109 5184.302280020684
1316.7029993911547 5162.339626315326
1317.5300362578055 5293.847360223428
1318.356870605101 5179.083155099456
1319.183502489257 5147.647261733732
1320.0099319664623 5291.327015230801
1320.836159092889 5288.033015230658
1321.66218392468 5267.655579988681
1322.4880065179532 5143.9353942203625
1323.3136269288134 5161.784656787198
1324.1390452133292 5308.354249537117
1324.9642614275563 5349.975032512512
1325.7892756275214 5206.346017929334
1326.6140878692295 5088.878164549176
1327.4386982086617 5428.072280744691
1328.2631067017755 5197.932133419365
1329.0873134045069 5079.051575667359
1329.911318372764 5035.893057428506
1330.735121662441 5030.275974683426
1331.558723329399 5041.317234700919
1332.3821234294774 5006.579303520069
1333.2053220185007 5039.3532095607425
1334.0283191522612 4930.020062492155
1334.851114886529 5007.9148490614625
1335.6737092770582 4843.5578731472815
1336.4961023795695 4897.507710036252
1337.3182942497697 4887.904074125927
1338.1402849433325 4838.282894731797
1338.962074515921 4774.315006222684
1339.7836630231632 4666.04078093052
1340.6050505206676 4978.030668554506
1341.426237064028 4903.943844113156
1342.2472227088037 4736.26258692012
1343.0680075105338 4665.511340040206
1343.888591524741 4743.639375937211
1344.7089748069138 4795.98701967106
1345.5291574125276 4600.723596934659
1346.3491393970307 4462.188617908041
1347.168920815846 4806.578554682404
1347.9885017243778 4606.128973503194
1348.8078821780036 4671.4347697124995
1349.6270622320844 4687.875462090056
1350.4460419419447 4507.009633763896
1351.2648213629054 4611.281415493724
1352.0834005502438 4425.354289187797
1352.90177955923 4538.617050463181
1353.7199584451064 4571.7267543356775
1354.5379372630887 4587.229918780804
1355.355716068374 4532.314007044833
1356.1732949161305 4464.382285890101
1356.9906738615155 4513.2722127860125
1357.8078529596478 4420.875594169536
1358.6248322656375 4500.549319602933
1359.441611834567 4418.220322365514
1360.2581917214866 4526.123689303672
1361.0745719814367 4381.695737922105
1361.890752669433 4424.490906399439
1362.7067338404577 4367.121756495557
1363.5225155494845 4489.498327900173
1364.3380978514506 4585.025218276042
1365.1534808012839 4327.935885402006
1365.9686644538815 4217.910726980287
1366.783648864117 4456.60266269509
1367.5984340868417 4493.616860295442
1368.413020176893 4458.407927602694
1369.2274071890715 4259.47750276959
1370.0415951781652 4453.192856497714
1370.8555841989346 4349.824701944537
1371.6693743061223 4287.1017783787465
1372.48296555444 4160.288889933976
1373.2963579985844 4388.963361590461
1374.1095516932255 4335.461071186471
1374.9225466930166 4159.275853566154
1375.7353430525782 4288.041012600637
1376.5479408265164 4312.388140549988
1377.36034006941 4315.977105402334
1378.1725408358216 4361.818523958615
1378.9845431802805 4197.605570130151
1379.796347157304 4475.632836230676
1380.6079528213813 4399.079361016574
1381.4193602269788 4247.973269356307
1382.230569428546 4231.196585437027
1383.0415804805016 4362.406013370682
1383.852393437246 4325.26626406715
1384.6630083531563 4331.57686043878
1385.4734252825892 4291.659899568028
1386.2836442798798 4316.154278026488
1387.0936653993322 4246.483369437734
1387.9034886952395 4343.467728588895
1388.713114221864 4370.464129352192
1389.5225420334482 4356.474142140328
1390.331772184214 4271.2524927328395
1391.1408047283585 4113.102391393647
1391.9496397200564 4219.576419496025
1392.758277213461 4396.775360319195
1393.5667172627054 4380.244575849554
1394.3749599218918 4243.183133943963
1395.1830052451114 4161.04334177944
1395.9908532864265 4290.644718200201
1396.7985040998774 4262.424327270544
1397.6059577394808 4254.7335887122645
1398.4132142592352 4130.203040512296
1399.2202737131156 4169.668646940494
1400.027136155073 4392.910202675722
1400.8338016390353 4169.713020119752
1401.6402702189134 4178.649732339171
1402.446541948586 4231.976489907191
1403.2526168819204 4166.955196883095
1404.058495072757 4116.358279986456
1404.8641765749107 4139.371514019406
1405.6696614421799 4211.577818372802
1406.4749497283356 4374.9406913935545
1407.280041487129 4149.057608621611
1408.084936772295 4005.598192208443
1408.8896356375335 4301.172341195575
1409.6941381365323 4092.305772755025
1410.498444322955 4051.154669241843
1411.3025542504402 4145.357596497603
1412.106467972606 4086.7841171873724
1412.9101855430508 4159.437250755744
1413.7137070153458 3972.869254813573
1414.5170324430437 4149.624779883062
1415.320161879672 4246.813107155309
1416.1230953787435 4354.541207048993
1416.925832993742 4042.392015778473
1417.7283747781275 4042.6469231908727
1418.5307207853439 4043.3358217928303
1419.3328710688093 4094.877281562586
1420.134825681922 3950.562873764555
1420.9365846780584 3995.131083682069
1421.7381481105713 4209.742704901027
1422.539516032788 4177.935773447599
1423.3406884980232 4085.121449381485
1424.1416655595604 3994.4699010576865
1424.942447270665 4052.4171691328193
1425.7430336845828 4224.246223566161
1426.5434248545298 4036.2367311648172
1427.3436208337116 4178.068648041849
1428.143621675301 4236.195947141853
1428.9434274324558 4289.361281515137
1429.7430381583108 4049.943418844209
1430.5424539059713 4316.34661494778
1431.3416747285337 4555.275614923875
1432.1407006790632 4244.057183828513
1432.9395318106053 4258.210951213514
1433.7381681761835 4225.563956479282
1434.5366098288014 4348.486327271174
1435.3348568214424 4285.672965970862
1436.1329092070573 4299.494641027577
1436.9307670385879 4375.509831934148
1437.7284303689503 4477.132088410265
1438.5258992510335 4479.761090781912
1439.3231737377118 4379.797769583642
1440.1202538818306 4384.914422273272
1440.9171397362225 4300.919694339072
1441.7138313536925 4257.883602053772
1442.5103287870243 4249.046741895251
1443.3066320889775 4195.105221647292
1444.1027413122956 4446.107222223074
1444.8986565096966 4199.854228743255
1445.694377733882 4324.533553895762
1446.4899050375207 4126.529844034209
1447.2852384732687 4269.302783984416
1448.0803780937622 4212.841738349402
1448.8753239516063 4095.733593906641
1449.6700760993954 3956.9790900311164
1450.464634589689 4099.389535269848
1451.2589994750397 4210.813896183914
1452.0531708079689 3984.4725528853473
1452.8471486409799 3996.6097496514985
1453.6409330265524 4113.799854803704
1454.4345240171442 3994.795694031401
1455.2279216651987 3886.0146153965447
1456.0211260231263 4005.072894492024
1456.8141371433194 4180.514793540549
1457.6069550781594 4028.870979761768
1458.3995798799897 3868.9390888858397
1459.1920116011424 3847.49583652608
1459.98425029393 3813.239572712777
1460.7762960106338 3848.6298392533363
1461.5681488035225 3919.4869727340483
1462.3598087248392 3883.839140361951
1463.1512758268036 3967.4670990862637
1463.942550161617 3651.915153264741
1464.7336317814625 3779.7451240693904
1465.524520738496 3930.507554009607
1466.3152170848552 3731.079893711033
1467.1057208726506 3685.6467618082106
1467.8960321539817 3804.9960038169424
1468.6861509809169 3679.778629484945
1469.4760774055085 3690.0636099775247
1470.265811479785 3757.5633209357024
1471.055353255755 3588.196684077038
1471.844702785409 3630.8162405317175
1472.6338601207044 3581.9691114986917
1473.4228253135934 3725.6630999796084
1474.2115984159936 3626.638080258241
1475.0001794798063 3463.1285124681026
1475.7885685569145 3637.674031583703
1476.576765699172 3517.3163782596835
1477.3647709584238 3499.2906792333024
1478.1525843864802 3702.708164729063
1478.9402060351367 3623.8700132450404
1479.7276359561693 3606.6620202448357
1480.514874201328 3516.0414843856574
1481.3019208223468 3335.383213369324
1482.0887758709323 3243.0819432492613
1482.8754393987747 3554.3928450789485
1483.6619114575406 3450.8702338212074
1484.4481920988783 3499.3935661516066
1485.2342813744108 3569.3883297976836
1486.0201793357446 3617.6519139836164
1486.8058860344572 3434.3183434663088
1487.591401522117 3497.5912392243818
1488.3767258502594 3473.7717832438843
1489.1618590704056 3377.50227276227
1489.9468012340494 3191.3863726891605
1490.7315523926754 3528.338397629416
1491.5161125977356 3553.8575792224156
1492.3004819006637 3454.286391434785
1493.084660352877 3360.4732965126286
1493.8686480057622 3465.0254977147597
1494.6524449106964 3595.9055812987667
1495.4360511190262 3571.717796948683
1496.219466682087 3510.475372088172
1497.0026916511779 3540.5828379719605
1497.7857260775945 3508.5387514356944
1498.5685700125996 3513.5412646385303
1499.3512235074395 3426.376550022447
1500.133686613337 3378.068072775904
1500.9159593814966 3366.3254172049224
1501.698041863101 3662.9138710250204
1502.4799341093094 3269.935047382015
1503.2616361712662 3277.13399807652
1504.043148100087 3440.824388404635
1504.8244699468742 3510.5460686555452
1505.6056017626997 3313.2826324546613
1506.3865435986281 3303.2662536168946
1507.1672955056893 3374.2174930363717
1507.9478575348967 3307.0933696188717
1508.7282297372512 3469.5628043676215
1509.5084121637192 3476.722952481791
1510.2884048652577 3315.2922942051096
1511.0682078927948 3312.7035567653293
1511.8478212972423 3300.652027462048
1512.6272451294917 3338.5929100173826
1513.4064794404076 3420.567859762752
1514.1855242808433 3505.982496180159
1514.9643797016215 3440.5003390394354
1515.743045753552 3475.8847860128903
1516.5215224874191 3342.8236622864874
1517.2998099539836 3225.6308660746504
1518.077908203999 3510.534026896114
1518.8558172881785 3385.8836246149717
1519.633537257234 3382.671053011808
1520.4110681618404 3453.490881157874
1521.1884100526604 3421.955080449067
1521.9655629803365 3467.450808028561
1522.7425269954856 3596.825609205733
1523.5193021487103 3629.632881031112
1524.2958884905856 3311.3685091214975
1525.0722860716687 3424.802833968815
1525.848494942502 3450.607284392509
1526.624515153595 3467.175670186097
1527.4003467554485 3378.050787422013
1528.175989798534 3518.1201536218387
1528.9514443333064 3456.540966656288
1529.726710410203 3694.060118516045
1530.5017880796331 3390.9311104068574
1531.276677391992 3417.1631323146466
1532.0513783976457 3530.3443376241025
1532.825891146953 3436.7929525713553
1533.6002156902414 3563.5477820142924
1534.3743520778207 3424.688099167892
1535.1483003599806 3490.9672687121047
1535.9220605869923 3372.4254311918858
1536.6956328091019 3500.2825082245195
1537.4690170765407 3366.457543435572
1538.242213439511 3522.8000330749696
1539.015221948208 3504.5651907466104
1539.78804265279 3454.094850411071
1540.560675603405 3218.3138035300367
1541.3331208501804 3472.2076613882477
1542.1053784432224 3515.271119620492
1542.8774484326168 3462.895996080488
1543.649330868422 3497.5821587565033
1544.4210258006842 3390.6749693645675
1545.1925332794308 3418.534610552057
1545.9638533546604 3422.267001830919
1546.7349860763552 3348.7386899172816
1547.5059314944829 3524.361663264899
1548.27668965898 3344.1595286952847
1549.0472606197673 3435.1447645053026
1549.817644426752 3282.86547977234
1550.5878411298072 3459.9933959442305
1551.3578507787988 3374.592319915165
1552.1276734235635 3238.026645008175
1552.8973091139233 3444.4540459736695
1553.6667578996767 3545.992025084665
1554.436019830604 3371.9604506347996
1555.20509495646 3344.0598651696555
1555.9739833269869 3315.3283511578106
1556.7426849919011 3314.1766360294014
1557.511200000903 3450.77990736528
1558.2795284036674 3517.031039227005
1559.0476702498509 3451.378186326946
1559.8156255890954 3458.573267508179
1560.5833944710157 3683.589622358054
1561.3509769452048 3318.4858159664373
1562.1183730612447 3385.988687435006
1562.8855828686865 3392.19581855279
1563.6526064170703 3580.81100508077
1564.4194437559127 3548.1794604313677
1565.1860949347047 3484.321039086613
1565.9525600029283 3627.9594879427177
1566.7188390100328 3706.5822973163313
1567.4849320054564 3377.4087197853696
1568.250839038612 3392.116601157116
1569.0165601588997 3420.10182715031
1569.7820954156887 3395.283850137429
1570.5474448583373 3411.9896520606862
1571.31260853618 3387.459306531956
1572.0775864985299 3274.090034978508
1572.8423787946813 3515.940007476188
1573.6069854739108 3395.6260499518003
1574.371406585471 3432.7020879883594
1575.1356421785986 3469.535553316063
1575.899692302506 3388.5921089686526
1576.6635570063845 3521.937310488316
1577.4272363394157 3385.201235879097
1578.190730350747 3296.303480201652
1578.9540390895163 3527.359843441319
1579.7171626048384 3108.6766777759894
1580.480100945806 3348.8218896010912
1581.2428541614918 3293.901316813445
1582.0054223009538 3296.480857387339
1582.767805413223 3344.997581317692
1583.5300035473156 3367.7330446516085
1584.292016752228 3488.948292309542
1585.0538450769309 3389.6446961743945
1585.8154885703807 3248.914673192078
1586.5769472815136 3226.5801064282828
1587.3382212592405 3317.0102207563277
1588.099310552463 3486.3237635085125
1588.8602152100484 3174.878943074428
1589.6209352808564 3450.126268379047
1590.3814708137234 3181.673165118862
1591.14182185746 3346.8401629368536
1591.9019884608679 3233.8766137876983
1592.6619706727215 3102.9603460042217
1593.4217685417734 3267.6585683766957
1594.1813821167616 3328.3666721939007
1594.9408114464022 3033.5729547765327
1595.7000565793933 3224.8556461365724
1596.459117564409 3361.5628476035063
1597.2179944501113 3084.1184285198697
1597.9766872851324 3108.6246671192907
1598.735196118092 3325.2036086267594
1599.4935209975883 3322.412287793048
1600.2516619721973 3292.63110235855
1601.0096190904787 3167.4261627525952
1601.7673924009723 3179.5086716653523
1602.524981952196 2990.911352920056
1603.2823877926476 3128.4453161578813
1604.0396099708087 3078.3386418497994
1604.7966485351371 2962.7057942184265
1605.5535035340745 3100.7163714327544
1606.3101750160404 3212.7729053492512
1607.0666630294363 3101.9772154748794
1607.822967622642 3090.466595749889
1608.5790888440224 3023.3887688276527
1609.3350267419137 3225.516690246004
1610.0907813646445 3128.6916041339045
1610.8463527605145 3105.1909230719994
1611.601740977805 3143.102438113609
1612.356946064785 3152.148652206139
1613.1119680696902 2942.1762334923483
1613.8668070407512 3108.6244951552153
1614.6214630261748 2979.002625280882
1615.375936074137 3185.195358703071
1616.1302262328118 3088.3453792435175
1616.8843335503425 3178.51760031142
1617.638258074854 2933.1017173063674
1618.391999854457 3178.8219554715747
1619.1455589372363 3258.865763495001
1619.8989353712623 3067.1193717283777
1620.65212920458 2911.1448638133656
1621.4051404852235 3022.9543536958745
1622.1579692611976 2946.984888815291
1622.9106155804966 2935.9365970995304
1623.663079491087 3028.9585481690197
1624.4153610409248 3079.8460896163756
1625.1674602779385 3037.1742168804412
1625.9193772500403 2975.348529789913
1626.6711120051277 3075.4981907630763
1627.4226645910676 3075.224448755049
1628.174035055721 2878.7631769082823
1628.9252234469168 3059.3782912918805
1629.676229812474 3041.291543972061
1630.4270542001905 3036.0651912639146
1631.1776966578382 3134.1525274523806
1631.9281572331747 3035.5179672962577
1632.678435973945 3138.2002329492148
1633.4285329278573 3061.5556310830602
1634.1784481426203 2888.874517960391
1634.9281816659113 2995.9819243577463
1635.677733545388 3226.6479931018685
1636.4271038286934 3013.4098000780336
1637.176292563452 3138.6434942316127
1637.9252997972635 3118.6423608480777
1638.674125577716 3143.2640278309545
1639.4227699523672 3201.018514317805
1640.171232968767 2837.524508217232
1640.9195146744423 3044.884687617926
1641.6676151168977 3222.399275256343
1642.4155343436178 3049.480777014582
1643.1632724020765 2957.167604530833
1643.9108293397167 2977.306738758646
1644.658205203974 3005.4051018085484
1645.4054000422566 3417.2043318181495
1646.1524139019566 2994.589901067372
1646.8992468304423 2938.5099426616434
1647.6458988750728 3051.4451647979454
1648.3923700831765 3124.4826572761144
1649.1386605020743 3006.4014973465273
1649.8847701790564 3159.3917407180206
1650.6306991614038 3124.730327469107
1651.3764474963682 3108.996142795865
1652.1220152311944 2910.6176930977986
1652.867402413096 3150.947658887615
1653.6126090892776 3003.240303398451
1654.3576353069184 3285.9815082966247
1655.1024811131829 3063.895886102866
1655.8471465552066 3030.084927489069
1656.5916316801213 3190.0328016111953
1657.3359365350298 3149.6589709060936
1658.0800611670165 2982.332747397554
1658.824005623148 2979.111507507569
1659.5677699504722 3023.6406648581947
1660.3113541960192 3086.6108967816594
1661.054758406799 3031.125812694867
1661.7979826297997 2890.3670982613694
1662.5410269119966 2864.5630711381555
1663.283891300338 2992.1768770056037
1664.0265758417645 2957.663052296155
1664.7690805831826 3063.4605741597484
1665.5114055714948 3000.3011669935654
1666.2535508535748 3224.186198502649
1666.9955164762814 2763.130535666832
1667.7373024864555 3034.2551768022854
1668.478908930916 3079.18859383422
1669.220335856462 2998.975347777836
1669.9615833098778 2988.146129829533
1670.7026513379296 2857.0586772095676
1671.44353998736 3023.9620304645814
1672.1842493048916 2826.6503400557935
1672.9247793372379 3004.054268448003
1673.6651301310812 2965.9269785102706
1674.4053017330934 2817.357010011833
1675.1452941899242 3003.0978235672287
1675.885107548207 2595.642057450599
1676.6247418545518 2713.607642403363
1677.3641971555535 2817.3890043283477
1678.1034734977893 2924.7753048172644
1678.8425709278108 2880.6320981736617
1679.5814894921605 2980.6401227724105
1680.320229237359 2800.1515176239145
1681.0587902098978 2987.7012916506314
1681.7971724562685 2898.896404061066
1682.5353760229264 2703.2765411073806
1683.2734009563173 2876.530865770799
1684.0112473028657 2652.509370230472
1684.7489151089794 2820.2314051862554
1685.4864044210462 2876.284457538927
1686.2237152854377 2599.31063154991
1686.960847748498 2882.708953285789
1687.6978018565642 2756.9250297736535
1688.434577655944 2668.7431507906176
1689.1711751929379 2700.8989190028688
1689.9075945138156 2844.2311495739996
1690.6438356648396 2740.7604361417602
1691.3798986922448 2470.48340690258
1692.1157836422499 2723.711098066319
1692.851490561059 2602.0057714168106
1693.587019494853 2716.1034188094536
1694.3223704897991 2479.2884886571787
1695.0575435920364 2463.9015089920804
1695.792538847696 2727.3194205848167
1696.527356302886 2556.955335726853
1697.2619960036936 2427.3291058523255
1697.9964579961907 2367.083116137591
1698.730742326432 2292.9282021912204
1699.4648490404488 2351.246019238642
1700.1987781842563 2591.3241992713993
1700.9325298038548 2609.669371524773
1701.6661039452174 2677.218732155277
1702.3995006543082 2577.638580083308
1703.1327199770658 2623.41647672361
1703.865761959416 2479.076075867636
1704.598626647261 2640.553669382723
1705.3313140864866 2438.8692138013503
1706.0638243229587 2426.2371759402254
1706.7961574025303 2574.344573142028
1707.528313371029 2457.785731001662
1708.260292274268 2225.72669525392
1708.9920941580403 2412.9408666748677
1709.7237190681226 2456.035535634367
1710.4551670502697 2388.7519336219066
1711.18643815022 2307.2002941171604
1711.9175324136959 2578.1734153781067
1712.6484498863938 2392.12358735609
1713.379190614005 2255.674642205226
1714.109754642188 2377.525417256279
1714.8401420165883 2379.398553860494
1715.570352782839 2763.6103124598712
1716.3003869865497 2461.7141652642254
1717.0302446733076 2288.9234803261634
1717.7599258886876 2409.536983754071
1718.4894306782444 2580.3117058035814
1719.2187590875183 2190.4420717494695
1719.9479111620203 2598.195855175061
1720.6768869472544 2312.3714848432587
1721.4056864887025 2441.644314169035
1722.1343098318284 2493.21874364168
1722.8627570220742 2375.3775273652723
1723.591028104871 2240.0405664724276
1724.3191231256242 2169.0196169666265
1725.0470421297232 2345.8936585288243
1725.7747851625427 2445.357769096195
1726.5023522694337 2443.8638280819023
1727.2297434957363 2381.9269247749885
1727.9569588867635 2002.4993979019898
1728.6839984878152 2382.044621574291
1729.4108623441734 2123.039482005045
1730.1375505011038 2367.4999282364447
1730.8640630038426 2256.7501345127903
1731.5903998976264 2257.3051995819214
1732.316561227657 2302.817964068749
1733.0425470391274 2128.8608571441478
1733.7683573772065 2341.602993332258
1734.4939922870508 2278.3331921397084
1735.2194518137949 2323.6143085607864
1735.9447360025606 2243.9895884902867
1736.669844898439 2243.3022914867465
1737.3947785465189 2096.7015758908183
1738.1195369918605 2029.8309750842182
1738.8441202795093 2234.013893583481
1739.5685284544943 2360.3180981921287
1740.292761561821 2355.769801854459
1741.0168196464838 2241.5841141589403
1741.7407027534518 2388.5282607953413
1742.464410927687 2226.648106839391
1743.187944214118 2317.8299448403836
1743.9113026576688 2194.2720270302584
1744.634486303241 2283.519093696469
1745.3574951957125 2233.876098724553
1746.0803293799509 2221.240620619431
1746.8029889008048 2208.701285962782
1747.5254738031017 2201.619515995713
1748.2477841316504 2099.610422930751
1748.969919931249 2185.949497332888
1749.6918812466665 2138.636609479255
1750.4136681226646 2335.9106705557924
1751.1352806039777 2187.1580339871225
1751.856718735331 1970.6600917000019
1752.5779825614281 1977.4702424320008
1753.2990721269507 2246.419171508226
1754.0199874765676 2186.698272233714
1754.7407286549314 2023.1478677340579
1755.4612957066693 2157.1672624423236
1756.1816886763954 2031.9863963913012
1756.9019076087097 2187.7354954756
1757.6219525481865 2216.756996123726
1758.3418235393856 2139.1061401048164
1759.061520626854 2112.075046119605
1759.7810438551096 2189.08402891695
1760.5003932686614 2116.384060814686
1761.2195689119999 2302.423220273145
1761.938570829594 2232.1492668268206
1762.657399065898 2107.765900076927
1763.376053665348 2010.0899954817128
1764.0945346723602 2024.8560320286638
1764.812842131334 2273.445563811163
1765.5309760866512 2047.0291157039792
1766.2489365826787 2018.9308656490389
1766.9667236637597 2066.604530343853
1767.684337374223 1989.7045959971044
1768.401777758383 1935.6493738396232
1769.1190448605284 2061.96448263445
1769.836138724937 2014.3467339148615
1770.5530593958665 2056.2823596145217
1771.2698069175603 2190.412760793681
1771.9863813342326 2251.6801712741117
1772.702782690094 2028.1154128471258
1773.4190110293293 2223.7034776544338
1774.1350663961111 2191.4698591974284
1774.8509488345844 2130.2613620658744
1775.5666583888924 2124.6872460318946
1776.2821951031437 2190.111375726422
1776.9975590214362 2104.453117983181
1777.7127501878585 2260.3502588847396
1778.4277686464684 2189.9405853492476
1779.1426144413108 2223.7318686677927
1779.8572876164162 2158.2631452630103
1780.571788215797 1907.3652901309608
1781.2861162834415 2110.1078886616096
1782.0002718633277 2126.687298670936
1782.7142549994132 2144.09528700417
1783.4280657356376 2153.400198410685
1784.141704115922 2078.6958229467355
1784.855170184177 2036.8161283882496
1785.5684639842839 2103.0012024873245
1786.2815855601148 1912.0832335087657
1786.9945349555237 2144.8521277411496
1787.707312214343 2058.200666257598
1788.4199173803918 2251.9434850980197
1789.132350497468 1902.7702364874417
1789.8446116093583 2039.4443268396492
1790.556700759822 1914.830138269789
1791.2686179926077 2030.0612671048389
1791.9803633514493 2091.822145516638
1792.6919368800554 1975.9129988858203
1793.4033386221236 2110.347026681589
1794.1145686213295 2142.041703549927
1794.8256269213307 2226.1282478314142
1795.536513565774 2172.770383093705
1796.247228598284 1892.1857886867037
1796.9577720624693 1949.1403415318423
1797.6681440019165 2140.9236287817866
1798.3783444602013 1997.4928504715244
1799.0883734808776 2233.18414921949
1799.7982311074884 2182.4637414049903
1800.5079173835475 2040.8145560514527
1801.2174323525633 2037.450877639675
1801.9267760580187 1993.499276805792
1802.635948543386 2008.0659599048463
1803.3449498521113 1885.3121542951128
1804.0537800276325 2048.661015017947
1804.7624391133668 2064.8278094027132
1805.47092715271 1851.5479770303245
1806.1792441890484 1985.3978523203732
1806.8873902657433 1956.051088639532
1807.5953654261448 2108.519184760453
1808.3031697135812 1965.4829697499608
1809.0108031713662 1927.8179136335668
1809.71826584279 2004.8640639239886
1810.425557771141 1957.0673375118708
1811.1326789996747 1883.6986483976311
1811.839629571632 1810.1420044055067
1812.5464095302468 1967.8077779513897
1813.2530189187182 2007.909894655451
1813.959457780249 1968.703633581156
1814.6657261580076 2100.6026471417063
1815.371824095153 1989.5544817304308
1816.0777516348262 2107.423535305349
1816.78350882015 1718.8142935451015
1817.4890956942272 1903.7093746085388
1818.1945123001533 2044.5014837107217
1818.8997586809928 2015.4961442039403
1819.6048348798067 1855.758126924345
1820.3097409396287 1958.201874307403
1821.0144769034796 2330.757464006062
1821.7190428143622 2061.6205132616765
1822.423438715261 2090.1417512402236
1823.1276646491478 1954.8147850928792
1823.8317206589727 2000.7435647485454
1824.5356067876692 2018.8947535898453
1825.2393230781581 1937.8387683209578
1825.942869573335 1855.8789382805073
1826.646246316086 1972.3019844292019
1827.3494533492758 1900.4207660596571
1828.052490715756 1986.674199102164
1828.7553584583547 2057.8745659312963
1829.458056619891 2026.497455574911
1830.1605852431585 1980.021842611559
1830.8629443709433 1843.4828256420374
1831.5651340460063 1963.0640560321353
1832.2671543110919 1740.618308889203
1832.9690052089318 2103.3854049454867
1833.6706867822395 1903.8229084074549
1834.3721990737104 2028.4805693892135
1835.0735421260233 2033.5710748827255
1835.774715981841 1882.4924413763747
1836.4757206838058 2011.0525867197332
1837.1765562745459 2022.57133898151
1837.8772227966747 1823.083128946986
1838.5777202927839 1958.078492864225
1839.2780488054523 1914.8566930259797
1839.9782083772352 1889.679008507625
1840.6781990506806 2061.7769148388825
1841.378020868313 1954.95253399393
1842.0776738726418 2057.4801832279763
1842.777158106157 1869.5242768190383
1843.4764736113375 1852.24191997163
1844.1756204306403 2046.1188570665004
1844.8745986065078 1871.2826040911102
1845.5734081813607 1926.7948237454832
1846.2720491976124 1932.260786181303
1846.970521697649 1784.0436813860167
1847.6688257238511 1881.245883175056
1848.3669613185684 1933.1910165419818
1849.0649285241452 1669.989201520629
1849.7627273829057 2057.5696295681364
1850.460357937156 1926.0111410517518
1851.1578202291857 1734.6355400996497
1851.8551143012664 1950.1853927005782
1852.5522401956569 1855.2435118114106
1853.2491979545957 1978.5348888297838
1853.9459876203055 1895.5463244118378
1854.6426092349902 1735.2652845287635
1855.3390628408451 1863.8752666262837
1856.0353484800362 1978.161051028858
1856.7314661947203 1936.465958526685
1857.4274160270397 1828.2356025769689
1858.123198019115 1883.2981353373093
1858.8188122130487 1758.438639300962
1859.5142586509319 1862.021569692069
1860.209537374838 1833.135260258206
1860.9046484268183 1875.313863618238
1861.599591848917 1967.0149496077913
1862.294367683151 1710.4614457765038
1862.988975971528 1810.815038226725
1863.6834167560355 1723.370639973797
1864.3776900786452 2009.2840485708525
1865.0717959813119 1836.4586946893564
1865.7657345059724 1772.392628659758
1866.4595056945564 1953.4529382431042
1867.1531095889586 1896.4740719883557
1867.846546231076 1722.3672556510478
1868.5398156627743 1897.8836469073533
1869.2329179259123 1826.8597793084969
1869.9258530623283 2015.054991815006
1870.618621113843 1760.6964047920253
1871.3112221222636 1777.0442088964635
1872.0036561293764 1786.3358945225712
1872.695923176956 1845.7011720288442
1873.3880233067594 2048.5148897620825
1874.0799565605212 1742.840841560749
1874.7717229799673 1932.706113003515
1875.4633226068036 1932.4674237085594
1876.1547554827175 2000.2075591595171
1876.8460216493859 1751.0415960858966
1877.5371211484617 1851.4546396799822
1878.2280540215852 2013.9321816155048
1878.9188203103804 1712.78483621224
1879.6094200564548 1832.8383495037972
1880.299853301396 1734.9510465332958
1880.9901200867826 1814.344910455308
1881.6802204541673 1893.8378815821568
1882.3701544450942 1901.4432414389125
1883.059922101087 1742.7472236055917
1883.7495234636517 1944.1805610424478
1884.4389585742792 1646.3208486262924
1885.1282274744517 1737.4208691028118
1885.8173302056166 1811.6915960317237
1886.506266809225 1886.0642842199918
1887.195037326701 1858.7758546391942
1887.8836417994517 1720.6934822468459
1888.5720802688702 2067.0601804748753
1889.260352776333 1899.489929293652
1889.9484593632042 1997.6627268138957
1890.63640007082 1746.5259395385915
1891.3241749405151 1698.6137304647953
1892.0117840135954 1862.4904354730365
1892.6992273313572 1862.2472473113817
1893.3865049350788 1614.7291793594268
1894.0736168660223 2045.2665635653193
1894.7605631654333 1854.1284534307251
1895.4473438745408 1731.1076904710123
1896.133959034556 1983.880900207229
1896.820408686679 1848.8640820947192
1897.506692872088 1972.7568108888759
1898.192811631945 1859.1536779300502
1898.8787650073991 1832.2193281427226
1899.5645530395832 2019.6842261442646
1900.2501757696118 1843.6374281184028
1900.9356332385796 1956.4221365309506
1901.620925487574 1702.384704346184
1902.3060525576602 1843.6543475885912
1902.9910144898859 1833.6409080801682
1903.6758113252872 1675.5184120507352
1904.3604431048789 1870.2761995643718
1905.0449098696663 1860.4910720389512
1905.7292116606295 1750.35714570866
1906.4133485187394 1846.3517913536475
1907.0973204849488 1684.72481238057
1907.7811276001976 1692.0174371375597
1908.4647699053967 1851.341270701613
1909.1482474414588 1500.1322795403282
1909.8315602492694 1610.78416134367
1910.5147083696957 1888.7538719318388
1911.1976918436012 1713.7969628537787
1911.880510711815 1735.3930819400834
1912.5631650151681 1935.6025691587333
1913.2456547944657 1839.3115788578918
1913.927980090495 1651.5589102812385
1914.6101409440362 1678.56867097457
1915.2921373958416 1840.467631412921
1915.9739694866603 1893.57649738472
1916.655637257214 1791.4119186109012
1917.3371407482136 1807.5813295944579
1918.0184800003572 1967.3362885486877
1918.6996550543154 1889.046234832303
1919.3806659507554 1837.4649876372837
1920.0615127303208 1799.64235127754
1920.7421954336423 2007.7963553509944
1921.4227141013343 1880.6543179461728
1922.103068773993 1881.6464748832939
1922.783259492202 1908.7099185507227
1923.4632862965227 1646.4036312442956
1924.1431492275078 1749.8808125806838
1924.8228483256917 1672.780496026293
1925.5023836315922 1724.3599943881404
1926.1817551857057 1544.6104566454806
1926.8609630285227 2058.6945157059454
1927.5400072005123 1915.5349549667528
1928.218887742125 1680.5198931303235
1928.8976046938005 1811.4089929691788
1929.5761580959588 1971.7499127658364
1930.2545479890086 1805.9057044639317
1930.9327744133352 1647.294059398592
1931.6108374093164 1795.0790535757574
1932.2887370173066 1813.2200908714342
1932.9664732776473 1864.8405940703979
1933.6440462306673 1916.5111738118019
1934.3214559166754 1737.1244509185249
1934.9987023759659 1920.6302980332034
1935.675785648813 1691.521464727673
1936.3527057754836 1532.0955992188033
1937.029462796223 1947.5374620107218
1937.70605675126 1755.8000059608016
1938.3824876808085 1703.518484438246
1939.058755625072 1809.2380530943312
1939.7348606242267 1750.2915452300117
1940.4108027184448 1821.0320369692677
1941.0865819478713 1773.440945898485
1941.7621983526478 1697.9863417056908
1942.4376519728921 1626.1726570700196
1943.1129428487038 1639.5055045520917
1943.7880710201734 1820.813547273027
1944.4630365273733 1898.6833185752007
1945.1378394103576 1656.3299929297877
1945.8124797091714 1910.2825869416088
1946.4869574638324 1488.0542595045636
1947.161272714353 1797.2199004463025
1947.8354255007234 1835.5722427704652
1948.5094158629272 1583.03934390153
1949.1832438409183 1702.4823857976758
1949.8569094746435 1863.769998257804
1950.530412804037 1884.8187051700963
1951.2037538690092 1905.8992976631725
1951.8769327094578 1740.590621644651
1952.5499493652678 1647.824999415412
1953.222803876306 1869.9117712377906
1953.895496282421 1855.7753026027622
1954.5680266234522 1680.82675303757
1955.2403949392155 1805.7250026974566
1955.9126012695142 1570.8912436436472
1956.5846456541403 1780.7082305125125
1957.2565281328643 1550.4472490817905
1957.9282487454457 1752.781209519639
1958.5998075316202 1748.1787145256665
1959.27120453112 1673.1867855481094
1959.9424397836501 1722.504513887166
1960.613513328908 1848.3732380863917
1961.2844252065697 1896.9391519706921
1961.9551754563017 1603.909608640041
1962.6257641177453 1633.5728896964506
1963.29619123054 1551.1308646691793
1963.966456834296 1506.863891800308
1964.6365609686181 1680.9899523445827
1965.306503673086 1836.5468997231524
1965.976284987275 1657.211711379368
1966.645904950734 1744.8044576766192
1967.315363603002 1655.874681587275
1967.9846609836077 1765.1184600381625
1968.6537971320486 1610.8101148375722
1969.3227720878222 1689.3532917410964
1969.9915858904042 1553.578538055765
1970.660238579252 1787.28115681363
1971.3287301938108 1657.5137703573819
1971.997060773514 1641.5180849031308
1972.665230357772 1623.7250424170395
1973.3332389859843 1602.1332905207514
1974.0010866975335 1442.8909972789468
1974.6687735317864 1706.0183930469084
1975.3362995280932 1778.9839475921017
1976.003664725793 1684.0723624483155
1976.6708691642052 1495.4217243410571
1977.3379128826364 1640.7180654335175
1978.004795920373 1835.8771044203652
1978.6715183166925 1887.7355762768905
1979.3380801108524 1448.225300201673
1980.0044813420973 1619.6462302523864
1980.6707220496555 1438.065228836681
1981.3368022727373 1681.8227205215958
1982.0027220505417 1788.153278355337
1982.66848142225 1348.5367004425657
1983.3340804270283 1547.1163856309142
1983.999519104027 1544.652776891267
1984.6647974923835 1665.630445037324
1985.329915631215 1591.9662372370217
1985.99487355963 1720.2030879487447
1986.6596713167146 1808.353401573222
1987.3243089415428 1521.877537653833
1987.9887864731754 1741.9583133538806
1988.6531039506553 1613.2748577128264
1989.3172614130071 1525.7852274533914
1989.9812588992481 1438.1685560068513
1990.645096448372 1394.9348779490667
1991.3087740993633 1643.2655502266728
1991.9722918911848 1514.0378997527077
1992.635649862792 1648.3433261480136
1993.2988480531185 1490.497113593724
1993.9618865010852 1525.004755000813
1994.6247652455968 1559.6500027101079
1995.287484325545 1582.7356867871072
1995.9500437798033 1615.1277823131195
1996.6124436472292 1464.9123007787737
1997.2746839666706 1441.6308199278687
1997.936764776954 1418.3062596741347
1998.598686116895 1647.480226015269
1999.2604480252903 1792.0162009514756
1999.9220505409212 1778.6582406605805
2000.5834937025593 1521.5042747487562
2001.2447775489582 1533.349519209461
2001.9059021188514 1648.11084654308
2002.5668674509616 1581.4727872632398
2003.2276735839987 1584.7568508011132
2003.8883205566508 1564.198286316419
2004.5488084075987 1602.4557750132894
2005.2091371755014 1591.1473391901186
2005.8693068990033 1454.6902992558385
2006.5293176167397 1744.7830665841932
2007.1891693673224 1531.7957390326421
2007.848862189354 1430.5959147932251
2008.5083961214223 1535.997852572523
2009.1677712020955 1556.4799365344493
2009.8269874699254 1551.086735402823
2010.4860449634598 1907.4931510043202
2011.1449437212177 1907.4399165121176
2011.8036837817108 1907.4890351296303
2012.4622651834325 1625.5278034560902
2013.1206879648653 1813.51139431347
2013.7789521644736 1812.0677830925893
2014.4370578207036 1678.136697962886
2015.0950049719922 1543.7755406883095
2015.7527936567585 1653.6642979900003
2016.4104239134067 1629.6778570471834
2017.067895780323 1841.4473886039027
2017.725209295886 1804.3082494242542
2018.3823644984514 1767.0217646796632
2019.0393614263648 1606.9192991064056
2019.6962001179545 1475.0780498083436
2020.3528806115355 1675.1671132663628
2021.0094029454067 1549.4642716540047
2021.6657671578487 1404.2210217246645
2022.321973287133 1570.9022520940748
2022.9780213715148 1564.627931509029
2023.6339114492293 1639.944287994246
2024.2896435585026 1553.3662205902328
2024.9452177375442 1647.3741091740935
2025.600634024544 1751.467137992738
2026.2558924576842 1729.621445759037
2026.9109930751292 1694.744350453333
2027.565935915025 1625.0724488978783
2028.2207210155066 1844.9234332391356
2028.8753484146964 1913.2738965339013
2029.529818150695 1820.6098684979165
2030.1841302615903 1727.5277338179658
2030.8382847854573 1428.6488348016035
2031.4922817603601 1638.4932039999694
2032.1461212243357 1602.268747960378
2032.7998032154192 1367.2741556882784
2033.4533277716218 1555.3041394520108
2034.1066949309443 1555.6492142247512
2034.7599047313688 1484.3797311065923
2035.4129572108704 1751.8587203447405
2036.0658524074006 1684.8974542202163
2036.7185903589016 1712.6388494506741
2037.3711711032956 1737.1932006770064
2038.023594678496 1597.4193631175774
2038.675861122394 1488.4862964605177
2039.3279704728757 1703.6382258988656
2039.9799227678031 1675.7521792780262
2040.6317180450278 1647.9081454589202
2041.2833563423865 1538.9790376534386
2041.9348376977014 1731.0795739872106
2042.5861621487784 1511.681549015981
2043.2373297334088 1603.7286981708746
2043.8883404893695 1643.4016605439988
2044.5391944544208 1643.9068206269858
2045.1898916663158 1751.5619169647537
2045.8404321627804 1660.0917085407868
2046.4908159815368 1449.6640701890421
2047.1410431602853 1205.2332128112625
2047.7911137367173 1444.6436049859324
2048.441027748504 1653.9535349499524
2049.090785233302 1499.895428475275
2049.7403862287592 1518.5249600004818
2050.389830772503 1700.0132358639123
2051.0391189021466 1457.0376276377706
2051.688250655294 1540.999390386587
2052.337226069527 1465.4392977647367
2052.986045182417 1618.3843122942933
2053.634708031521 1397.7187101244322
2054.283214654375 1591.6541857694524
2054.931565088511 1536.6259146604427
2055.579759371436 1481.5019902776814
2056.2277975406523 1547.1469729265077
2056.8756796336384 1598.0514605394378
2057.5234056878617 1267.4191572978614
2058.1709757407752 1565.7998197367049
2058.8183898298194 1661.4546353364312
2059.465647992416 1685.6028518792311
2060.1127502659747 1620.11961318635
2060.759696687888 1314.332413388317
2061.4064872955405 1595.5385445492261
2062.053122126292 1404.7928132373013
2062.699601217497 1649.4060637185771
2063.345924606485 1444.6049445537997
2063.992092330587 1649.2836170141375
2064.638104427102 1411.5944179181683
2065.283960933324 1556.3492094958115
2065.92966188653 1474.0905372619095
2066.5752073239855 1539.4883568687833
2067.2205972829397 1411.7049494559044
2067.86583180062 1534.015182775655
2068.5109109142522 1517.645099581708
2069.15583466104 1474.5256231116
2069.8006030781708 1431.3675197546559
2070.445216202821 1466.2087099134646
2071.089674072153 1570.6013982227307
2071.7339767233116 1622.6319412731013
2072.3781241934303 1609.6908752914073
2073.0221165196253 1551.1125219524997
2073.6659537390024 1525.6491939160585
2074.3096358886505 1662.4797502543056
2074.953163005637 1502.255806464446
2075.596535127028 1346.4517171837026
2076.2397522898664 1420.5828039181567
2076.882814531182 1452.428378920703
2077.5257218879924 1604.6728072637973
2078.1684743973 1433.6383298576732
2078.8110720960885 1499.9486346984638
2079.453515021336 1750.054207133559
2080.095803209997 1448.845394521345
2080.7379366990135 1686.4623179068954
2081.37991552532 1548.1412963983146
2082.0217397258275 1543.1605069189584
2082.6634093374414 1245.7259915582856
2083.3049243970418 1516.0049053617931
2083.9462849415067 1726.75833775742
2084.587491007689 1597.6115951974384
2085.2285426324324 1497.259605624886
2085.869439852564 1413.0077490277429
2086.510182704902 1238.4499082948248
2087.1507712262483 1498.8101940892288
2087.791205453381 1371.4997742981634
2088.4314854230743 1500.1814773794429
2089.0716111720867 1537.3828689197037
2089.7115827371617 1258.7697531647223
2090.351400155023 1300.5387681775994
2090.991063462385 1342.4481255626745
2091.6305726959527 1477.6781059886885
2092.2699278924047 1591.101641916881
2092.9091290884153 1513.4374209322323
2093.548176320641 1246.3834192886363
2094.187069625721 1280.4971684640627
2094.8258090402887 1314.6853549408172
2095.464394600951 1480.2263254296624
2096.102826344313 1483.0324811386677
2096.741104306955 1484.67975302604
2097.379228525453 1459.2855079710816
2098.017199036358 1228.976626989209
2098.6550158762147 1608.6691913555856
2099.2926790815527 1532.5544335338268
2099.9301886888825 1504.6772228729203
2100.5675447347076 1443.6110980656626
2101.2047472555114 1551.6738111782497
2101.841796287761 1332.9224523704863
2102.47869186792 1329.008838259258
2103.1154340324265 1325.1015057315403
2103.752022817709 1520.3186192682267
2104.388458260184 1350.6132948390498
2105.024740396251 1501.0397363529019
2105.660869262292 1444.282234164037
2106.296844894685 1499.6682713893806
2106.93266732978 1521.7442355346357
2107.5683366039284 1266.2189831389385
2108.2038527534532 1445.1280397682578
2108.8392158146726 1616.1071944882972
2109.4744258238843 1477.5822638957839
2110.1094828173755 1540.2188376869894
2110.744386831422 1603.0425808348364
2111.3791379022787 1492.983207772923
2112.01373606619 1545.6850163713193
2112.648181359389 1532.0088865967825
2113.28247381809 1508.5792468277557
2113.916613478492 1624.458193684652
2114.550600376786 1387.305824078317
2115.1844345491445 1385.2748689008388
2115.818116031729 1458.588025204314
2116.451644860679 1449.154508243319
2117.085021072133 1226.2785782512951
2117.718244702204 1433.6623577500466
2118.3513157869984 1325.0231537670484
2118.984234362604 1251.5819962298306
2119.617000465092 1390.8389975451619
2120.249614130529 1698.0222634664053
2120.8820753949585 1646.674938598379
2121.5143842944162 1516.8144856443548
2122.14654086492 1170.8064436408224
2122.7785451424734 1245.0693072816287
2123.4103971630702 1319.631340872582
2124.042096962681 1602.018490985368
2124.6736445772767 1558.4916695132154
2125.305040042802 1249.4475577082005
2125.936283395191 1385.9224132603736
2126.567374670365 1452.1193851827027
2127.198313904233 1422.9025732189286
2127.8291011326855 1374.835414863905
2128.4597363916037 1326.504312460562
2129.0902197168507 1403.504668306489
2129.720551144279 1332.4361715202847
2130.3507307097225 1678.2801966452528
2130.980758449008 1643.2255441635812
2131.6106343979427 1661.0227040488626
2132.2403585923203 1678.7539237419053
2132.8699310679276 1508.6248888748385
2133.499351860526 1571.7827263230258
2134.1286210058715 1515.084613418685
2134.7577385397053 1569.6047794158387
2135.3867044977487 1624.2562004666154
2136.0155189157176 1681.574001418933
2136.644181829308 1431.0486071320652
2137.2726932742025 1381.9970912828112
2137.901053286074 1311.6239508243914
2138.5292619005777 1241.190703321932
2139.1573191533535 1366.6495242628966
2139.7852250800315 1487.3330656630624
2140.4129797162295 1343.9707092503163
2141.0405830975433 1258.3108832512085
2141.6680352595613 1319.4020459072601
2142.2953362378576 1380.6252720933785
2142.9224860679915 1181.0939428892434
2143.549484785508 1393.438885242553
2144.1763324259373 1427.706369490067
2144.803029024799 1374.5733073314184
2145.429574617594 1188.116138762485
2146.0559692398165 1461.983037816821
2146.682212926942 1295.413105063792
2147.308305714432 1348.390648857727
2147.9342476377333 1531.0788689025524
2148.5600387322847 1663.0444966327782
2149.185679033506 1541.813311187202
2149.8111685768017 1285.4621362898915
2150.4365073975678 1269.8589182112694
2151.061695531187 1493.0214892906506
2151.686733013021 1572.38340868383
2152.311619878423 1668.6310056973834
2152.9363561627342 1370.8290308582054
2153.560941901278 1168.4677820163727
2154.1853771293663 1451.7074963694818
2154.809661882293 1383.554595709133
2155.433796195348 1382.5503843463969
2156.0577801037944 1381.37087949799
2156.681613642895 1507.978910295532
2157.3052968478896 1247.4531568731454
2157.928829754006 1480.798694555067
2158.552212396462 1437.6266813334146
2159.1754448104566 1404.8217373858483
2159.7985270311783 1397.8908739015365
2160.4214590938027 1170.6086924042622
2161.0442410334927 1162.4796945468727
2161.6668728853874 1198.342590378024
2162.289354684628 1234.3224166767632
2162.911686466332 1463.1653153117545
2163.533868265602 1399.7277661690664
2164.1559001175337 1627.7515552177404
2164.7777820572046 1529.201898953712
2165.399514119681 1301.9213462086618
2166.021096340013 1247.0645336100454
2166.6425287532384 1565.3124664487054
2167.263811394385 1571.2037765250896
2167.8849442984574 1577.2347940823158
2168.505927500455 1310.270378942883
2169.126761035366 1521.951118671967
2169.7474449381552 1390.536651656417
2170.367979243778 1444.0769231039262
2170.9883639871823 1497.823394032672
2171.608599203293 1334.531586950944
2172.2286849270276 1672.7830869935885
2172.8486211932886 1644.7436589592514
2173.4684080369625 1497.9802729175194
2174.0880454929265 1336.2768828818946
2174.7075335960417 1258.6843840731437
2175.3268723811543 1281.4156607395207
2175.9460618831 1304.2227589525423
2176.565102136701 1468.994880406452
2177.1839931767627 1441.0497211263678
2177.802735038078 1413.0514050116258
2178.421327755432 1223.2314578038345
2179.0397713635866 1379.4594416280054
2179.658065897298 1489.3275833189973
2180.276211391305 1508.528239693394
2180.8942078803357 1383.2057962040385
2181.5120553991 1264.2311274186943
2182.129753982299 1166.4126539966985
2182.7473036646206 1361.023878187962
2183.3647044807367 1301.4346315962225
2183.9819564653044 1241.755940557086
2184.599059652968 1367.213023422572
2185.216014078367 1339.2275062285069
2185.832819776113 1208.5068052059491
2186.4494767808137 1285.6207819136694
2187.065985127063 1362.7958138899808
2187.682344849436 1299.0969162983142
2188.298555982501 1505.012629061246
2188.9146185608097 1388.1868439711004
2189.530532618901 1624.277652994879
2190.1462981912937 1572.576469557582
2190.761915312507 1563.0149100857432
2191.377384017036 1308.4014256965447
2191.9927043393654 1482.7139624833399
2192.6078763139667 1508.0307126498658
2193.2228999753006 1533.4382556032765
2193.837775357808 1314.9095922406277
2194.452502495922 1193.0942442961764
2195.0670814240602 1539.5024942369676
2195.6815121766285 1128.3261681218503
2196.2957947880186 1141.8151589334068
2196.9099292926057 1155.3353542122272
2197.523915724758 1405.4677897395554
2198.137754118825 1440.0042168873065
2198.7514445091456 1419.5378363992645
2199.3649869300443 1562.6075016362754
2199.9783814158327 1706.0769477197132
2200.5916280008096 1681.8805671307903
2201.2047267192593 1541.3229182486975
2201.8176776054515 1422.6204607434852
2202.430480693649 1168.948516920725
2203.0431360180955 1491.6154991280714
2203.6556436130195 1596.5960737651221
2204.268003512645 1531.1438902464192
2204.8802157511727 1465.5810544266294
2205.492280362796 1618.6788768858175
2206.1041973816937 1439.0557072367187
2206.715966842032 1237.8668353683531
2207.3275887779655 1475.509723227223
2207.93906322363 1398.7294640314142
2208.550390213153 1369.4151101744224
2209.1615697806465 1472.2504582806507
2209.7726019602105 1204.1618255027465
2210.3834867859277 1291.080616901138
2210.9942242918787 1324.2758521117862
2211.6048145121167 1310.7590409041763
2212.2152574806914 1359.3535735912365
2212.825553231638 1408.0058571929985
2213.435701798975 1663.3165046120716
2214.045703216707 1577.9799617748258
2214.655557518832 1392.177393958262
2215.2652647393297 1206.284469977961
2215.874824912169 1118.1298216965001
2216.4842380713 1414.9539732888218
2217.09350425067 1173.4432841575983
2217.7026234842033 1563.7889873617478
2218.311595805819 1584.296254227604
2218.9204212494133 1274.928725363346
2219.52909984888 1608.0303953600228
2220.137631638092 1181.8624268473366
2220.7460166509154 1503.923610769878
2221.354254921198 1307.4918773837812
2221.9623464827764 1472.3226357077874
2222.5702913694713 1511.0367400199843
2223.178089615096 1610.2166935077043
2223.7857412534486 1526.8043562556275
2224.39324631831 1038.4390869731947
2225.000604843457 1180.6745541486905
2225.607816862641 1507.8217139790154
2226.214882409611 1439.7081465706103
2226.8218015180973 1638.7697890984523
2227.4285742218217 1434.4822249993697
2228.0352005544864 1290.627570800969
2228.6416805497847 1161.0267078825682
2229.248014241399 1299.2585421052113
2229.8542016629945 1208.6310660433494
2230.460242848223 1542.8387709013703
2231.0661378307304 1545.1805171067062
2231.671886644139 1260.0878642390949
2232.277489322065 1102.5181916812194
2232.8829458981127 1071.2409461376467
2233.48825640587 1377.419732153657
2234.0934208789095 1692.7397295341893
2234.6984393507955 1300.5850684068048
2235.3033118550793 1335.0164753739082
2235.9080384252975 1220.7545917629861
2236.5126190949723 1245.050156366872
2237.1170538976166 1107.9810273564854
2237.721342866729 970.7092954693665
2238.32548603579 1170.5244992795801
2238.9294834382763 1426.3047663380994
2239.533335107646 1475.8070157046109
2240.1370410773434 1155.7180592790417
2240.740601380803 1304.8920495099278
2241.3440160514474 1460.190656510676
2241.9472851226783 1559.890073349376
2242.550408627896 1508.2053189204362
2243.1533866004793 1456.4591149351727
2243.756219073799 1174.6868052892935
2244.3589060812064 1175.7172573444436
2244.961447656049 1173.8157386079886
2245.5638438316564 1293.1405906365592
2246.166094641343 1517.766036804092
2246.7682001184166 1300.0651648870355
2247.3701602961664 1295.420869449777
2247.971975207871 1480.7014955876632
2248.5736448867974 1274.1981143661696
2249.175169366197 1418.1048943789508
2249.7765486793123 1383.6329237242944
2250.3777828593684 1491.969780123459
2250.9788719395783 1405.1477185128615
2251.579815953146 1476.200229354256
2252.1806149332606 1193.616014409126
2252.781268913097 1448.1862291142634
2253.381777925817 1383.3209465044854
2253.9821420045737 1360.2404661032997
2254.5823611825035 1171.1098938758078
2255.1824354927303 1463.756934741846
2255.782364968365 1280.5062705862526
2256.38214964251 1097.0418767465396
2256.9817895482483 1096.3561850851613
2257.5812847186553 1221.8096453617038
2258.180635186791 1206.274486267385
2258.779840985704 1264.435988614956
2259.37890214843 1172.2277037480421
2259.97781870799 1432.3648615718898
2260.5765906973957 1474.3598298098727
2261.175218149645 1551.132197919809
2261.773701097718 1285.1555674990623
2262.3720395745895 961.2403812492925
2262.970233613216 1202.5814579411103
2263.568283246548 1220.1752034711851
2264.1661885075137 1302.900336984811
2264.763949429038 1311.4060348496282
2265.3615660440246 1626.4058863463063
2265.959038385374 1187.203745781804
2266.5563664859637 1514.7572700783178
2267.153550378669 1430.7694929407069
2267.7505900963424 1346.740407095413
2268.3474856718312 1273.323009484442
2268.9442371379664 1180.0289845134164
2269.5408445275643 1214.8261070988615
2270.1373078734377 1300.1578292258584
2270.7336272083758 1258.7134321033636
2271.32980256516 1322.8279684763834
2271.925833976562 1426.8971473346965
2272.5217214753357 1235.0054305785343
2273.117465094223 1384.4486777814996
2273.7130648659586 1246.6696616239956
2274.308520823257 1220.1867659958066
2274.903832998827 1497.1152056818432
2275.4990014253563 1108.455305901241
2276.094026135528 1604.9377963369566
2276.6889071620117 1224.8403899218097
2277.2836445374614 1242.9156511541644
2277.878238294519 1214.530667758095
2278.472688465812 1153.5236131700158
2279.066995083962 1092.3855974688015
2279.6611581815705 1271.5362399250216
2280.255177791232 1264.7295054714798
2280.8490539455233 1417.9540819643694
2281.442786677013 1571.517196936686
2282.0363760182554 1383.1303878483063
2282.6298220017943 1247.4358601119693
2283.223124660155 1462.3691744060582
2283.816284025859 1201.751792773361
2284.4093001314086 1135.158183242083
2285.002173009292 1068.4333511300779
2285.5949026919952 1256.0984124557306
2286.1874892119777 1483.3794807799984
2286.7799326016993 1356.2908690812978
2287.3722328936 1277.5624426352845
2287.964390120109 1329.9470374873513
2288.556404313642 1382.3342980288198
2289.1482755066027 1509.5848190236811
2289.7400037313873 1376.7354493401313
2290.3315890203703 1178.928218694512
2290.9230314059205 1165.6472251647087
2291.5143309203904 1152.3809481268086
2292.1054875961236 1294.2246257420168
2292.6965014654506 1593.2081163464782
2293.287372560684 1265.0158701778114
2293.878100914131 1574.2513275818092
2294.468686558086 1324.9166213686246
2295.059129524827 1393.1839989153927
2295.649429846617 1507.7676256037896
2296.239587555716 1173.030679534348
2296.8296026843636 1348.152153113916
2297.419475264791 1216.080711088728
2298.0092053292137 1083.6878200891435
2298.598792909839 1223.7943103816383
2299.1882380388597 1295.1930946809039
2299.777540748455 1451.53509697456
2300.3667010707904 1388.3310396566771
2300.9557190380256 1406.7916727453394
2301.544594682302 1316.8650588493201
2302.1333280357503 1226.8212328345444
2302.721919130485 1296.5918037869337
2303.3103679986198 1543.390916446537
2303.898674672242 1475.2887526220625
2304.486839183437 1366.99880589551
2305.0748615642697 1102.3273667985727
2305.6627418468015 1192.2217250249876
2306.2504800630704 1324.3906669019977
2306.8380762451143 1484.3898756725807
2307.425530424949 1469.0970664455447
2308.012842634582 1453.7577128946102
2308.6000129060103 1515.4518222346564
2309.187041271214 1326.2888633529174
2309.773927762164 1481.529986460221
2310.3606724108213 1349.7576623327304
2310.9472752491274 1279.6572109172798
2311.5337363090184 1357.9613824178812
2312.120055622414 1135.732874223773
2312.706233221221 1258.250441359057
2313.2922691373424 1352.384619506172
2313.8781634026564 1157.1826716613248
2314.463916049037 1239.8919244930573
2315.049527108342 1244.6686053164944
2315.6349966124235 1682.441697901084
2316.2203245931123 1569.0139663041205
2316.8055110822315 1362.8728141295967
2317.3905561115935 1156.2394398883243
2317.9754597129977 1011.9835309019243
2318.560221918229 1092.5965256764787
2319.1448427590603 1173.4163463000336
2319.729322267256 1173.1483265089907
2320.313660474563 1119.765823645803
2320.8978574127195 1597.0745354472663
2321.481913113452 1544.2468182035414
2322.0658276084705 1216.0513004178392
2322.6496009294806 1221.1148623749057
2323.233233108165 1306.5097927150302
2323.8167241762058 1104.775842383984
2324.4000741652617 1177.5918429160315
2324.983283106987 1370.6366270576623
2325.5663510330232 1528.7139357594242
2326.1492779749933 1217.1900664587515
2326.7320639645204 1469.4944474732483
2327.3147090332004 1612.4173276643237
2327.897213212629 1289.4785231292053
2328.4795765343843 1476.1270120839913
2329.0617990300307 1289.4222270467703
2329.643880731124 1554.071639484123
2330.22582166921 1218.33465211163
2330.807621875816 1147.2678424989303
2331.3892813824623 1076.1850925883887
2331.9708002206517 1184.057895906478
2332.5521784218818 1270.137412663732
2333.133416017634 1244.2429690346512
2333.7145130393765 1214.9235764811617
2334.295469518571 1664.3087409948384
2334.876285486658 1485.3354782513998
2335.456960975076 1454.539160205397
2336.037496015242 1423.6991977613402
2336.6178906385667 1115.5795615252143
2337.198144876451 1391.0168562855715
2337.778258760278 1301.738019724969
2338.3582323214214 1398.5791543772502
2338.938065591243 1495.6102578476125
2339.517758601087 1638.4282605005842
2340.0973113822965 1369.6683481041975
2340.676723966193 1176.1846194101659
2341.255996384094 1557.2612379422442
2341.835128667295 1583.044029625478
2342.4141208470883 1498.1424038827818
2342.992972954751 1241.6079456851799
2343.5716850215467 1072.9592204175374
2344.1502570787306 1369.0368679093733
2344.7286891575386 1229.6145869669442
2345.3069812892045 1397.5850171974253
2345.885133504944 1268.20148448673
2346.4631458359618 1290.0135461428147
2347.04101831345 1060.8773090768418
2347.6187509685915 1265.5215844269546
2348.196343832553 1142.427635009437
2348.7737969364935 1116.938285205068
2349.351110311558 1091.4403180259953
2349.9282839888765 1167.3145633912607
2350.5053179995757 1113.9171763709369
2351.0822123747585 1295.0457537267125
2351.658967145526 1378.4292465771125
2352.2355823429643 1213.064838928948
2352.812057998144 1321.2377133103794
2353.3883941421263 1071.3312912660351
2353.9645908059647 1285.1998661299024
2354.540648020693 1103.4961102487036
2355.116565817336 1340.8386881583374
2355.6923442269126 1119.1500574497768
2356.2679832804224 1280.2126898610816
2356.8434830088518 1141.913310492312
2357.41884344318 1079.378822936183
2357.994064614377 1259.3766843788735
