#exp_cfg={"servo_angle": 0.0, "laser_lim": 100.0, "servo_angle_to": 18.0, "laser_wup": 0.0, "bt_dev": "EnSpectr-25AE3", "laser_wdn_max": 0.0, "frames": 10.0, "servo_used": 0, "servo_calib_use": 0, "laser_wdn_min": 0.0, "servo_pix_from": 90.0, "cooler_tout": 300.0, "servo_angle_from": 0.0, "servo_calib": "[-1.9174921013161362e-09, 3.9322238269163779e-05, -0.27385609119055809, 653.59552119713567]", "laser_autoctl": 0, "servo_pix_to": 3682.0, "laser_pw": 100.0, "cooler_on": 0, "laser_volt": 4.0, "cooler_autoctl": 0, "cooler_curr": 70.0, "cooler_startup": 10.0, "laser_fixed_pw": 0, "gain": 1.3, "offset": 2.53059635486, "servo_calib_degree": 3.0, "laser_curr": 55.0, "shutter": 8200.0, "servo_calib_step": 1.0, "laser_fixed_curr": 0, "exp": 2000.0, "ccd_volt": 4.7, "bt_addr": "00:06:66:62:5A:E3", "servo_delay": 500.0, "laser_autooff": 1}
#proc_cfg={"flat_auto_wnd": 200.0, "flat_auto_fr": 200.0, "flat_auto_shift": 5.0, "yconv": 1, "flatten": 1, "flatten_strength": 100.0, "xfrom": 300.0, "auto_max_frame": 2000.0, "auto_signal": 48000.0, "flat_auto_tol": 0.1, "autoclip": 1, "xrel_range": 0.0, "flat_auto_to": 4000.0, "intensity_adj": 1.0, "xrel": 7852.0, "rmhot": 1, "flat_auto_slit": 4.999999999999997, "auto_ini_exp": 300.0, "auto_off": 0, "xto": 2860.0, "flat_auto_ref": "", "flat_auto_rank": 1, "autobackg": 0, "xrel_adj": 0.0, "auto_black_lvl": 1, "base_wnd": 100.0, "sub_baseline": 0, "xconv": 2, "auto_max_exp": 1000.0, "auto_total_exp": 10000.0, "auto_exp": 0, "rmripple": 0, "black_lvl": 8239.6875, "shutter_clip_adj": 0.0, "auto_bckg": 0, "flat_auto_thr": 0.9, "subbackg": 1}
316.8218498245369 15039.56163698022
317.89969571804795 15092.693118846353
318.977263876126 14964.722448864011
320.05455438786703 14938.402940028522
321.1315673423287 14813.881999434892
322.2083028285215 14916.26865167217
323.2847609354267 14761.603886085562
324.3609417519747 14787.794765597084
325.43684536705587 14679.066005120312
326.5124718695279 14647.766908543505
327.58782134820103 14550.02946439743
328.66289389184385 14563.513115822949
329.7376895891921 14460.948710340206
330.8122085289342 14425.524129773123
331.88645079971866 14437.08996386611
332.9604164901575 14235.193191007425
334.03410568881554 14176.835568344279
335.1075184842266 14225.437687125199
336.18065496487543 14097.340538652157
337.2535152192122 14128.194693462454
338.32609933564163 14047.525067708668
339.39840740253203 13959.982823535203
340.4704395082099 14006.98593142798
341.5421957409617 13841.5706353121
342.6136761890357 13923.273954141088
343.6848809406365 13854.768920167096
344.75581008392874 13850.845448358046
345.82646370703696 13751.293758083737
346.8968418980512 13760.051162282394
347.96694474501055 13747.325517378122
349.0367723359268 13776.101573085612
350.106324758759 13665.328442696604
351.1756021014353 13594.082269352646
352.2446044518383 13622.915481223765
353.31333189781435 13619.37961342245
354.38178452716966 13596.438838062604
355.449962427665 13615.62428039895
356.51786568702846 13468.249378718294
357.58549439294256 13652.883243269182
358.6528486330535 13595.432291335626
359.71992849496564 13479.087938937979
360.7867340662433 13501.09095039317
361.8532654344144 13528.956356825263
362.9195226869597 13573.403922580092
363.9855059113288 13506.93218612007
365.05121519492604 13505.561461683727
366.11665062511565 13587.599293242922
367.1818122892273 13472.522618097
368.2467002745434 13490.432290441624
369.31131466831175 13540.434463760272
370.375655557742 13529.177306716174
371.4397230299983 13585.043168313201
372.5035171722102 13434.861256308213
373.5670380714637 13482.939160939059
374.6302858148101 13512.489201024579
375.6932604892554 13561.004248745026
376.7559621817709 13523.714503923067
377.81839097928605 13436.141946475025
378.8805469686886 13421.182177291697
379.94243023683157 13551.344518748336
381.0040408705263 13367.527793042082
382.0653789565458 13288.17845356286
383.1264445816196 13333.894036989743
384.1872378324406 13377.140286597094
385.2477587956637 13285.118816184196
386.3080075579037 13207.56673645785
387.3679842057336 13129.93001112658
388.4276888256918 13174.937176536307
389.48712150426945 13094.352649764616
390.54628232792857 13055.715178008926
391.6051713830857 13120.840515646269
392.66378875611736 13057.935872044536
393.7221345333637 13004.063870117398
394.7802088011249 13050.649623069667
395.838011645661 12974.05516185322
396.89554315319765 12906.898096070969
397.9528034099112 12862.477724713379
399.00979250194723 12845.497638969635
400.06651051541485 12850.593618256144
401.1229575363741 12740.00406018115
402.17913365085224 12838.016633931074
403.23503894483656 12822.746711500715
404.2906735042761 12758.301363406043
405.3460374150818 12688.766886187157
406.401130763119 12732.702553646921
407.455953634224 12749.784909313912
408.5105061141876 12645.776760358087
409.56478828876243 12536.614150835629
410.6188002436629 12504.825690114887
411.6725420645689 12503.541159710547
412.72601383711117 12584.98520669574
413.77921564689314 12599.021286798647
414.8321475794728 12521.86450314631
415.88480972036814 12398.883538676137
416.93720215506437 12444.936655593441
417.9893249690049 12443.675459184702
419.04117824759123 12329.542768705434
420.09276207619223 12322.72833721351
421.144076540133 12339.093368597762
422.1951217247042 12339.999118884809
423.24589771515275 12288.857975768466
424.2964045966928 12229.361187889857
425.34664245449494 12291.974586584205
426.3966113736933 12329.629927486541
427.4463114393875 12183.846738413053
428.49574273662984 12144.45304313889
429.5449053504417 12109.91991142389
430.5937993658026 12143.101479011795
431.6424248676558 12127.899590126626
432.6907819409007 12152.821433876756
433.73887067040596 12070.330494413067
434.7866911409965 12102.322764024942
435.8342434374608 12063.229758946274
436.88152764455117 12148.657773438079
437.9285438469724 12012.257204162075
438.9752921294057 11947.21408410632
440.02177257648145 12064.886882847584
441.06798527279716 11926.107276723216
442.1139303029122 11983.312351228666
443.1596077513459 11974.893226451351
444.2050177025794 12044.911489926377
445.25016024105753 12024.48050285701
446.2950354511886 11899.70716037557
447.33964341733736 12012.385006043478
448.383984223834 12019.561842962732
449.4280579549686 11875.181404986613
450.471864694995 11957.707376886126
451.5154045281306 11861.662766775542
452.5586775385509 11900.568991290686
453.60168381039693 11791.590016286507
454.64442342776783 11950.078089876692
455.6868964747264 11949.136276576855
456.7291030353008 11885.874692864854
457.77104319347563 11976.833120220454
458.8127170332027 11917.308806001856
459.854124638392 11917.091579338434
460.895266092919 11963.627121064412
461.93614148061897 12119.728165773598
462.97675088529104 12068.132721274324
464.01709439069236 12119.717415078887
465.0571720805492 12133.36934516131
466.0969840385442 12113.39963051598
467.1365303483253 12174.109318089426
468.17581109350067 12227.316989803872
469.2148263576437 12099.200837229535
470.2535762242878 12216.006839928235
471.29206077693016 12247.343257701661
472.33028009902773 12302.580040599327
473.3682342740012 12288.73709074601
474.40592338523857 12191.220821141014
475.4433475160804 12302.971478362415
476.4805067498364 12402.16954621256
477.51740116978 12350.495642662054
478.5540308591426 12520.47648300754
479.59039590112116 12593.850981389756
480.6264963788726 12688.276361544597
481.6623323755193 12865.414338419378
482.6979039741436 12855.304793172785
483.7332112577915 13161.537228464626
484.76825430947247 13237.287333669936
485.80303321215797 13275.927347089575
486.837548048783 13466.196237685119
487.8717989022425 13595.745071858008
488.90578585539697 13545.03680613852
489.9395089910686 13702.111209969098
490.97296839203955 13544.995508888102
492.00616414106116 13516.986586421199
493.0390963208429 13444.584757094199
494.0717650140559 13392.668865443702
495.10417030333883 13263.77504486455
496.1363122712901 13108.591099981137
497.16819100046814 12992.410659769808
498.1998065734024 12873.118922724821
499.2311590725767 12714.485864438237
500.26224858044407 12598.412213553185
501.2930751794156 12454.8150180928
502.3236389518679 12352.364825660099
503.35393998014115 12297.028419351487
504.38397834653733 12199.607941338414
505.4137541333221 12167.754873974598
506.4432674227228 12064.040877187852
507.4725182969323 12082.111579895549
508.5015068381035 11878.303894679457
509.53023312835467 11881.468701049629
510.55869724976765 11871.489135317875
511.58689928438434 11776.20086247784
512.6148393142121 11744.579343948753
513.6425174212218 11775.72381613002
514.6699336873462 11815.285464078977
515.6970881944835 11791.349121111147
516.7239810244901 11713.936925257625
517.7506122591931 11700.240306587013
518.7769819803761 11701.559181649192
519.8030902697901 11709.22495979362
520.8289372091476 11671.646541303498
521.8545228801249 11759.73361521909
522.8798473643619 11733.711812551319
523.9049107434621 11705.720336674824
524.9297130989908 11730.108176865058
525.9542545124805 11584.355458180635
526.9785350654201 11639.51486346077
528.0025548392696 11716.986341900574
529.0263139154504 11583.710539248856
530.0498123753423 11626.438391266183
531.073050300296 11559.006921951002
532.0960277716204 11522.342940794233
533.1187448705896 11501.484597261371
534.1412016784416 11532.986292629741
535.1633982763833 11440.358552027012
536.1853347455726 11443.411788623278
537.2070111671401 11379.151701843448
538.2284276221817 11362.400759970806
539.2495841917516 11302.816200604468
540.2704809568677 11251.669976252799
541.2911179985167 11320.206359351256
542.3114953976419 11229.496113680767
543.3316132351592 11222.181839888766
544.3514715919409 11200.340906232708
545.3710705488247 11235.63944307622
546.3904101866156 11254.198868539917
547.4094905860784 11210.89390559815
548.4283118279418 11262.751368709136
549.4468739929034 11293.587349061127
550.4651771616191 11247.443190646187
551.4832214147063 11263.103523152688
552.501006832761 11325.808497575237
553.5185334963226 11201.050752452278
554.5358014859103 11362.754023682115
555.5528108820035 11310.398747401417
556.5695617650363 11398.50053856961
557.5860542154242 11362.860559786921
558.6022883135283 11333.9922112009
559.6182641396881 11262.014197528788
560.6339817741991 11301.395284295859
561.6494412973225 11332.035376132331
562.6646427892883 11346.696894967876
563.6795863302796 11313.962114551003
564.694272000459 11230.970381295463
565.7086998799423 11305.257938594605
566.7228700488104 11242.75971157127
567.7367825871115 11217.642529634653
568.7504375748576 11201.830852398201
569.7638350920224 11206.612877308238
570.7769752185486 11184.532238211179
571.7898580343353 11149.615094685094
572.802483619258 11146.20260067564
573.8148520531431 11266.648845814514
574.8269634157932 11266.104783913172
575.8388177869692 11175.758372042346
576.8504152463938 11198.060011612004
577.8617558737587 11379.823081084345
578.8728397487175 11317.879100088128
579.883666950891 11368.84649983663
580.8942375598654 11507.035362332967
581.9045516551851 11615.684403602922
582.9146093163617 11757.281610830436
583.924410622878 11601.39802049653
584.9339556541727 11621.611481470729
585.9432444896538 11650.827345255835
586.9522772086875 11626.464546677023
587.9610538906127 11737.525397764217
588.9695746147318 11581.245683669727
589.9778394603054 11573.276499589592
590.985848506567 11533.545295482043
591.9936018327098 11392.115402346388
593.0010995178891 11271.353342416462
594.0083416412344 11329.827634948986
595.0153282818283 11171.649889348488
596.0220595187293 11074.481820297717
597.0285354309508 11097.5614275998
598.0347560974806 11104.770507369092
599.0407215972609 10910.740373111237
600.0464320092051 11044.134133783382
601.0518874121954 11021.710680293074
602.0570878850685 10915.817606071641
603.062033506636 10954.490264620963
604.0667243556636 10919.259511522858
605.0711605108936 10872.579049024176
606.0753420510264 11070.740793965491
607.0792690547278 11009.372866180474
608.082941600629 10925.1545281458
609.0863597673306 11078.760931646879
610.0895236333909 11160.542620319433
611.0924332773357 11286.393362363162
612.0950887776617 11322.194459952942
613.0974902128219 11382.00222496738
614.0996376612384 11388.650343791289
615.1015312013005 11570.6850962713
616.1031709113595 11696.214565680926
617.1045568697336 11715.57491043966
618.1056891547069 11981.376486802668
619.1065678445229 12046.051447696462
620.1071930173985 12300.812440009217
621.1075647515099 12361.520857852125
622.1076831250048 12425.647569263037
623.1075482159849 12634.15332663681
624.1071601025305 12696.725859290953
625.1065188626781 12874.029574453056
626.105624574433 13078.282736042356
627.1044773157682 13126.795556161573
628.1030771646128 13220.92277047353
629.1014241988742 13368.253768375285
630.0995184964158 13393.965540748944
631.0973601350688 13553.529757785795
632.0949491926294 13621.379705242003
633.0922857468631 13501.157854843119
634.089369875499 13505.332154426398
635.0862016562278 13604.753899280204
636.0827811667077 13418.640749569802
637.0791084845641 13415.7153235798
638.0751836873878 13256.757359460034
639.0710068527369 13226.964412935902
640.0665780581294 13065.70205292944
641.0618973810506 12840.779995850995
642.0569648989604 12852.821501652863
643.0517806892676 12582.166769339423
644.0463448293649 12522.152565383125
645.040657396592 12274.236674427908
646.0347184682723 12214.217353373302
647.0285281216875 12048.831998917307
648.0220864340772 11965.347760050314
649.0153934826558 11874.876101085352
650.0084493446047 11716.632077996168
651.0012540970674 11658.648574577852
651.9938078171526 11596.609507922974
652.9861105819346 11543.753374726204
653.9781624684565 11495.306420281235
654.9699635537254 11358.03026235631
655.9615139147136 11346.822662027591
656.9528136283589 11169.093176695107
657.9438627715699 11225.772601124207
658.9346614212154 11168.941380794535
659.925209654135 10942.874439537296
660.9155075471263 10985.130453208742
661.9055551769616 10839.261789592632
662.895352620375 10986.666822281733
663.8848999540678 10821.7879050113
664.8741972547068 10677.01278012635
665.863244598926 10690.089081767219
666.8520420633213 10738.399505399993
667.8405897244611 10567.229199570002
668.8288876588758 10529.152599727313
669.8169359430613 10609.803803275703
670.8047346534822 10550.042658606526
671.7922838665672 10435.391558316602
672.7795836587156 10530.298663596217
673.766634106285 10592.470730520125
674.7534352856092 10497.100963043067
675.7399872729766 10448.113480781605
676.7262901446538 10537.053277101548
677.712343976862 10432.717884482832
678.6981488457986 10541.625032336156
679.6837048276229 10457.518972238753
680.6690119984596 10468.84740919632
681.6540704344043 10442.085831091379
682.6388802115107 10377.97338952791
683.6234414058108 10340.690839488694
684.6077540932874 10323.026812983417
685.591818349907 10368.405229621603
686.575634251587 10368.421864171174
687.5592018742263 10330.707067792075
688.5425212936734 10219.088031219862
689.5255925857564 10315.442676545823
690.5084158262707 10232.92436999654
691.4909910909646 10321.694556169916
692.4733184555644 10204.672655519727
693.4553979957618 10267.078169943852
694.4372297872123 10298.90409399411
695.4188139055404 10216.550697849207
696.4001504263324 10136.858854146481
697.3812394251509 10307.00130634492
698.3620809775111 10275.06145820178
699.3426751589104 10277.376224021094
700.3230220448004 10238.580588178474
701.3031217106054 10268.822280742394
702.2829742317172 10418.51984953249
703.2625796834873 10284.966107378052
704.2419381412474 10332.05235518995
705.22104968028 10381.048777998614
706.1999143758458 10471.733362425924
707.178532303169 10403.169907658601
708.1569035374378 10570.752831911968
709.1350281538107 10606.178070536567
710.1129062274158 10721.067434483724
711.0905378333373 10868.963393510552
712.0679230466376 11005.523893038828
713.0450619423427 11308.72036551023
714.0219545954424 11508.621540299273
714.9986010808989 11555.070520835583
715.9750014736292 11791.509617267768
716.9511558485392 12055.67971739279
717.9270642804786 12212.858280059318
718.9027268442787 12326.228171306537
719.8781436147328 12447.863954418823
720.8533146666014 12335.341629433975
721.828240074612 12438.305321022357
722.8029199134635 12358.879719437926
723.7773542578125 12212.84072527285
724.751543182294 12129.32595886697
725.7254867615029 11916.469505793437
726.6991850700015 11739.323182965072
727.6726381823228 11803.705331825293
728.6458461729599 11670.681243630588
729.6188091163858 11678.17605058835
730.5915270870246 11761.655651416326
731.5640001592856 11759.354746354586
732.536228407529 11888.806587682093
733.5082119060917 11947.8941793601
734.4799507292755 11960.844111352293
735.4514449513481 12069.42098121353
736.4226946465496 12158.094357522456
737.3936998890786 12117.252690941823
738.3644607531078 12011.89742256074
739.3349773127793 11909.68934330052
740.3052496421951 11792.516589545603
741.27527781543 11508.629789932049
742.2450619065221 11293.04851359272
743.2146019894826 11181.259945943788
744.183898138288 10925.508373071467
745.1529504268801 10782.63896770017
746.1217589291682 10521.101592642566
747.0903237190341 10324.961939740742
748.058644870318 10294.135295870807
749.0267224568397 10122.217059050323
749.994556552374 10012.878060337558
750.9621472306771 9995.719211982028
751.9294945654583 9836.290099435402
752.8965986304011 9793.577114580505
753.8634594991636 9665.954725406586
754.8300772453586 9695.916234552942
755.7964519425768 9723.323668031242
756.762583664371 9752.826279962537
757.7284724842611 9666.667212202115
758.6941184757416 9627.998012294524
759.6595217122667 9610.104192882403
760.6246822672638 9640.456361364122
761.5896002141235 9535.341073719776
762.5542756262093 9566.65628731441
763.5187085768503 9575.500499056236
764.4828991393406 9572.583023263453
765.4468473869474 9486.662659984568
766.4105533929032 9529.914210440953
767.3740172304078 9507.108885643665
768.3372389726283 9484.743154303436
769.3002186926988 9397.627214849375
770.2629564637282 9294.092679901474
771.2254523587872 9267.506953626988
772.1877064509154 9277.871904625674
773.1497188131179 9117.416685262313
774.1114895183728 9210.385305311425
775.0730186396268 9202.276139215523
776.0343062497905 9090.45859119463
776.9953524217381 9064.297290072986
777.9561572283274 9081.806142871263
778.9167207423689 9061.276885604282
779.8770430366476 9014.841953972109
780.8371241839159 9085.773896182442
781.7969642568951 8976.97168134364
782.7565633282757 9170.91480391204
783.7159214707099 9004.839069571743
784.6750387568281 9091.11038209166
785.6339152592227 9075.300373421402
786.5925510504512 8926.82010951647
787.5509462030477 9020.496596999425
788.5091007895098 9027.832635719213
789.4670148823006 9012.114112896219
790.4246885538596 9090.386095333222
791.3821218765861 9018.980162628859
792.3393149228505 8959.210799975035
793.2962677649975 8991.221743061305
794.2529804753303 9109.818103565365
795.20945312613 9061.829847089013
796.1656857896378 8999.202217993294
797.1216785380675 9027.612018053584
798.0774314435985 9087.360047356482
799.0329445783846 9247.096944299486
799.9882180145414 9169.68136337321
800.9432518241574 9253.954403159814
801.89804607929 9310.03823607408
802.852600851962 9416.15110686724
803.8069162141637 9346.249931806848
804.760992237856 9389.365579183906
805.714828994971 9385.00749169545
806.6684265574077 9471.098897106674
807.6217849970271 9430.308676947492
808.574904385674 9361.909563201485
809.527784795142 9420.434995458436
810.4804262972102 9507.315121382533
811.4328289636178 9319.94346184118
812.3849928660748 9131.430914835324
813.3369180762638 9184.451159967952
814.2886046658241 9133.029423807879
815.2400527063783 9154.135953120902
816.1912622695108 9023.14218253463
817.1422334267718 8943.341299809701
818.0929662496856 8866.672277678412
819.0434608097457 8756.77773377257
819.9937171784059 8776.49936652471
820.9437354271013 8687.970503568778
821.8935156272255 8750.745600189357
822.8430578501484 8712.312830657544
823.7923621672016 8584.7820282973
824.7414286496896 8625.83090242586
825.6902573688876 8674.518642041603
826.6388483960363 8599.198939122185
827.5872018023492 8463.152551877556
828.5353176590033 8597.509270819992
829.4831960371503 8447.678270106568
830.4308370079016 8487.170556094952
831.3782406423525 8473.285059828402
832.3254070115545 8486.024985008715
833.2723361865319 8436.668329754757
834.2190282382799 8401.78412511336
835.1654832377644 8455.448514531261
836.1117012559116 8391.450608220364
837.0576823636256 8453.27718130883
838.003426631778 8308.304463230024
838.9489341312074 8332.370974817832
839.8942049327197 8390.105063723242
840.8392391070975 8495.94257161549
841.7840367250865 8341.748555548042
842.7285978573982 8346.152624397622
843.672922574724 8416.82807106851
844.6170109477152 8335.025979687991
845.560863046996 8301.312899342116
846.5044789431595 8376.546580732425
847.4478587067697 8375.186818360951
848.3910024083561 8491.11841264122
849.333910118421 8372.267457084334
850.2765819074339 8339.526433384639
851.2190178458332 8477.130832864657
852.161218004032 8427.748282286058
853.1031824524016 8411.866019420362
854.0449112612987 8381.89185867004
854.9864045010327 8395.651422818357
855.9276622418947 8385.778106561827
856.8686845541379 8369.777785740815
857.8094715079915 8352.378474706933
858.7500231736467 8483.91600909968
859.690339621271 8356.132384295652
860.6304209209939 8439.591756933249
861.5702671429244 8339.092565025338
862.5098783571284 8389.993756304637
863.4492546336569 8444.075956287443
864.3883960425155 8380.572643496173
865.3273026536863 8302.511600363943
866.2659745371238 8362.270122639664
867.2044117627465 8522.939617453183
868.1426144004472 8448.098774832839
869.0805825200823 8460.523512614782
870.0183161914847 8581.187692223075
870.9558154844526 8499.811933251625
871.8930804687552 8447.436872594102
872.8301112141307 8451.834787006945
873.7669077902865 8646.34876775598
874.7034702669062 8786.778148238756
875.6397987136315 8658.740613590233
876.5758932000863 8675.934724393685
877.5117537958522 8772.108692888001
878.4473805704911 8708.007631270466
879.3827735935283 8737.455522350783
880.3179329344603 8840.439227130297
881.2528586627541 8860.410065945867
882.1875508478479 8818.380359061211
883.1220095591489 8737.079819096576
884.0562348660296 8749.596892048285
884.9902268378391 8835.160392819285
885.9239855438955 8784.85043270904
886.8575110534839 8662.381009485664
887.7908034358588 8744.776954057244
888.7238627602474 8659.561579207959
889.6566890958475 8656.107774580396
890.5892825118208 8550.583077115843
891.5216430773125 8575.27097078989
892.4537708614189 8538.193178214799
893.3856659332196 8494.186540832045
894.3173283617652 8430.709130116682
895.2487582160684 8433.200408575125
896.179955565116 8370.973320008838
897.110920477864 8312.57733634287
898.0416530232451 8245.368906849884
898.9721532701478 8302.012416712187
899.9024212874428 8267.586175574888
900.8324571439662 8195.898830665685
901.7622609085302 8177.989913096807
902.6918326499072 8149.942819477527
903.6211724368477 8151.0968300904815
904.5502803380696 8245.735852392758
905.4791564222614 8204.695414885757
906.4078007580792 8130.022514912957
907.3362134141571 8161.941551509105
908.2643944590909 8220.834825983166
909.1923439614493 8138.253016053708
910.1200619897754 8215.888721271602
911.0475486125779 8246.09320350592
911.9748038983344 8143.997053608435
912.9018279155007 8059.375137672578
913.8286207324982 8093.4190958782465
914.7551824177117 8099.071343184599
915.6815130395116 8095.425546797761
916.6076126662283 8046.986810109524
917.533481366163 8025.6344192604565
918.4591192075914 8067.540792319791
919.3845262587565 8088.713299299612
920.3097025878706 7961.000375736939
921.2346482631237 7956.208290454105
922.1593633526682 7991.7061999771195
923.0838479246304 7948.218034988868
924.0081020471061 7990.747872276212
924.9321257881656 7873.801634723415
925.8559192158464 7915.967906203905
926.7794823981512 7767.307220785551
927.7028154030686 7839.86693783621
928.6259182985414 7788.477562824004
929.5487911524906 7873.696023716145
930.4714340328119 7867.994326042771
931.3938470073608 7739.675312630631
932.3160301439748 7790.930796808505
933.2379835104548 7826.401602265624
934.1597071745709 7837.65896681374
935.0812012040769 7803.515602433591
936.002465666681 7894.2269036002135
936.9235006300696 7887.797650946825
937.8443061619055 7901.196554288249
938.7648823298077 7742.452622197093
939.6852292013809 7796.369655647114
940.6053468441951 7817.238079625383
941.5252353257874 7743.739598680559
942.4448947136698 7830.79849600366
943.364325075323 7806.906943900338
944.2835264782043 7776.538000103744
945.2024989897309 7886.79104997667
946.1212426773054 7797.34542376915
947.0397576082851 7866.700417657635
947.9580438500125 7963.122578107029
948.8761014697939 8020.1015896151175
949.7939305349064 7967.43066838244
950.7115311125999 7885.456364073521
951.6289032700952 7798.743423581795
952.5460470745875 8023.785604202913
953.4629625932339 7916.505468088764
954.3796498931715 7935.210370450039
955.2961090415029 7953.235732555449
956.2123401053068 7922.57862302098
957.1283431516276 7913.699421620644
958.0441182474842 7852.8013970967095
958.9596654598663 7940.806401366582
959.8749848557309 7871.6615173108385
960.7900765020167 7846.1043818857925
961.7049404656209 7784.081030948226
962.6195768134185 7853.239255987517
963.5339856122537 7848.726988527606
964.4481669289453 7755.481399533775
965.3621208302793 7784.559995102184
966.2758473830145 7729.5497722577875
967.1893466538822 7873.065207900848
968.1026187095813 7784.637660846395
969.0156636167867 7758.869728948691
969.9284814421426 7748.893722988099
970.8410722522622 7652.716380019849
971.753436113735 7650.550252148365
972.6655730931161 7739.096544633848
973.5774832569368 7742.958125275467
974.4891666716958 7688.218480756322
975.4006234038698 7613.563620719504
976.3118535198955 7554.268957600599
977.2228570861935 7659.47375514401
978.1336341691494 7734.394498073428
979.0441848351202 7625.436447937532
979.9545091504333 7707.86663266822
980.864607181391 7654.9701107036935
981.7744789942699 7700.0424766893575
982.6841246553086 7685.817538651466
983.5935442307236 7715.936997950703
984.5027377867027 7585.564634170529
985.4117053894024 7697.469330328308
986.3204471049557 7590.2319047276715
987.2289629994648 7727.1271128756125
988.1372531390007 7847.06152022553
989.0453175896091 7769.022587945353
989.9531564173067 7735.643959223562
990.860769688079 7709.158925669299
991.7681574678918 7726.4520781655865
992.6753198226706 7680.104871551576
993.582256818323 7730.401366196789
994.4889685207218 7746.402840631849
995.3954549957143 7842.1805089171585
996.301716309119 7832.32029006628
997.2077525267232 7829.518562365296
998.1135637142943 7824.1361656801655
999.0191499375615 7865.833252671624
999.924511262232 7877.211441868542
1000.8296477539861 7905.4833726868355
1001.7345594784656 7826.833006029815
1002.6392465012996 7779.7709014697275
1003.5437088880753 7845.538024290424
1004.4479467043584 7893.027291730448
1005.3519600156869 7727.918193875157
1006.2557488875718 7722.613005356679
1007.1593133854858 7835.093903465129
1008.0626535748888 7771.243650403905
1008.9657695212009 7650.408508253136
1009.8686612898182 7823.697780214597
1010.7713289461135 7878.439879574797
1011.6737725554212 7749.927697503184
1012.5759921830577 7703.664448837231
1013.4779878943027 7721.04552990883
1014.379759754418 7694.822810074629
1015.2813078286254 7610.215973691741
1016.18263218213 7605.043305417738
1017.0837328801026 7567.731677225571
1017.9846099876886 7600.344669228849
1018.8852635700023 7525.629802165614
1019.7856936921362 7504.365896347901
1020.6859004191447 7608.14647561552
1021.5858838160675 7493.344978466657
1022.4856439479063 7517.2098022944965
1023.3851808796389 7430.150640382091
1024.2844946762143 7580.180853028733
1025.183585402554 7454.406316352186
1026.082453123554 7283.935810965879
1026.9810979040776 7463.473348947608
1027.8795198089647 7351.4023993104365
1028.777718903024 7462.375557937559
1029.6756952510368 7423.6964090930705
1030.5734489177648 7332.218473521699
1031.4709799679313 7370.148191629242
1032.3682884662358 7421.96488628967
1033.2653744773506 7277.540122655322
1034.1622380659192 7339.897174125237
1035.058879296559 7459.2447553224165
1035.9552982338591 7442.553201498707
1036.8514949423825 7398.920652679983
1037.7474694866614 7452.62298596254
1038.6432219312028 7401.1425909425425
1039.5387523404825 7694.234514319716
1040.4340607789582 7648.0827417241435
1041.3291473110476 7713.071617669853
1042.2240120011465 7752.516310286204
1043.1186549136273 7821.766485008101
1044.0130761128294 7887.95371180514
1044.9072756630649 7882.677284696003
1045.8012536286205 7904.626456374036
1046.6950100737577 8000.539382633792
1047.588545062701 8049.347714949361
1048.481858659663 8073.093311656819
1049.3749509288118 8148.5539952516365
1050.2678219343034 8007.892439598647
1051.1604717402515 8023.161235379132
1052.0529004107575 7922.15020123997
1052.9451080098825 8032.233790184936
1053.8370946016694 7968.366344730086
1054.7288602501267 7950.7387758075665
1055.6204050192446 7824.766833978555
1056.511728972977 7853.092754576275
1057.402832175254 7745.4997693419255
1058.2937146899785 7675.156200556502
1059.1843765810263 7660.260182671048
1060.0748179122456 7731.089661582244
1060.9650387474576 7644.961303344933
1061.855039150456 7660.999370394637
1062.7448191850071 7603.495224893083
1063.6343789148505 7578.323750988726
1064.5237184037014 7799.051385043116
1065.412837715241 7628.668404152474
1066.3017369131267 7479.7729705323045
1067.190416060992 7491.854690880189
1068.0788752224398 7425.604696912391
1068.9671144610438 7487.2901714548425
1069.8551338403558 7488.789297818681
1070.7429334239023 7503.553166817107
1071.6305132751695 7443.336869620097
1072.517873457633 7441.291369420226
1073.4050140347335 7408.211937180429
1074.2919350698776 7442.676651648602
1075.1786366264623 7388.151425344297
1076.0651187678395 7434.479288725075
1076.95138155735 7421.166016982354
1077.8374250582929 7377.669227133183
1078.7232493339507 7358.442154761698
1079.608854447577 7332.803308735109
1080.4942404623907 7328.04223918055
1081.3794074415982 7383.642172041541
1082.2643554483657 7518.412242221983
1083.149084545841 7417.728700790797
1084.033594797138 7312.749860108028
1084.9178862653516 7392.304263974291
1085.8019590135427 7499.357724353822
1086.6858131047484 7373.815402149012
1087.5694486019802 7464.375492557845
1088.4528655682225 7488.2339171211015
1089.3360640664287 7539.841038672578
1090.2190441595321 7484.532829506335
1091.1018059104317 7568.981193195352
1091.98434938201 7631.448985516456
1092.866674637111 7675.512799634629
1093.748781738559 7545.999570939447
1094.6306707491512 7507.201374418652
1095.5123417316554 7571.625084646049
1096.3937947488157 7609.736069913614
1097.2750298633455 7500.656662825897
1098.156047137938 7526.019387911112
1099.0368466352556 7569.389498114057
1099.9174284179317 7645.413905755426
1100.7977925485757 7454.0877342940075
1101.6779390897755 7399.147536031771
1102.5578681040806 7386.279493967141
1103.4375796540226 7407.958047240148
1104.3170738021054 7312.365670205074
1105.1963506108077 7199.278843529525
1106.0754101425773 7236.474703462993
1106.9542524598382 7300.482356019563
1107.8328776249855 7156.750101844564
1108.7112857003904 7214.321309310049
1109.5894767483987 7153.2429500509415
1110.4674508313292 7217.421103183116
1111.3452080114657 7219.909515787664
1112.2227483510815 7145.266796399071
1113.1000719124077 7302.0826358168515
1113.9771787576592 7249.195928831357
1114.854068949022 7191.138988949417
1115.7307425486542 7332.1748157815655
1116.6071996186893 7267.837937190804
1117.483440221229 7448.41208968061
1118.3594644183577 7359.722915467368
1119.235272272128 7435.1323377589215
1120.1108638445658 7496.494574317015
1120.9862391976712 7608.61746849166
1121.8613983934229 7720.629141430912
1122.7363414937627 7660.755360720124
1123.6110685606182 7789.753180856297
1124.485579655884 7858.996243999312
1125.359874841426 7826.730212353736
1126.2339541790916 7836.7218060592
1127.1078177306936 8047.070596297625
1127.9814655580267 7839.044838438417
1128.854897722851 7990.451153071355
1129.7281142869106 7891.7642412533605
1130.6011153119125 7970.576630578736
1131.473900859548 8075.708246911998
1132.3464709914697 7866.782337081766
1133.2188257693178 7942.647277640186
1134.0909652546961 7813.887627450502
1134.96288950919 7748.064615832304
1135.8345985943506 7884.192006766549
1136.7060925717087 7639.105228031063
1137.57737150277 7684.038593017256
1138.4484354490069 7622.176316363341
1139.3192844718778 7500.242104932231
1140.1899186327992 7312.859873975901
1141.060337993178 7503.956858065348
1141.930542614382 7455.798370074683
1142.8005325577597 7267.072256126385
1143.670307884635 7156.153586596661
1144.5398686563003 7227.450469114336
1145.409214934025 7186.319892574002
1146.2783467790541 7004.983437694937
1147.1472642526023 7091.414906932329
1148.0159674158622 7106.786161054467
1148.8844563300026 6997.205719229472
1149.7527310561618 6876.846858934567
1150.6207916554504 6818.875361804196
1151.4886381889592 6832.339317593569
1152.3562707177498 6891.554857813988
1153.2236893028585 6866.039312941476
1154.090894005296 6721.309103223629
1154.9578848860474 6869.0895710700615
1155.8246620060709 6667.667428304778
1156.6912254262988 6666.98763042684
1157.5575752076438 6734.344940076602
1158.42371141098 6898.048085853094
1159.2896340971656 6797.321079609993
1160.1553433270346 6790.92302206421
1161.0208391613887 6736.256844625513
1161.8861216610057 6724.59405303353
1162.75119088664 6736.390720609216
1163.6160468990201 6629.407309573924
1164.4806897588442 6646.617594839399
1165.3451195267917 6633.299044269213
1166.2093362635114 6696.387207501948
1167.0733400296285 6719.723958322014
1167.9371308857444 6594.422162932843
1168.8007088924278 6615.628738263098
1169.6640741102328 6643.001017887871
1170.5272265996773 6577.086941547665
1171.390166421259 6574.118200764303
1172.252893635452 6614.551133529615
1173.1154083026995 6685.7507196351535
1173.977710483421 6689.502148495507
1174.8398002380145 6556.199460669352
1175.7016776268483 6659.31485891467
1176.563342710264 6709.740197492616
1177.4247955485826 6586.204793972696
1178.2860362020947 6664.246089803526
1179.147064731069 6552.005619620403
1180.0078811957483 6680.174356762496
1180.8684856563486 6688.13870302414
1181.7288781730604 6680.604066328738
1182.589058806052 6699.494569394321
1183.4490276154593 6765.508421799536
1184.3087846614017 6748.6960237317035
1185.1683300039676 6781.311420672986
1186.027663703222 6874.828165368577
1186.8867858192025 6845.788123786772
1187.7456964119228 6873.9047591577955
1188.6043955413716 6955.679967494376
1189.4628832675116 6988.823879878434
1190.3211596502842 7066.366813175952
1191.179224749596 6980.529484496541
1192.0370786253388 6975.676517822129
1192.8947213373758 7133.100844873157
1193.7521529455407 7305.765405775785
1194.6093735096438 7010.147793989636
1195.466383089477 7130.17129754579
1196.3231817447977 7078.199415960282
1197.1797695353398 7270.546504494768
1198.0361465208189 7096.637448095515
1198.8923127609214 7101.519635928412
1199.7482683153048 7206.263841853203
1200.6040132436028 7271.495266068875
1201.459547605431 7164.126492824395
1202.3148714603722 7145.796010134325
1203.1699848679855 7097.396425108326
1204.0248878878065 7228.861513060137
1204.8795805793507 6904.366162166004
1205.7340630020935 7152.6966686240685
1206.5883352155033 7115.765274057829
1207.4423972790064 7045.452043692583
1208.2962492520237 6980.061132243098
1209.1498911939307 6979.7300395766115
1210.0033231640937 6980.3713694197995
1210.8565452218427 6908.662792738889
1211.7095574264913 6735.215522008455
1212.5623598373222 6770.727984111332
1213.4149525135963 6641.9993138212785
1214.2673355145507 6808.5022630028525
1215.1195088993936 6716.9107824955645
1215.9714727273113 6653.252046445341
1216.8232270574663 6723.61326244455
1217.6747719489904 6541.8222409924165
1218.5261074609934 6606.122038192618
1219.3772336525653 6694.717630379195
1220.2281505827668 6691.435376113273
1221.0788583106296 6690.256739317285
1221.9293568951707 6544.533880078325
1222.7796463953746 6495.484599580618
1223.629726870202 6524.333758227159
1224.4795983785934 6544.419433291777
1225.3292609794553 6487.881201837011
1226.1787147316809 6436.543695700347
1227.0279596941327 6469.77926807439
1227.8769959256424 6508.538044151425
1228.7258234850306 6495.866042900693
1229.5744424310833 6304.407832225679
1230.422852822563 6480.823345658804
1231.2710547182105 6477.191361187075
1232.119048176739 6469.870254879877
1232.9668332568417 6288.086013936185
1233.8144100171812 6404.524229399143
1234.6617785163999 6474.773729949381
1235.508938813111 6244.755780760195
1236.3558909659114 6284.8858486425
1237.2026350333617 6398.71525833982
1238.049171074008 6526.966156726157
1238.8954991463652 6358.038966249224
1239.741619308932 6378.881281359933
1240.587531620169 5230.08755313686
1241.4332361385277 6527.220659924574
1242.2787329224248 6356.394898299653
1243.1240220302534 6308.020677110519
1243.9691035203869 6283.263211853047
1244.813977451171 6478.639365175463
1245.6586438809263 6360.86864280888
1246.5031028679496 6258.593213992883
1247.3473544705157 6387.872382088372
1248.1913987468706 6465.235575937948
1249.0352357552383 6247.4429631209905
1249.8788655538228 6313.867603256204
1250.7222882007918 6498.127515465953
1251.565503754302 6452.612078288523
1252.4085122724755 6275.24507423525
1253.2513138134182 6420.009938414363
1254.0939084352049 6480.831875944776
1254.9362961958905 6416.661244047173
1255.7784771535007 6442.900582541924
1256.6204513660432 6475.156763570578
1257.4622188915 6588.834344486566
1258.3037797878242 6522.16748028434
1259.1451341129468 6374.287310441808
1259.9862819247755 6562.5247784604435
1260.8272232811978 6509.172904355024
1261.6679582400666 6623.061693786697
1262.5084868592203 6455.554013929634
1263.34880919647 6411.908697044111
1264.1889253095997 6530.457965732579
1265.0288352563712 6591.889683976408
1265.8685390945266 6488.4418014109215
1266.7080368817751 6511.146400261145
1267.5473286758115 6541.811649094905
1268.386414534294 6619.635896427215
1269.2252945148703 6292.121363871933
1270.0639686751547 6527.224780364706
1270.9024370727402 6482.539893508492
1271.7406997651997 6505.085711163184
1272.5787568100714 6323.874688644852
1273.4166082648808 6375.330593621433
1274.2542541871244 6477.826485539372
1275.091694634275 6573.093813817022
1275.9289296637817 6291.463235829424
1276.7659593330663 6481.045249274174
1277.6027836995308 6395.063166080507
1278.4394028205552 6426.637075408113
1279.2758167534867 6442.521248177737
1280.112025555658 6459.732434459656
1280.9480292843746 6399.234423562056
1281.7838279969128 6295.3337179166665
1282.6194217505326 6368.687837543252
1283.4548106024686 6320.518835232612
1284.289994609926 6360.458048631715
1285.1249738300921 6513.654294776699
1285.959748320127 6343.208047384231
1286.7943181371702 6421.66600099473
1287.6286833383328 6408.934127590719
1288.4628439807038 6475.018297975192
1289.2968001213521 6400.614667975995
1290.1305518173194 6422.120755476434
1290.9640991256183 6552.058778791068
1291.7974421032523 6532.281062264397
1292.630580807183 6392.362165002535
1293.463515294361 6542.054030285339
1294.29624562171 6639.250528524974
1295.12877184613 6533.914844966732
1295.961094024493 6491.061167601166
1296.79321221365 6600.789107694238
1297.6251264704333 6811.607929401274
1298.4568368516466 6819.353790701008
1299.2883434140658 6788.0025432886205
1300.1196462144526 6753.63771120048
1300.9507453095375 6888.530487455877
1301.7816407560313 6924.853719232518
1302.6123326106172 6910.556201653363
1303.4428209299622 6875.841380650678
1304.2731057707024 7093.181558416179
1305.1031871894502 7046.051741874044
1305.933065242798 7054.669764046218
1306.7627399873181 7048.699035640411
1307.5922114795467 7294.162042652594
1308.4214797760123 7168.482662067197
1309.2505449332057 7082.471717979216
1310.0794070076026 7195.706768685273
1310.9080660556538 7255.230454364488
1311.736522133786 7231.267998231725
1312.5647752983987 7130.682982687565
1313.3928256058734 7035.839824629358
1314.2206731125661 7148.15205613432
1315.048317874809 7255.039585727373
1315.8757599489109 7189.715335810839
1316.7029993911547 7251.431677582152
1317.5300362578055 7381.444942224164
1318.356870605101 7219.237139533715
1319.183502489257 7162.058044268795
1320.0099319664623 7410.027149659691
1320.836159092889 7351.234960910736
1321.66218392468 7357.4294665910875
1322.4880065179532 7161.481368758985
1323.3136269288134 7261.371583606148
1324.1390452133292 7371.77551947428
1324.9642614275563 7364.982029444762
1325.7892756275214 7126.005926150043
1326.6140878692295 7042.427191441059
1327.4386982086617 7306.363175847742
1328.2631067017755 7131.450575215941
1329.0873134045069 7182.24655302209
1329.911318372764 7011.844013970889
1330.735121662441 7004.055030982372
1331.558723329399 6920.154667677455
1332.3821234294774 6832.291609181704
1333.2053220185007 7004.591380877826
1334.0283191522612 6793.8378491985
1334.851114886529 6834.868654512102
1335.6737092770582 6650.061733757086
1336.4961023795695 6676.378560289651
1337.3182942497697 6638.643976161155
1338.1402849433325 6694.1855595905945
1338.962074515921 6466.76451862178
1339.7836630231632 6322.130623342903
1340.6050505206676 6685.414923047329
1341.426237064028 6523.354405184085
1342.2472227088037 6415.821069826593
1343.0680075105338 6305.538834251352
1343.888591524741 6384.4247289193245
1344.7089748069138 6350.542303788964
1345.5291574125276 6364.784465067079
1346.3491393970307 6114.045612409117
1347.168920815846 6350.2041704182175
1347.9885017243778 6283.885370548053
1348.8078821780036 6264.691387309046
1349.6270622320844 6228.210836625188
1350.4460419419447 6088.539230170992
1351.2648213629054 6205.400678109549
1352.0834005502438 6055.533644571917
1352.90177955923 6066.692673405268
1353.7199584451064 6183.932037905446
1354.5379372630887 6137.453339807993
1355.355716068374 6049.784051984019
1356.1732949161305 5968.4582195973135
1356.9906738615155 6023.882614801352
1357.8078529596478 6024.574081002345
1358.6248322656375 6081.608042222576
1359.441611834567 5939.352994010054
1360.2581917214866 6147.055411684925
1361.0745719814367 6008.971302109209
1361.890752669433 6030.203372058397
1362.7067338404577 5934.330784287629
1363.5225155494845 6126.807912050026
1364.3380978514506 6153.589952398891
1365.1534808012839 5963.46039139535
1365.9686644538815 5838.9756530622635
1366.783648864117 6102.862510799935
1367.5984340868417 6126.373404486804
1368.413020176893 6008.629497575287
1369.2274071890715 5993.998108207201
1370.0415951781652 6020.007822208938
1370.8555841989346 6014.955113297196
1371.6693743061223 5821.353505095643
1372.48296555444 5746.00194400004
1373.2963579985844 5946.817369825577
1374.1095516932255 5946.3983883279225
1374.9225466930166 5706.067994478607
1375.7353430525782 5931.186643892698
1376.5479408265164 5819.84596368768
1377.36034006941 5833.928716078946
1378.1725408358216 5945.860715051527
1378.9845431802805 5760.671793185208
1379.796347157304 6125.231249243663
1380.6079528213813 5889.070685894303
1381.4193602269788 5721.711406989866
1382.230569428546 5788.879059926634
1383.0415804805016 6027.7271429697
1383.852393437246 5855.8137156912035
1384.6630083531563 5978.45925460604
1385.4734252825892 5873.42508497077
1386.2836442798798 5930.000503544588
1387.0936653993322 5941.359103105305
1387.9034886952395 5819.708657326096
1388.713114221864 5978.288586898316
1389.5225420334482 5902.075461552137
1390.331772184214 5909.204769091056
1391.1408047283585 5737.2558721065825
1391.9496397200564 5891.380377593489
1392.758277213461 5939.252088179208
1393.5667172627054 6026.471818537817
1394.3749599218918 5987.8128900823895
1395.1830052451114 5734.527547602536
1395.9908532864265 5803.088367783848
1396.7985040998774 5954.898263627982
1397.6059577394808 5776.898586196192
1398.4132142592352 5853.640174060054
1399.2202737131156 5825.5678692181145
1400.027136155073 5942.30397344982
1400.8338016390353 5799.507061723197
1401.6402702189134 5854.385099940575
1402.446541948586 5847.572417380773
1403.2526168819204 5733.354960546048
1404.058495072757 5718.937714629656
1404.8641765749107 5758.728023260875
1405.6696614421799 5792.816469443321
1406.4749497283356 5932.154722736081
1407.280041487129 5709.446120576064
1408.084936772295 5545.091947628853
1408.8896356375335 5778.152525608888
1409.6941381365323 5797.655411327116
1410.498444322955 5606.945623337414
1411.3025542504402 5713.559302306874
1412.106467972606 5746.999450553403
1412.9101855430508 5623.054805772991
1413.7137070153458 5457.739702566259
1414.5170324430437 5635.986194160725
1415.320161879672 5763.28620064119
1416.1230953787435 5730.792883974172
1416.925832993742 5465.164744385473
1417.7283747781275 5435.747788754325
1418.5307207853439 5535.464168817337
1419.3328710688093 5613.712664043374
1420.134825681922 5312.901112446814
1420.9365846780584 5626.37294168702
1421.7381481105713 5680.008051269377
1422.539516032788 5635.260797644225
1423.3406884980232 5437.274344284429
1424.1416655595604 5513.951699008919
1424.942447270665 5575.268339348349
1425.7430336845828 5745.444759241455
1426.5434248545298 5556.307590849141
1427.3436208337116 5791.437971713789
1428.143621675301 5762.861739342867
1428.9434274324558 5855.153538165379
1429.7430381583108 5594.386043940545
1430.5424539059713 5783.837107721399
1431.3416747285337 6057.487583379419
1432.1407006790632 5891.328504992589
1432.9395318106053 5903.318435241725
1433.7381681761835 5760.25253836833
1434.5366098288014 6004.412662305392
1435.3348568214424 5860.80517930631
1436.1329092070573 5880.131954315542
1436.9307670385879 5924.274905192129
1437.7284303689503 6004.1497526848925
1438.5258992510335 6103.522972885847
1439.3231737377118 5954.664544168405
1440.1202538818306 5908.571856943962
1440.9171397362225 5753.983070166375
1441.7138313536925 5905.050660646487
1442.5103287870243 5812.570231048948
1443.3066320889775 5712.467766952208
1444.1027413122956 5940.606948542165
1444.8986565096966 5854.447349131517
1445.694377733882 5799.3415829893875
1446.4899050375207 5578.743620734794
1447.2852384732687 5758.470192979669
1448.0803780937622 5594.234891721132
1448.8753239516063 5511.066867595203
1449.6700760993954 5470.677647458567
1450.464634589689 5566.489859147076
1451.2589994750397 5723.965991746985
1452.0531708079689 5457.2362921819
1452.8471486409799 5417.366110984345
1453.6409330265524 5689.160235349465
1454.4345240171442 5359.220181995716
1455.2279216651987 5305.750291509068
1456.0211260231263 5480.205431189306
1456.8141371433194 5705.9296991182755
1457.6069550781594 5399.53311566817
1458.3995798799897 5217.431985187249
1459.1920116011424 5295.6657328757165
1459.98425029393 5261.344287939006
1460.7762960106338 5297.2330422697005
1461.5681488035225 5319.708807820977
1462.3598087248392 5243.142824661307
1463.1512758268036 5344.013280863923
1463.942550161617 5161.106773697955
1464.7336317814625 5225.790881943103
1465.524520738496 5213.5269420113145
1466.3152170848552 5123.582770048511
1467.1057208726506 5156.800918174011
1467.8960321539817 5045.539461290369
1468.6861509809169 4990.714851495508
1469.4760774055085 4995.303867712173
1470.265811479785 4972.681349201812
1471.055353255755 4858.383001851649
1471.844702785409 4928.530924325904
1472.6338601207044 4832.743895197636
1473.4228253135934 5004.019377172312
1474.2115984159936 4802.919408424566
1475.0001794798063 4696.508671741157
1475.7885685569145 4866.58221224326
1476.576765699172 4894.762213374384
1477.3647709584238 4900.7068860424
1478.1525843864802 4908.947516827945
1478.9402060351367 4806.758666373718
1479.7276359561693 4782.029305143786
1480.514874201328 4791.828523043818
1481.3019208223468 4742.344600510785
1482.0887758709323 4510.115084772176
1482.8754393987747 4846.271258211971
1483.6619114575406 4589.615272203884
1484.4481920988783 4713.28246114214
1485.2342813744108 4772.09850461693
1486.0201793357446 4862.522554694609
1486.8058860344572 4665.719040522215
1487.591401522117 4691.813833518112
1488.3767258502594 4677.680794041786
1489.1618590704056 4739.007997156679
1489.9468012340494 4471.202214200893
1490.7315523926754 4623.459167590811
1491.5161125977356 4752.052471055488
1492.3004819006637 4758.641070261417
1493.084660352877 4651.923167406946
1493.8686480057622 4771.555114086118
1494.6524449106964 4799.400140520951
1495.4360511190262 4871.409429961312
1496.219466682087 4764.333890513344
1497.0026916511779 4748.55210661188
1497.7857260775945 4649.637858598519
1498.5685700125996 4777.3407368254675
1499.3512235074395 4614.881975374187
1500.133686613337 4566.669763623526
1500.9159593814966 4542.460409692041
1501.698041863101 4950.13990168843
1502.4799341093094 4642.053533289384
1503.2616361712662 4510.328792565171
1504.043148100087 4598.672050185417
1504.8244699468742 4783.078602185053
1505.6056017626997 4574.344058256947
1506.3865435986281 4521.5655721647
1507.1672955056893 4583.507540855802
1507.9478575348967 4625.755990520043
1508.7282297372512 4691.667199628692
1509.5084121637192 4700.67558438586
1510.2884048652577 4619.775723810631
1511.0682078927948 4569.8120705912515
1511.8478212972423 4498.644837493915
1512.6272451294917 4609.604816100811
1513.4064794404076 4634.551669072073
1514.1855242808433 4703.498369693971
1514.9643797016215 4575.870770774534
1515.743045753552 4677.987900561389
1516.5215224874191 4711.524788874654
1517.2998099539836 4539.555543009472
1518.077908203999 4615.022595680035
1518.8558172881785 4634.860045236718
1519.633537257234 4787.384761842795
1520.4110681618404 4688.351689152905
1521.1884100526604 4828.779194073215
1521.9655629803365 4656.567231595811
1522.7425269954856 4923.297946111204
1523.5193021487103 4946.121870696494
1524.2958884905856 4628.2499633317875
1525.0722860716687 4702.809852964205
1525.848494942502 4634.440689701139
1526.624515153595 4729.826263170415
1527.4003467554485 4829.599587114675
1528.175989798534 4892.588788625578
1528.9514443333064 4841.795347114418
1529.726710410203 5007.595214513307
1530.5017880796331 4677.615072322839
1531.276677391992 4841.539804081053
1532.0513783976457 4888.3737219385175
1532.825891146953 4862.919673691456
1533.6002156902414 4878.715316850499
1534.3743520778207 4814.763089324107
1535.1483003599806 4730.354556719564
1535.9220605869923 4767.2331195048
1536.6956328091019 4918.898696226504
1537.4690170765407 4638.007533876104
1538.242213439511 4838.725303377389
1539.015221948208 4737.790834246947
1539.78804265279 4831.191503942191
1540.560675603405 4696.012651663671
1541.3331208501804 4864.006587264834
1542.1053784432224 4911.224772092695
1542.8774484326168 4803.754928969515
1543.649330868422 4855.5279575786335
1544.4210258006842 4717.68287152154
1545.1925332794308 4745.80612778146
1545.9638533546604 4781.73408910657
1546.7349860763552 4658.65774319994
1547.5059314944829 4911.7618302641595
1548.27668965898 4694.653878031334
1549.0472606197673 4834.582888588482
1549.817644426752 4710.643326171476
1550.5878411298072 4772.3194064705585
1551.3578507787988 4789.362429865394
1552.1276734235635 4663.546500737416
1552.8973091139233 4787.524234021664
1553.6667578996767 4944.52295833185
1554.436019830604 4778.094223732316
1555.20509495646 4710.412142523319
1555.9739833269869 4700.553904396047
1556.7426849919011 4751.748494364839
1557.511200000903 4824.183505005065
1558.2795284036674 4861.5639342074155
1559.0476702498509 4742.2280158121375
1559.8156255890954 4841.550659979557
1560.5833944710157 5026.210478552763
1561.3509769452048 4710.973243157119
1562.1183730612447 4774.510224623095
1562.8855828686865 4768.597861211386
1563.6526064170703 4922.888748676334
1564.4194437559127 5038.268211533763
1565.1860949347047 4774.33907254867
1565.9525600029283 4989.632160977765
1566.7188390100328 5056.890380114846
1567.4849320054564 4652.889239344184
1568.250839038612 4757.861830895034
1569.0165601588997 4796.664153402837
1569.7820954156887 4810.8345628173065
1570.5474448583373 4826.044382199921
1571.31260853618 4801.250910414472
1572.0775864985299 4615.55915501004
1572.8423787946813 4839.074451072359
1573.6069854739108 4812.557255916818
1574.371406585471 4920.480355538339
1575.1356421785986 4918.0728990404
1575.899692302506 4841.255436504429
1576.6635570063845 4935.555413932438
1577.4272363394157 4832.989022602613
1578.190730350747 4602.041087051813
1578.9540390895163 4843.291131025001
1579.7171626048384 4612.947172558303
1580.480100945806 4734.500602759521
1581.2428541614918 4720.883793493366
1582.0054223009538 4812.937077448844
1582.767805413223 4761.538720877002
1583.5300035473156 4802.313319923576
1584.292016752228 4899.623745049639
1585.0538450769309 4712.192509144796
1585.8154885703807 4606.932038604242
1586.5769472815136 4597.837759444439
1587.3382212592405 4677.2981946819755
1588.099310552463 4927.474764063404
1588.8602152100484 4590.7077707620265
1589.6209352808564 4843.236543266511
1590.3814708137234 4524.4484863214075
1591.14182185746 4574.113521636517
1591.9019884608679 4639.6041792027
1592.6619706727215 4356.184987777537
1593.4217685417734 4733.818484758018
1594.1813821167616 4740.724389954476
1594.9408114464022 4417.773057473145
1595.7000565793933 4590.099814388035
1596.459117564409 4697.263775740271
1597.2179944501113 4439.1562386772475
1597.9766872851324 4454.631787257482
1598.735196118092 4644.357929594326
1599.4935209975883 4522.032012934519
1600.2516619721973 4402.422510446615
1601.0096190904787 4511.005571327733
1601.7673924009723 4473.14735036295
1602.524981952196 4437.85723322641
1603.2823877926476 4459.558020568126
1604.0396099708087 4391.202357060181
1604.7966485351371 4329.823456814876
1605.5535035340745 4416.114993332381
1606.3101750160404 4573.042694819232
1607.0666630294363 4426.384586700209
1607.822967622642 4310.150377825883
1608.5790888440224 4327.282074293354
1609.3350267419137 4487.302986895387
1610.0907813646445 4447.912114713787
1610.8463527605145 4426.279166813313
1611.601740977805 4414.457965527438
1612.356946064785 4490.198636996136
1613.1119680696902 4148.039005000388
1613.8668070407512 4463.617625879744
1614.6214630261748 4211.143042933757
1615.375936074137 4477.434152439015
1616.1302262328118 4356.873246612971
1616.8843335503425 4409.194196975807
1617.638258074854 4239.941257580756
1618.391999854457 4419.533272454601
1619.1455589372363 4424.700631347769
1619.8989353712623 4457.627972073881
1620.65212920458 4086.545952625643
1621.4051404852235 4322.677674496179
1622.1579692611976 4326.972976320418
1622.9106155804966 4206.6441571621435
1623.663079491087 4298.149374513932
1624.4153610409248 4469.68492166367
1625.1674602779385 4281.273635208798
1625.9193772500403 4238.276888416485
1626.6711120051277 4427.535128778989
1627.4226645910676 4282.081832187624
1628.174035055721 4252.423832607258
1628.9252234469168 4366.031022715173
1629.676229812474 4316.741610648309
1630.4270542001905 4663.016445373782
1631.1776966578382 4428.612604697757
1631.9281572331747 4379.687752355752
1632.678435973945 4430.9327279665995
1633.4285329278573 4349.783468573843
1634.1784481426203 4177.391024004682
1634.9281816659113 4319.537322042386
1635.677733545388 4526.640645771085
1636.4271038286934 4373.056685133199
1637.176292563452 4510.941029834744
1637.9252997972635 4511.877445622755
1638.674125577716 4646.487999572685
1639.4227699523672 4704.981102203452
1640.171232968767 4273.079382985004
1640.9195146744423 4623.93137173131
1641.6676151168977 4696.581482664476
1642.4155343436178 4645.373139015493
1643.1632724020765 4547.56008800179
1643.9108293397167 4580.607634258246
1644.658205203974 4530.500698320222
1645.4054000422566 4994.133613626402
1646.1524139019566 4414.983334636841
1646.8992468304423 4460.202883090475
1647.6458988750728 4682.773789035714
1648.3923700831765 4606.624538251191
1649.1386605020743 4528.6000437913335
1649.8847701790564 4804.751672196228
1650.6306991614038 4595.453564769296
1651.3764474963682 4679.759450727695
1652.1220152311944 4419.61040011734
1652.867402413096 4679.277300470511
1653.6126090892776 4487.1652518543615
1654.3576353069184 4602.518634120492
1655.1024811131829 4638.254301212679
1655.8471465552066 4534.340146221728
1656.5916316801213 4814.309965741337
1657.3359365350298 4564.420532906222
1658.0800611670165 4541.233783547834
1658.824005623148 4484.049184731337
1659.5677699504722 4441.647712788204
1660.3113541960192 4566.121304067046
1661.054758406799 4485.966168528887
1661.7979826297997 4195.315782250691
1662.5410269119966 4392.2156675234055
1663.283891300338 4322.302432819956
1664.0265758417645 4321.839383335093
1664.7690805831826 4447.558462335022
1665.5114055714948 4431.859295327663
1666.2535508535748 4534.025666916545
1666.9955164762814 4140.090438332946
1667.7373024864555 4337.9362849446015
1668.478908930916 4349.106611610538
1669.220335856462 4158.289753079456
1669.9615833098778 4235.62762970352
1670.7026513379296 4244.700513356073
1671.44353998736 4240.297591734571
1672.1842493048916 4260.980248276113
1672.9247793372379 4113.818379033821
1673.6651301310812 4209.270025992221
1674.4053017330934 4177.495777458085
1675.1452941899242 4156.668591799765
1675.885107548207 3673.158514181883
1676.6247418545518 3825.176299510411
1677.3641971555535 3960.892186086381
1678.1034734977893 4076.5260829077306
1678.8425709278108 4090.8206912792716
1679.5814894921605 4145.077582663323
1680.320229237359 4039.5046378845714
1681.0587902098978 4057.3460277537015
1681.7971724562685 4019.634398135843
1682.5353760229264 3962.3288285107
1683.2734009563173 3953.236041960424
1684.0112473028657 3610.127023032189
1684.7489151089794 3936.548564977065
1685.4864044210462 4039.5747042412586
1686.2237152854377 3682.469674748872
1686.960847748498 3892.9094950729277
1687.6978018565642 3846.1470760540856
1688.434577655944 3807.463054404108
1689.1711751929379 3572.292627169633
1689.9075945138156 3817.3387886786413
1690.6438356648396 3818.671769229162
1691.3798986922448 3483.904337112204
1692.1157836422499 3667.388053255724
1692.851490561059 3550.7931427301073
1693.587019494853 3652.43785971181
1694.3223704897991 3396.5185482962834
1695.0575435920364 3383.838964685851
1695.792538847696 3800.3474151189316
1696.527356302886 3665.572046968545
1697.2619960036936 3398.3247046194265
1697.9964579961907 3361.2214605884265
1698.730742326432 3190.262375371355
1699.4648490404488 3330.3141952590295
1700.1987781842563 3467.6574350883157
1700.9325298038548 3410.287389302733
1701.6661039452174 3609.575028047269
1702.3995006543082 3468.0213333893153
1703.1327199770658 3634.0784273040963
1703.865761959416 3284.722987781718
1704.598626647261 3504.912858648586
1705.3313140864866 3289.2214290241927
1706.0638243229587 3302.365590332818
1706.7961574025303 3341.395121004841
1707.528313371029 3361.273558075133
1708.260292274268 3173.536775446347
1708.9920941580403 3410.996177104897
1709.7237190681226 3295.0369472973216
1710.4551670502697 3304.503386469758
1711.18643815022 3092.418479022802
1711.9175324136959 3546.8290724831504
1712.6484498863938 3212.3398156529106
1713.379190614005 3089.0234253194394
1714.109754642188 3365.8644869165546
1714.8401420165883 3301.6557734548232
1715.570352782839 3655.428800881217
1716.3003869865497 3247.1687076217995
1717.0302446733076 3153.310297622992
1717.7599258886876 3220.2802438650187
1718.4894306782444 3396.9953315912135
1719.2187590875183 2907.7528017621303
1719.9479111620203 3305.6522480782137
1720.6768869472544 3110.9518340493496
1721.4056864887025 3383.9241521303475
1722.1343098318284 3293.1752141030033
1722.8627570220742 3203.032752264303
1723.591028104871 2985.829280897446
1724.3191231256242 3002.582449198161
1725.0470421297232 3090.6225500450364
1725.7747851625427 3171.0455981458394
1726.5023522694337 3239.270118490274
1727.2297434957363 3147.6370963032678
1727.9569588867635 2910.2897036410927
1728.6839984878152 3190.748346428734
1729.4108623441734 2826.553897891351
1730.1375505011038 3106.1935021301256
1730.8640630038426 3026.23629148885
1731.5903998976264 2923.1341360221095
1732.316561227657 3150.2757934181504
1733.0425470391274 2874.21321322895
1733.7683573772065 3031.6962642031144
1734.4939922870508 3048.271350418758
1735.2194518137949 3108.151460943835
1735.9447360025606 2987.5282807698995
1736.669844898439 3124.072147977327
1737.3947785465189 2878.374585271394
1738.1195369918605 2807.616229728373
1738.8441202795093 2935.2303744437622
1739.5685284544943 2958.022500948563
1740.292761561821 3127.6161599936313
1741.0168196464838 3138.7442903639594
1741.7407027534518 3024.9103542621087
1742.464410927687 2993.768683787825
1743.187944214118 3077.763969251472
1743.9113026576688 2995.421733789436
1744.634486303241 2945.4274778903373
1745.3574951957125 2982.4586590248005
1746.0803293799509 3115.9617689475117
1746.8029889008048 2992.5567085524517
1747.5254738031017 2973.907039635086
1748.2477841316504 2922.076043586584
1748.969919931249 2944.3332399120563
1749.6918812466665 2771.6997317074492
1750.4136681226646 3113.6281013927955
1751.1352806039777 2994.347719930144
1751.856718735331 2766.2853715986666
1752.5779825614281 2874.16226501661
1753.2990721269507 3019.704088601112
1754.0199874765676 2915.711226994911
1754.7407286549314 2887.031130464917
1755.4612957066693 2815.220795754389
1756.1816886763954 2767.220868859285
1756.9019076087097 2997.083312758086
1757.6219525481865 2962.5694432118
1758.3418235393856 2904.176828599058
1759.061520626854 2933.1656347327303
1759.7810438551096 3060.711844913836
1760.5003932686614 2732.8584493796934
1761.2195689119999 2956.036147474201
1761.938570829594 3070.4679916478694
1762.657399065898 2829.5719468209954
1763.376053665348 2773.189717033475
1764.0945346723602 2804.9960070998322
1764.812842131334 3003.054515785597
1765.5309760866512 2664.6612718461174
1766.2489365826787 2890.8784898155413
1766.9667236637597 2829.7366340986246
1767.684337374223 2583.043014511743
1768.401777758383 2714.562744196658
1769.1190448605284 2742.807410452085
1769.836138724937 2720.5018601456945
1770.5530593958665 2822.7166778596975
1771.2698069175603 2984.7115479357326
1771.9863813342326 2851.3366895516965
1772.702782690094 2808.2401365324004
1773.4190110293293 2880.3605757905343
1774.1350663961111 2857.5009084423928
1774.8509488345844 2730.622252976288
1775.5666583888924 2840.4853662422447
1776.2821951031437 2982.3250108144016
1776.9975590214362 2822.8457461239605
1777.7127501878585 2906.428956936245
1778.4277686464684 2874.9288570178605
1779.1426144413108 3010.2371511960673
1779.8572876164162 2887.6933265869766
1780.571788215797 2726.5780299628177
1781.2861162834415 2875.470246811614
1782.0002718633277 2731.1306203086997
1782.7142549994132 2704.0480696755167
1783.4280657356376 2817.050434996902
1784.141704115922 2677.600205211694
1784.855170184177 2739.554527537611
1785.5684639842839 2826.4728018734813
1786.2815855601148 2560.073172281505
1786.9945349555237 2887.9700137494533
1787.707312214343 2724.142701351863
1788.4199173803918 3120.214529248876
1789.132350497468 2596.6269058220087
1789.8446116093583 2661.7311091246606
1790.556700759822 2712.5320977660085
1791.2686179926077 2739.9571844232523
1791.9803633514493 2747.126697795873
1792.6919368800554 2569.971349038383
1793.4033386221236 2765.474099450217
1794.1145686213295 2928.642080164734
1794.8256269213307 2927.6547198302924
1795.536513565774 2789.854371412854
1796.247228598284 2515.6550106698896
1796.9577720624693 2615.9353123085257
1797.6681440019165 2866.734428724957
1798.3783444602013 2649.1888993400453
1799.0883734808776 2795.7761565851797
1799.7982311074884 2773.575564527728
1800.5079173835475 2942.477535447386
1801.2174323525633 2754.9583243220077
1801.9267760580187 2746.210165772155
1802.635948543386 2799.299110781495
1803.3449498521113 2672.0906762764303
1804.0537800276325 2810.2763724211204
1804.7624391133668 2756.5363284816085
1805.47092715271 2430.189082330226
1806.1792441890484 2581.8255019383028
1806.8873902657433 2781.848302464529
1807.5953654261448 2770.5250974126166
1808.3031697135812 2641.2572829347164
1809.0108031713662 2671.4166997370107
1809.71826584279 2774.769717602149
1810.425557771141 2749.9569306512176
1811.1326789996747 3008.1806313377792
1811.839629571632 2583.1117080997024
1812.5464095302468 2583.562025964941
1813.2530189187182 2677.334852782725
1813.959457780249 2519.0664134527788
1814.6657261580076 2793.967464863469
1815.371824095153 2710.7745070546475
1816.0777516348262 2725.3399627204067
1816.78350882015 2456.5761653321533
1817.4890956942272 2435.23607345088
1818.1945123001533 2562.0868641875572
1818.8997586809928 2656.466834364045
1819.6048348798067 2631.9842885418057
1820.3097409396287 2573.8927349320697
1821.0144769034796 2958.5029687398255
1821.7190428143622 2729.090476942199
1822.423438715261 2743.6061699283355
1823.1276646491478 2564.8349818156016
1823.8317206589727 2811.6983232022526
1824.5356067876692 2617.484497546841
1825.2393230781581 2598.7545058875703
1825.942869573335 2550.5595474885454
1826.646246316086 2528.4076992801174
1827.3494533492758 2629.043286107365
1828.052490715756 2798.745020841543
1828.7553584583547 2626.164299513847
1829.458056619891 2752.335549056669
1830.1605852431585 2636.223075649262
1830.8629443709433 2610.258404453286
1831.5651340460063 2623.158694756391
1832.2671543110919 2438.1195435699997
1832.9690052089318 2835.8434321550885
1833.6706867822395 2455.284882901829
1834.3721990737104 2674.0789520121507
1835.0735421260233 2739.726438262925
1835.774715981841 2542.829626484156
1836.4757206838058 2681.5269931657335
1837.1765562745459 2616.001045198858
1837.8772227966747 2518.7318722758746
1838.5777202927839 2563.19725281169
1839.2780488054523 2557.25093388146
1839.9782083772352 2497.7292063705636
1840.6781990506806 2756.311400197005
1841.378020868313 2566.8764380376224
1842.0776738726418 2637.9815965372572
1842.777158106157 2543.4878325855184
1843.4764736113375 2487.3657834553364
1844.1756204306403 2719.9174495460957
1844.8745986065078 2510.757468652239
1845.5734081813607 2393.094543015311
1846.2720491976124 2516.159586060397
1846.970521697649 2426.440010309463
1847.6688257238511 2647.653373296037
1848.3669613185684 2570.2272899089826
1849.0649285241452 2372.066514583197
1849.7627273829057 2635.752408851874
1850.460357937156 2611.5177071954304
1851.1578202291857 2314.6956836218933
1851.8551143012664 2595.493440712958
1852.5522401956569 2506.499739651004
1853.2491979545957 2718.5347054075555
1853.9459876203055 2480.725062773884
1854.6426092349902 2476.665482285187
1855.3390628408451 2485.005367765375
1856.0353484800362 2685.987473011517
1856.7314661947203 2592.15335366846
1857.4274160270397 2420.4923478201194
1858.123198019115 2464.7825134034892
1858.8188122130487 2364.6158718646616
1859.5142586509319 2438.3615793586623
1860.209537374838 2458.464189543639
1860.9046484268183 2494.183703259816
1861.599591848917 2509.959689518564
1862.294367683151 2393.679538983467
1862.988975971528 2444.9752228016546
1863.6834167560355 2410.1850071571453
1864.3776900786452 2597.3340055904378
1865.0717959813119 2441.478339968768
1865.7657345059724 2316.8178501115085
1866.4595056945564 2657.9545994893406
1867.1531095889586 2556.1196002796723
1867.846546231076 2309.1431618938086
1868.5398156627743 2540.260245064169
1869.2329179259123 2455.78320438041
1869.9258530623283 2659.4147963882756
1870.618621113843 2513.4563226099444
1871.3112221222636 2326.8100619049596
1872.0036561293764 2391.8632515528234
1872.695923176956 2359.396977125628
1873.3880233067594 2632.084895527326
1874.0799565605212 2317.1673629652773
1874.7717229799673 2395.5931363076156
1875.4633226068036 2606.434035039594
1876.1547554827175 2551.188362125129
1876.8460216493859 2290.9911621991264
1877.5371211484617 2484.6435093813857
1878.2280540215852 2645.863523038695
1878.9188203103804 2182.3372913105436
1879.6094200564548 2486.1420678832096
1880.299853301396 2250.44927668019
1880.9901200867826 2701.110283127563
1881.6802204541673 2466.051513329025
1882.3701544450942 2482.961209226366
1883.059922101087 2230.425228808062
1883.7495234636517 2579.0229749190867
1884.4389585742792 2239.746553747723
1885.1282274744517 2357.976056756271
1885.8173302056166 2376.9326867284253
1886.506266809225 2395.9183954678006
1887.195037326701 2360.9410877793357
1887.8836417994517 2443.000556721531
1888.5720802688702 2575.303282432674
1889.260352776333 2474.325264134653
1889.9484593632042 2515.631251962733
1890.63640007082 2275.659110945848
1891.3241749405151 2190.5065258191803
1892.0117840135954 2391.5930108374023
1892.6992273313572 2306.444255496883
1893.3865049350788 2203.155059399538
1894.0736168660223 2569.378071728582
1894.7605631654333 2527.236406031601
1895.4473438745408 2245.190461699259
1896.133959034556 2628.1715579226907
1896.820408686679 2489.0463832312316
1897.506692872088 2483.298914788174
1898.192811631945 2433.2293458980644
1898.8787650073991 2448.2133871849705
1899.5645530395832 2476.8634887773233
1900.2501757696118 2531.027375619683
1900.9356332385796 2271.1322082068446
1901.620925487574 2573.0678485812837
1902.3060525576602 2495.540128133988
1902.9910144898859 2399.8773039101375
1903.6758113252872 2390.5373423510264
1904.3604431048789 2413.1329965849573
1905.0449098696663 2525.131148615829
1905.7292116606295 2329.9897787755594
1906.4133485187394 2509.7257286304152
1907.0973204849488 2103.820535734415
1907.7811276001976 2222.2957705735107
1908.4647699053967 2411.4845146947437
1909.1482474414588 2306.136720862848
1909.8315602492694 2200.4718312080327
1910.5147083696957 2521.2286059054877
1911.1976918436012 2339.446065348215
1911.880510711815 2313.684904002373
1912.5631650151681 2422.237113382256
1913.2456547944657 2351.178617165341
1913.927980090495 2336.24057061595
1914.6101409440362 2252.069059109411
1915.2921373958416 2301.710083982094
1915.9739694866603 2346.840324331761
1916.655637257214 2442.9447916235977
1917.3371407482136 2454.980761825514
1918.0184800003572 2489.2460243284067
1918.6996550543154 2381.6721360400284
1919.3806659507554 2383.3011982325074
1920.0615127303208 2317.9778682869146
1920.7421954336423 2488.3556506950504
1921.4227141013343 2487.8509362565687
1922.103068773993 2453.83388882239
1922.783259492202 2415.1604851207912
1923.4632862965227 2179.207350365436
1924.1431492275078 2339.8296528276815
1924.8228483256917 2246.353500565986
1925.5023836315922 2242.3907992737936
1926.1817551857057 2016.3705881845697
1926.8609630285227 2551.3870180609583
1927.5400072005123 2502.1390490705667
1928.218887742125 2285.4345327435667
1928.8976046938005 2204.284881787489
1929.5761580959588 2431.6061086129957
1930.2545479890086 2278.473128590271
1930.9327744133352 2099.7331287684615
1931.6108374093164 2330.8506992918265
1932.2887370173066 2545.5613049226636
1932.9664732776473 2175.0579291292674
1933.6440462306673 2360.675826970292
1934.3214559166754 2359.4670371399307
1934.9987023759659 2514.300091799917
1935.675785648813 2354.952592858247
1936.3527057754836 2042.6163537353186
1937.029462796223 2436.765041943784
1937.70605675126 2182.8431583271727
1938.3824876808085 2239.4722478643225
1939.058755625072 2172.478392525699
1939.7348606242267 2243.6075288535994
1940.4108027184448 2427.5455900016514
1941.0865819478713 2463.7892955193033
1941.7621983526478 2317.376457690241
1942.4376519728921 2134.2094435145923
1943.1129428487038 2383.030060257107
1943.7880710201734 2360.6982626572108
1944.4630365273733 2482.3900046393615
1945.1378394103576 2137.7178061199443
1945.8124797091714 2085.9525154679322
1946.4869574638324 2034.0114999664638
1947.161272714353 2116.976229107201
1947.8354255007234 2280.1918492835844
1948.5094158629272 2170.1399843418476
1949.1832438409183 2313.3276000783035
1949.8569094746435 2479.035586032565
1950.530412804037 2524.8623859186146
1951.2037538690092 2388.406216363509
1951.8769327094578 2152.6505432645636
1952.5499493652678 2154.4883726785793
1953.222803876306 2411.995340361819
1953.895496282421 2250.34804557176
1954.5680266234522 2187.6799569393534
1955.2403949392155 2313.8935143855383
1955.9126012695142 2045.254809612395
1956.5846456541403 2255.3726649970276
1957.2565281328643 2169.930443029254
1957.9282487454457 2444.989940963619
1958.5998075316202 2224.7936133086378
1959.27120453112 2248.9983794488135
1959.9424397836501 2316.4019376042856
1960.613513328908 2318.276834207579
1961.2844252065697 2312.2892506909247
1961.9551754563017 2087.315767559591
1962.6257641177453 2146.8043331668196
1963.29619123054 2099.1200978936276
1963.966456834296 2052.249023753002
1964.6365609686181 2127.289524336823
1965.306503673086 2373.699014271177
1965.976284987275 2168.0467595358846
1966.645904950734 2261.813222574017
1967.315363603002 2093.237158910695
1967.9846609836077 2183.9193636130053
1968.6537971320486 2120.5812362049737
1969.3227720878222 2174.6088237408135
1969.9915858904042 2160.477950263753
1970.660238579252 2197.7592802791887
1971.3287301938108 2227.2957123628285
1971.997060773514 2145.321605877806
1972.665230357772 2094.193405244282
1973.3332389859843 2114.5361921749777
1974.0010866975335 2041.937912136193
1974.6687735317864 2165.7220918783214
1975.3362995280932 2223.202506392655
1976.003664725793 2218.084393007098
1976.6708691642052 2007.9619521126763
1977.3379128826364 2168.531507224673
1978.004795920373 2387.9097053732853
1978.6715183166925 2379.3139249379515
1979.3380801108524 1960.019623575877
1980.0044813420973 2180.6190739919457
1980.6707220496555 1774.8447105096766
1981.3368022727373 2189.6405451613095
1982.0027220505417 2057.482073792059
1982.66848142225 1852.2213485954387
1983.3340804270283 1955.14501731341
1983.999519104027 2067.3686898304995
1984.6647974923835 2180.8482365118934
1985.329915631215 2091.6294315807972
1985.99487355963 2165.0528599802037
1986.6596713167146 2352.243205517697
1987.3243089415428 2010.8501046662154
1987.9887864731754 2210.1812832783794
1988.6531039506553 2058.688051365617
1989.3172614130071 2071.051156963189
1989.9812588992481 2083.468204588508
1990.645096448372 1947.73678339321
1991.3087740993633 1992.0307218857347
1991.9722918911848 1956.3660168129184
1992.635649862792 2294.9874365943397
1993.2988480531185 2234.2225531834733
1993.9618865010852 2477.3227705892987
1994.6247652455968 2115.6322245846277
1995.287484325545 1936.626270121092
1995.9500437798033 2016.328531648653
1996.6124436472292 1959.4908896513357
1997.2746839666706 2166.279334970048
1997.936764776954 2072.707420616052
1998.598686116895 2009.6236092896354
1999.2604480252903 2220.240752155587
1999.9220505409212 2153.9673252200328
2000.5834937025593 1943.4874900657203
2001.2447775489582 2071.031733785847
2001.9059021188514 2149.214320199021
2002.5668674509616 1980.9328886504463
2003.2276735839987 2052.625775378393
2003.8883205566508 2243.041498370318
2004.5488084075987 2152.601690518174
2005.2091371755014 2076.5306413043654
2005.8693068990033 1994.2333403641987
2006.5293176167397 2220.5565038740665
2007.1891693673224 1998.667594365817
2007.848862189354 1845.0161165629422
2008.5083961214223 2003.8338987009217
2009.1677712020955 1907.3540566743027
2009.8269874699254 1900.305734853572
2010.4860449634598 1964.239736649677
2011.1449437212177 2028.4571216947563
2011.8036837817108 2231.9803714365307
2012.4622651834325 2187.0630661568716
2013.1206879648653 2109.604247514661
2013.7789521644736 2292.3503971454124
2014.4370578207036 1782.6998485252323
2015.0950049719922 2023.4162145603873
2015.7527936567585 2200.469103532018
2016.4104239134067 1972.3683600015677
2017.067895780323 1893.2120653209581
2017.725209295886 1813.775339747424
2018.3823644984514 2177.98326836576
2019.0393614263648 2139.527476282754
2019.6962001179545 2025.4237539256615
2020.3528806115355 2130.4030620714434
2021.0094029454067 2091.7034461315634
2021.6657671578487 1819.05292827561
2022.321973287133 2059.043650572631
2022.9780213715148 2021.3514865995614
2023.6339114492293 2160.6477171844717
2024.2896435585026 2137.2046959093336
2024.9452177375442 2008.3382981157672
2025.600634024544 2261.789607809454
2026.2558924576842 2206.26273609833
2026.9109930751292 2242.511142305082
2027.565935915025 1951.67151636327
2028.2207210155066 2253.4819242458025
2028.8753484146964 2269.252373128159
2029.529818150695 1739.4140713720094
2030.1841302615903 2075.9372613826263
2030.8382847854573 1932.6971167159797
2031.4922817603601 2134.4987199400416
2032.1461212243357 2139.438826796791
2032.7998032154192 1776.7710519407829
2033.4533277716218 2044.2610252867914
2034.1066949309443 1985.7291572233219
2034.7599047313688 1923.6181263979263
2035.4129572108704 2042.8722360800607
2036.0658524074006 2084.060798326068
2036.7185903589016 2168.318440357126
2037.3711711032956 2084.038942109105
2038.023594678496 2077.0591900303325
2038.675861122394 1912.2386597452173
2039.3279704728757 2060.3664346581904
2039.9799227678031 2006.319668993492
2040.6317180450278 2011.052369151159
2041.2833563423865 1858.1710911470868
2041.9348376977014 2147.414288068197
2042.5861621487784 2038.745331295096
2043.2373297334088 1924.0982700103264
2043.8883404893695 2069.001267363146
2044.5391944544208 2079.978409096488
2045.1898916663158 2062.81873148721
2045.8404321627804 2218.83961701309
2046.4908159815368 1892.3720811981198
2047.1410431602853 1794.9671126317146
2047.7911137367173 1929.3438815302864
2048.441027748504 2138.8973652880627
2049.090785233302 1845.944233502179
2049.7403862287592 1923.0954785407562
2050.389830772503 2199.096470948888
2051.0391189021466 1949.621673800612
2051.688250655294 1836.0051549636494
2052.337226069527 1880.9728144627775
2052.986045182417 2186.148364477517
2053.634708031521 2129.8067964840557
2054.283214654375 2073.5188593629578
2054.931565088511 1733.4466089154816
2055.579759371436 1882.8979797350028
2056.2277975406523 2047.2042015515992
2056.8756796336384 2141.4568209378567
2057.5234056878617 1798.7053103542426
2058.1709757407752 2057.704119971263
2058.8183898298194 1972.2960202432173
2059.465647992416 2099.604358849653
2060.1127502659747 2105.560645986089
2060.759696687888 1900.6756643012322
2061.4064872955405 2086.7513566973607
2062.053122126292 1816.1711221868227
2062.699601217497 2112.455665333875
2063.345924606485 1917.9891278858981
2063.992092330587 2022.9992882926824
2064.638104427102 1914.8233594883325
2065.283960933324 2251.6471899758635
2065.92966188653 1923.2175154597378
2066.5752073239855 2077.435782981941
2067.2205972829397 1833.937587332927
2067.86583180062 1917.7677530567112
2068.5109109142522 1941.3939117083785
2069.15583466104 1947.4182129419
2069.8006030781708 1953.450103414547
2070.445216202821 1838.1372233606733
2071.089674072153 2097.7210455714553
2071.7339767233116 2106.6560787230546
2072.3781241934303 1945.6195416109706
2073.0221165196253 2012.7650437791315
2073.6659537390024 1889.3238754451274
2074.3096358886505 2142.9119729521626
2074.953163005637 1982.9748060879988
2075.596535127028 1763.4012638060165
2076.2397522898664 1865.275164467736
2076.882814531182 1956.9764803825087
2077.5257218879924 2158.835864866506
2078.1684743973 1886.0681478260587
2078.8110720960885 1758.6915675228236
2079.453515021336 2180.0671164493306
2080.095803209997 1926.2160368026664
2080.7379366990135 1949.0963090423745
2081.37991552532 2078.9264357736633
2082.0217397258275 1755.4224000819045
2082.6634093374414 1710.2644823444632
2083.3049243970418 1821.8124874398559
2083.9462849415067 2082.3267428660265
2084.587491007689 2008.8029900620918
2085.2285426324324 1982.66034620506
2085.869439852564 1936.9457649326941
2086.510182704902 1821.8238554086063
2087.1507712262483 1931.0619032157442
2087.791205453381 1868.9960761249336
2088.4314854230743 1987.6571221640781
2089.0716111720867 1941.7091966028506
2089.7115827371617 1628.590528875382
2090.351400155023 1706.7119473129453
2090.991063462385 1785.0589878906994
2091.6305726959527 1623.7573079746653
2092.2699278924047 1906.3638822582282
2092.9091290884153 1801.0269992809451
2093.548176320641 1802.984520942841
2094.187069625721 2092.667738095539
2094.8258090402887 1719.130749394669
2095.464394600951 2039.8348031074408
2096.102826344313 1913.0106948126868
2096.741104306955 2173.570571077832
2097.379228525453 1770.2675259133423
2098.017199036358 1683.9378582593731
2098.6550158762147 2100.66944454104
2099.2926790815527 2114.765830548049
2099.9301886888825 2055.624436801907
2100.5675447347076 1952.5774967744892
2101.2047472555114 2018.5667940306353
2101.841796287761 1653.377805821264
2102.47869186792 1949.326641992116
2103.1154340324265 1810.1210162028979
2103.752022817709 1961.881201337969
2104.388458260184 1767.6685181104756
2105.024740396251 1739.8448973055638
2105.660869262292 1861.0770091826769
2106.296844894685 1968.2866189585015
2106.93266732978 1990.9101029078054
2107.5683366039284 1692.8553331827393
2108.2038527534532 1927.411622647278
2108.8392158146726 2030.5955686849015
2109.4744258238843 1806.0923972703163
2110.1094828173755 1698.9322012697892
2110.744386831422 2022.7365034493855
2111.3791379022787 1949.4112257000684
2112.01373606619 1885.5726825848192
2112.648181359389 1992.065033252659
2113.28247381809 2043.0979194646795
2113.916613478492 1810.485102234695
2114.550600376786 2011.7679392477708
2115.1844345491445 1869.4906430670217
2115.818116031729 1841.1423133287485
2116.451644860679 1879.6077461945729
2117.085021072133 1721.773147306109
2117.718244702204 1766.1091189710519
2118.3513157869984 1801.88797929895
2118.984234362604 1659.175083147554
2119.617000465092 1918.6543686311568
2120.249614130529 1994.8509412485678
2120.8820753949585 1861.6417580870614
2121.5143842944162 1695.1685689235067
2122.14654086492 1765.4153248267753
2122.7785451424734 1623.4124969311035
2123.4103971630702 1904.417290425054
2124.042096962681 1790.975702255142
2124.6736445772767 1961.0236638692397
2125.305040042802 1763.6581245401794
2125.936283395191 1756.1663232598414
2126.567374670365 1884.7528437011133
2127.198313904233 1911.8461722380216
2127.8291011326855 2100.1025910115063
2128.4597363916037 2119.5653888848065
2129.0902197168507 1844.1687682935394
2129.720551144279 1764.735265571952
2130.3507307097225 2142.013466227422
2130.980758449008 1946.5315575517502
2131.6106343979427 1689.618038150839
2132.2403585923203 1918.787513934221
2132.8699310679276 2017.0896624543584
2133.499351860526 1939.406022108339
2134.1286210058715 1822.9264474241409
2134.7577385397053 1593.8979558067178
2135.3867044977487 2043.7241548456127
2136.0155189157176 2026.225504732729
2136.644181829308 1891.1347255466674
2137.2726932742025 1852.4525218243416
2137.901053286074 2052.0871672363687
2138.5292619005777 1606.9897331279094
2139.1573191533535 1805.6324893412518
2139.7852250800315 1948.0872537631647
2140.4129797162295 1855.4913414787377
2141.0405830975433 1592.6899547796706
2141.6680352595613 1683.1005551571707
2142.2953362378576 1773.7035334830089
2142.9224860679915 1675.6247200195637
2143.549484785508 1711.4085185568351
2144.1763324259373 1800.4163720761085
2144.803029024799 1779.3114208105567
2145.429574617594 1556.4400678371526
2146.0559692398165 1822.9968633786416
2146.682212926942 1830.7097448140769
2147.308305714432 1812.8680922341337
2147.9342476377333 2056.885468310214
2148.5600387322847 2096.2632136657166
2149.185679033506 2033.8661502018851
2149.8111685768017 1730.6993314327974
2150.4365073975678 1646.576823720537
2151.061695531187 1639.0692693361245
2151.686733013021 1857.8140315153876
2152.311619878423 1995.2760349284017
2152.9363561627342 1717.0165653815773
2153.560941901278 1532.943236160068
2154.1853771293663 1772.9108060300289
2154.809661882293 1825.6727319119066
2155.433796195348 1706.7938521419546
2156.0577801037944 1991.7347190901069
2156.681613642895 1860.8263682038596
2157.3052968478896 1548.9866529055703
2157.928829754006 1896.9566854490863
2158.552212396462 1911.8745429148628
2159.1754448104566 1588.251824443391
2159.7985270311783 1611.0615815416659
2160.4214590938027 1475.4698161386227
2161.0442410334927 1543.709160075044
2161.6668728853874 1851.1107790070878
2162.289354684628 1455.9316841819577
2162.911686466332 1754.844175283541
2163.533868265602 1836.707655699932
2164.1559001175337 2034.000885834689
2164.7777820572046 1854.0620415211772
2165.399514119681 1777.6264972008958
2166.021096340013 1517.8654334400687
2166.6425287532384 1513.2220661271592
2167.263811394385 1508.6581867048292
2167.8849442984574 1816.1727583969434
2168.505927500455 1638.123204822173
2169.126761035366 1941.5605645457701
2169.7474449381552 1606.7715545429483
2170.367979243778 1403.4228939443788
2170.9883639871823 1895.5009931811255
2171.608599203293 1547.7121397773424
2172.2286849270276 2054.4693781287747
2172.8486211932886 1962.4576680881437
2173.4684080369625 1934.6921688648313
2174.0880454929265 1640.2910052554319
2174.7075335960417 1553.8304337295444
2175.3268723811543 1579.5750136157594
2175.9460618831 1605.4073394721706
2176.565102136701 1757.3077083955104
2177.1839931767627 1950.8025966808582
2177.802735038078 1676.866423882137
2178.421327755432 1628.506959841821
2179.0397713635866 1638.6391929811111
2179.658065897298 1784.8741066582606
2180.276211391305 1769.6935483813158
2180.8942078803357 1703.5456224195914
2181.5120553991 1708.160253938449
2182.129753982299 1472.723779902571
2182.7473036646206 1758.961016287179
2183.3647044807367 1661.5256517106543
2183.9819564653044 1676.9507795373731
2184.599059652968 1754.4412962837869
2185.216014078367 1786.2829931685658
2185.832819776113 1890.4125517668417
2186.4494767808137 1548.5080076618897
2187.065985127063 1680.1047585145195
2187.682344849436 1604.522713266638
2188.298555982501 1825.626593231687
2188.9146185608097 1861.0660847836928
2189.530532618901 1908.7427107551925
2190.1462981912937 1877.6614021443609
2190.761915312507 1793.5302740963216
2191.377384017036 1600.3960459362252
2191.9927043393654 1832.224211137203
2192.6078763139667 1885.8484265338168
2193.2228999753006 1939.6295423903182
2193.837775357808 1687.339151212486
2194.452502495922 1416.745961058506
2195.0670814240602 1625.0304105834657
2195.6815121766285 1464.8700586136097
2196.2957947880186 1472.5212023359825
2196.9099292926057 1480.192916646065
2197.523915724758 1679.7704024037096
2198.137754118825 1809.600136065685
2198.7514445091456 1887.4046885344992
2199.3649869300443 1989.6121235924074
2199.9783814158327 2092.14183451265
2200.5916280008096 1963.2890818840915
2201.2047267192593 1875.7119125873876
2201.8176776054515 1631.2379488030422
2202.430480693649 1459.753749303899
2203.0431360180955 1910.703321118907
2203.6556436130195 1909.0416596447162
2204.268003512645 1781.978262615797
2204.8802157511727 1654.6460707942035
2205.492280362796 1984.1616439166592
2206.1041973816937 1765.8751810619128
2206.715966842032 1771.2729961277448
2207.3275887779655 1803.2740158556087
2207.93906322363 1821.125024629417
2208.550390213153 1637.474203114257
2209.1615697806465 1761.7161393650208
2209.7726019602105 1675.7962807995693
2210.3834867859277 1575.351202245609
2210.9942242918787 1648.2407097089053
2211.6048145121167 1769.074424262224
2212.2152574806914 1956.3562249169784
2212.825553231638 1684.322809335744
2213.435701798975 1666.7644340093223
2214.045703216707 1649.3685607854932
2214.655557518832 1431.0407969817693
2215.2652647393297 1540.0639321791493
2215.874824912169 1335.8839635547351
2216.4842380713 1704.0009911785614
2217.09350425067 1533.9761313510414
2217.7026234842033 1827.9220811510172
2218.311595805819 1768.896093459368
2218.9204212494133 1542.5691598701833
2219.52909984888 1873.1168595801132
2220.137631638092 1471.5591424942659
2220.7460166509154 1846.9127376218487
2221.354254921198 1662.2801119665357
2221.9623464827764 1782.9509583260442
2222.5702913694713 1649.5708867728565
2223.178089615096 1856.7187802524095
2223.7857412534486 1570.6098070330806
2224.39324631831 1469.7865523528183
2225.000604843457 1515.8087830358056
2225.607816862641 1639.7718974669503
2226.214882409611 1704.6324983063307
2226.8218015180973 1833.0699663860044
2227.4285742218217 1653.4961148023608
2228.0352005544864 1670.399481788584
2228.6416805497847 1491.7790552957238
2229.248014241399 1534.5737303234305
2229.8542016629945 1444.0704409981286
2230.460242848223 1708.7968128189127
2231.0661378307304 1549.4429589604458
2231.671886644139 1389.944247195032
2232.277489322065 1414.05994062359
2232.8829458981127 1371.3519592922391
2233.48825640587 1781.0082596143882
2234.0934208789095 1900.0789665334592
2234.6984393507955 1886.7860522701267
2235.3033118550793 1672.3691441544174
2235.9080384252975 1532.0971556816269
2236.5126190949723 1506.997906544894
2237.1170538976166 1549.1097848279853
2237.721342866729 1398.3075626037257
2238.32548603579 1591.1560176564194
2238.9294834382763 1585.118703547482
2239.533335107646 1589.3094919589878
2240.1370410773434 1558.284932061389
2240.740601380803 1405.3601126665421
2241.3440160514474 1803.1545668406584
2241.9472851226783 1711.9825719586147
2242.550408627896 1803.9048005846148
2243.1533866004793 1896.0111484211698
2243.756219073799 1767.9266750350002
2244.3589060812064 1495.051285751017
2244.961447656049 1508.2027822450966
2245.5638438316564 1639.6594044297963
2246.166094641343 1758.0897805383333
2246.7682001184166 1545.0653422653627
2247.3701602961664 1610.3354407028014
2247.971975207871 1683.1549194175434
2248.5736448867974 1805.0985235210671
2249.175169366197 1628.3769017160998
2249.7765486793123 1736.9345420351287
2250.3777828593684 1534.3182673322033
2250.9788719395783 1766.4474666310766
2251.579815953146 1527.5568606444563
2252.1806149332606 1431.537131205319
2252.781268913097 1463.02458524451
2253.381777925817 1494.5356925073775
2253.9821420045737 1576.170931631856
2254.5823611825035 1816.5012077369527
2255.1824354927303 1744.3274989301876
2255.782364968365 1563.5133224931283
2256.38214964251 1382.497606759068
2256.9817895482483 1418.0252522159283
2257.5812847186553 1452.1538842929726
2258.180635186791 1421.7812545986671
2258.779840985704 1585.385067039222
2259.37890214843 1535.5975977922312
2259.97781870799 1827.6915379055536
2260.5765906973957 1539.8513344575695
2261.175218149645 1624.2276286256251
2261.773701097718 1439.876441241604
2262.3720395745895 1605.8779988297842
2262.970233613216 1449.8491503861492
2263.568283246548 1634.1868767445242
2264.1661885075137 1365.6872917326618
2264.763949429038 1506.1552328273697
2265.3615660440246 1648.312577876685
2265.959038385374 1488.5124502468102
2266.5563664859637 1702.3212580660718
2267.153550378669 1689.1899958838305
2267.7505900963424 1676.148658951001
2268.3474856718312 1532.9575127642443
2268.9442371379664 1689.9898225146512
2269.5408445275643 1682.573272412645
2270.1373078734377 1565.1745749362858
2270.7336272083758 1475.0637660582406
2271.32980256516 1421.4993355360816
2271.925833976562 1852.1688296912641
2272.5217214753357 1732.8244389752708
2273.117465094223 1315.2358434533576
2273.7130648659586 1351.8880429619232
2274.308520823257 1705.6260382629384
2274.903832998827 1736.5573610857496
2275.4990014253563 1710.48280511573
2276.094026135528 1684.326172727467
2276.6889071620117 1412.438125821075
2277.2836445374614 1390.4768546460325
2277.878238294519 1444.2257096378112
2278.472688465812 1384.1702627911056
2279.066995083962 1323.9775431637743
2279.6611581815705 1587.0454990312837
2280.255177791232 1465.6234160276567
2280.8490539455233 1873.7458397914754
2281.442786677013 1743.204527651854
2282.0363760182554 1819.5040378465733
2282.6298220017943 1469.2952580513463
2283.223124660155 1820.1165580689023
2283.816284025859 1474.04350032576
2284.4093001314086 1639.8357200526011
2285.002173009292 1374.216903114679
2285.5949026919952 1631.1656780923558
2286.1874892119777 1590.7073869154615
2286.7799326016993 1543.808728350171
2287.3722328936 1345.8313875554384
2287.964390120109 1186.6871799079433
2288.556404313642 1143.6784050543154
2289.1482755066027 1100.5214134772016
2289.7400037313873 1539.8814588387647
2290.3315890203703 1293.2694576457202
2290.9230314059205 1423.8352222683604
2291.5143309203904 1554.6569590875563
2292.1054875961236 1495.8847214082227
2292.6965014654506 1785.5532990270553
2293.287372560684 1460.7237147337553
2293.878100914131 1490.826918854884
2294.468686558086 1521.0424141435485
2295.059129524827 1492.4983142369624
2295.649429846617 1791.9046930030515
2296.239587555716 1738.0261767009263
2296.8296026843636 1683.9435645308827
2297.419475264791 1733.4790303772584
2298.0092053292137 1460.0710045143514
2298.598792909839 1654.8923061370922
2299.1882380388597 1595.3232207006868
2299.777540748455 1793.5381572869733
2300.3667010707904 1530.1304059851166
2300.9557190380256 1468.4578793553453
2301.544594682302 1628.173323180376
2302.1333280357503 1675.6117525533507
2302.721919130485 1723.1313383092504
2303.3103679986198 1847.9890325911815
2303.898674672242 1865.3804411988162
2304.486839183437 1654.348356096635
2305.0748615642697 1443.1401507393123
2305.6627418468015 1413.9858574332052
2306.2504800630704 1476.940925911673
2306.8380762451143 1606.3876000316168
2307.425530424949 1694.8551292117668
2308.012842634582 1783.5125111853388
2308.6000129060103 1667.0781422882512
2309.187041271214 1891.550699387651
2309.773927762164 1386.2786074761927
2310.3606724108213 1697.3238225548896
2310.9472752491274 1339.0647721503403
2311.5337363090184 1716.1734345342734
2312.120055622414 1620.2427701082265
2312.706233221221 1510.9846992519385
2313.2922691373424 1235.948051856731
2313.8781634026564 1340.818518280626
2314.463916049037 1445.924636238178
2315.049527108342 1490.4161391985538
2315.6349966124235 1520.165822819126
2316.2203245931123 1362.868401854052
2316.8055110822315 1205.1739695099393
2317.3905561115935 1203.2200565296164
2317.9754597129977 1348.4499653335652
2318.560221918229 1286.2172966123273
2319.1448427590603 1223.871384323
2319.729322267256 1406.2220921735093
2320.313660474563 1328.2030345581686
2320.8978574127195 1527.9213536480456
2321.481913113452 1728.244399307092
2322.0658276084705 1498.7399537734182
2322.6496009294806 1408.970654867847
2323.233233108165 1310.5880608369996
2323.8167241762058 1535.2719076010985
2324.4000741652617 1394.7594926648385
2324.983283106987 1618.3255962034434
2325.5663510330232 1579.9093481315078
2326.1492779749933 1436.8231002387456
2326.7320639645204 1630.3487859170941
2327.3147090332004 1779.3100064725245
2327.897213212629 1334.9510516407981
2328.4795765343843 1466.7309811817258
2329.0617990300307 1352.699624556275
2329.643880731124 1952.2615365006302
2330.22582166921 1281.6948237225752
2330.807621875816 1889.0011671335494
2331.3892813824623 1053.19511768273
2331.9708002206517 1159.3502575627372
2332.5521784218818 1293.807865866474
2333.133416017634 1428.5949375466168
2333.7145130393765 1486.2657270330305
2334.295469518571 1566.2391088479258
2334.876285486658 1745.3278158038015
2335.456960975076 1852.269714136836
2336.037496015242 1959.4827394672625
2336.6178906385667 1677.647691517065
2337.198144876451 1535.6868926860184
2337.778258760278 1709.0269949296435
2338.3582323214214 1698.1520185266672
2338.938065591243 1687.2091290749654
2339.517758601087 1752.7847438172043
2340.0973113822965 1590.9821124817825
2340.676723966193 1544.3487326352542
2341.255996384094 1490.6756396185876
2341.835128667295 1644.2959720847143
2342.4141208470883 1772.2719689068076
2342.992972954751 1453.6663559377753
2343.5716850215467 1441.267480385141
2344.1502570787306 1106.0108494748756
2344.7286891575386 1216.4781429423106
2345.3069812892045 1608.7114118805691
2345.885133504944 1536.9140439247944
2346.4631458359618 1424.847929783016
2347.04101831345 1188.8316139593392
2347.6187509685915 1437.1417407445415
2348.196343832553 1361.253008502846
2348.7737969364935 1334.1510343595212
2349.351110311558 1307.0429013527948
2349.9282839888765 1227.5045619340815
2350.5053179995757 1356.0493202042662
2351.0822123747585 1276.5576026556014
2351.658967145526 1213.6527560212305
2352.2355823429643 1150.7130870454275
2352.812057998144 1337.7997998710523
2353.3883941421263 1325.0560928765913
2353.9645908059647 1419.6106268855779
2354.540648020693 1304.9419106340852
2355.116565817336 1471.1337570010605
2355.6923442269126 1637.7079609164073
2356.2679832804224 1604.1844302251334
2356.8434830088518 1252.3034205350657
2357.41884344318 1267.7557583184664
2357.994064614377 1259.2659602110894
