#exp_cfg={"servo_angle": 0.0, "laser_lim": 100.0, "servo_angle_to": 18.0, "laser_wup": 0.0, "bt_dev": "EnSpectr-25AE3", "laser_wdn_max": 0.0, "frames": 10.0, "servo_used": 0, "servo_calib_use": 0, "laser_wdn_min": 0.0, "servo_pix_from": 90.0, "cooler_tout": 300.0, "servo_angle_from": 0.0, "servo_calib": "[-1.9174921013161362e-09, 3.9322238269163779e-05, -0.27385609119055809, 653.59552119713567]", "laser_autoctl": 0, "servo_pix_to": 3682.0, "laser_pw": 100.0, "cooler_on": 0, "laser_volt": 4.0, "cooler_autoctl": 0, "cooler_curr": 70.0, "cooler_startup": 10.0, "laser_fixed_pw": 0, "gain": 1.3, "offset": 2.53059635486, "servo_calib_degree": 3.0, "laser_curr": 55.0, "shutter": 8200.0, "servo_calib_step": 1.0, "laser_fixed_curr": 0, "exp": 2000.0, "ccd_volt": 4.7, "bt_addr": "00:06:66:62:5A:E3", "servo_delay": 500.0, "laser_autooff": 1}
#proc_cfg={"flat_auto_wnd": 200.0, "flat_auto_fr": 200.0, "flat_auto_shift": 5.0, "yconv": 1, "flatten": 1, "flatten_strength": 100.0, "xfrom": 300.0, "auto_max_frame": 2000.0, "auto_signal": 48000.0, "flat_auto_tol": 0.1, "autoclip": 1, "xrel_range": 0.0, "flat_auto_to": 4000.0, "intensity_adj": 1.0, "xrel": 7852.0, "rmhot": 1, "flat_auto_slit": 4.999999999999997, "auto_ini_exp": 300.0, "auto_off": 0, "xto": 2860.0, "flat_auto_ref": "", "flat_auto_rank": 1, "autobackg": 0, "xrel_adj": 0.0, "auto_black_lvl": 1, "base_wnd": 100.0, "sub_baseline": 0, "xconv": 2, "auto_max_exp": 1000.0, "auto_total_exp": 10000.0, "auto_exp": 0, "rmripple": 0, "black_lvl": 8280.6875, "shutter_clip_adj": 0.0, "auto_bckg": 0, "flat_auto_thr": 0.9, "subbackg": 1}
316.8218498245369 18876.69912360016
317.89969571804795 18600.675898589303
318.977263876126 18620.010896425436
320.05455438786703 18431.37465107745
321.1315673423287 18280.270416469175
322.2083028285215 18402.07488057192
323.2847609354267 18243.099318260396
324.3609417519747 18240.61029834815
325.43684536705587 18153.24627861812
326.5124718695279 18054.549686289978
327.58782134820103 17909.41997060192
328.66289389184385 17970.45097142746
329.7376895891921 17710.672668961626
330.8122085289342 17787.164295139584
331.88645079971866 17753.43650127607
332.9604164901575 17530.593321813973
334.03410568881554 17536.847539599676
335.1075184842266 17612.19131433027
336.18065496487543 17440.72513768556
337.2535152192122 17412.577275583833
338.32609933564163 17430.640069754638
339.39840740253203 17384.243728923127
340.4704395082099 17335.034816824867
341.5421957409617 17036.393544189632
342.6136761890357 17202.928458572642
343.6848809406365 17108.042557789347
344.75581008392874 17010.761072651567
345.82646370703696 16947.72083467465
346.8968418980512 16889.564859491245
347.96694474501055 16892.07050837335
349.0367723359268 16820.697666570697
350.106324758759 16752.708610782953
351.1756021014353 16713.545832127762
352.2446044518383 16640.726947966104
353.31333189781435 16899.647249898888
354.38178452716966 16657.212996913044
355.449962427665 16658.670393648343
356.51786568702846 16579.337341468807
357.58549439294256 16812.653255932393
358.6528486330535 16762.945002502394
359.71992849496564 16611.252053187745
360.7867340662433 16639.300570530024
361.8532654344144 16649.79468578796
362.9195226869597 16780.769210544306
363.9855059113288 16577.268494508407
365.05121519492604 16469.07553175504
366.11665062511565 16700.259644946367
367.1818122892273 16637.813379798896
368.2467002745434 16734.76657900737
369.31131466831175 16701.82277747045
370.375655557742 16695.983108441986
371.4397230299983 16789.56680853561
372.5035171722102 16777.4444398647
373.5670380714637 16717.93217385483
374.6302858148101 16917.431483263135
375.6932604892554 16859.207632264468
376.7559621817709 16834.637341686466
377.81839097928605 16719.113453794467
378.8805469686886 16782.282588179318
379.94243023683157 16741.220180447086
381.0040408705263 16748.424291005584
382.0653789565458 16507.688849081744
383.1264445816196 16680.782310389804
384.1872378324406 16641.11325988004
385.2477587956637 16687.19326804792
386.3080075579037 16599.564092983706
387.3679842057336 16471.926502761846
388.4276888256918 16517.187165295083
389.48712150426945 16519.028608741053
390.54628232792857 16346.024147972963
391.6051713830857 16169.977638437904
392.66378875611736 16204.3260350764
393.7221345333637 16193.291717875738
394.7802088011249 16067.97550844066
395.838011645661 16052.877132750844
396.89554315319765 15984.827643439043
397.9528034099112 15855.00421014386
399.00979250194723 15733.751694562667
400.06651051541485 15799.030201755173
401.1229575363741 15814.958535750417
402.17913365085224 15681.343539849908
403.23503894483656 15686.067797354437
404.2906735042761 15648.84664615567
405.3460374150818 15587.295478217595
406.401130763119 15557.206473897091
407.455953634224 15558.577279348076
408.5105061141876 15517.721368020397
409.56478828876243 15273.964409960845
410.6188002436629 15340.564107857024
411.6725420645689 15299.213278082045
412.72601383711117 15317.810173864564
413.77921564689314 15386.830717991712
414.8321475794728 15297.680180647894
415.88480972036814 15172.196452797114
416.93720215506437 15297.697642515279
417.9893249690049 15083.07908434414
419.04117824759123 15055.654816297165
420.09276207619223 15072.486376777917
421.144076540133 15070.091947552548
422.1951217247042 15048.165537306539
423.24589771515275 15033.962083510216
424.2964045966928 15002.17825041684
425.34664245449494 15082.299521858853
426.3966113736933 14938.236446627245
427.4463114393875 14916.095900921511
428.49574273662984 14979.664507157533
429.5449053504417 14740.203246413297
430.5937993658026 14889.275988046295
431.6424248676558 14812.338020662366
432.6907819409007 14701.998653709816
433.73887067040596 14847.33613740078
434.7866911409965 14812.586781822629
435.8342434374608 14805.118216555964
436.88152764455117 14688.564138097438
437.9285438469724 14722.308839825379
438.9752921294057 14637.27887362862
440.02177257648145 14715.010456462032
441.06798527279716 14617.375120440975
442.1139303029122 14851.583489014907
443.1596077513459 14812.062160331752
444.2050177025794 14715.746342939665
445.25016024105753 14726.502215495018
446.2950354511886 14803.702745958804
447.33964341733736 14726.685717546867
448.383984223834 14807.844198116862
449.4280579549686 14645.092480581321
450.471864694995 14697.600341502743
451.5154045281306 14810.230629871114
452.5586775385509 14736.118748659781
453.60168381039693 14723.149556190163
454.64442342776783 14857.588636255745
455.6868964747264 14819.841268479879
456.7291030353008 14755.181966225573
457.77104319347563 14954.887888006811
458.8127170332027 14956.115076883321
459.854124638392 14939.893855144479
460.895266092919 15156.826953416825
461.93614148061897 15152.787514810776
462.97675088529104 15282.311659569003
464.01709439069236 15257.208079515467
465.0571720805492 15383.554880903273
466.0969840385442 15362.24709945975
467.1365303483253 15625.178174689723
468.17581109350067 15526.853949825163
469.2148263576437 15537.229334802007
470.2535762242878 15604.518583945199
471.29206077693016 15703.083322264609
472.33028009902773 15765.684040418879
473.3682342740012 15723.712485837337
474.40592338523857 15695.831859019174
475.4433475160804 15752.746478894871
476.4805067498364 15612.281443575615
477.51740116978 15634.692066085565
478.5540308591426 15621.799334186167
479.59039590112116 15796.267929080961
480.6264963788726 15590.8608731096
481.6623323755193 15803.089888533117
482.6979039741436 15823.449749806317
483.7332112577915 15998.911450890726
484.76825430947247 16061.240947701244
485.80303321215797 16015.663665960605
486.837548048783 16185.677229917263
487.8717989022425 16354.103429546632
488.90578585539697 16313.911395576131
489.9395089910686 16348.387623575216
490.97296839203955 16173.564157998402
492.00616414106116 16026.491090654037
493.0390963208429 15970.973021856666
494.0717650140559 15978.25163577624
495.10417030333883 15674.546902842072
496.1363122712901 15751.416457940624
497.16819100046814 15429.824102774795
498.1998065734024 15265.906747532234
499.2311590725767 15169.125768898095
500.26224858044407 14981.078097969454
501.2930751794156 14790.478718818122
502.3236389518679 14843.053090630918
503.35393998014115 14571.607318055318
504.38397834653733 14574.20928498467
505.4137541333221 14517.218765067966
506.4432674227228 14376.443733040713
507.4725182969323 14331.431407259981
508.5015068381035 14296.13852822589
509.53023312835467 14294.713781212506
510.55869724976765 14216.741024931214
511.58689928438434 14128.812159215373
512.6148393142121 14080.29161401968
513.6425174212218 14135.289631482077
514.6699336873462 14076.729880836492
515.6970881944835 14082.156385480306
516.7239810244901 13992.345759088732
517.7506122591931 14065.402321499812
518.7769819803761 13986.566439918362
519.8030902697901 13953.897157906269
520.8289372091476 13936.645239202137
521.8545228801249 14009.89630305043
522.8798473643619 14048.381259098538
523.9049107434621 13964.381282035649
524.9297130989908 13927.702990611233
525.9542545124805 13902.93248112333
526.9785350654201 13839.251449927633
528.0025548392696 13880.823386969796
529.0263139154504 13828.754632155498
530.0498123753423 13785.041713782397
531.073050300296 13751.363528610405
532.0960277716204 13605.646599098933
533.1187448705896 13671.815001013074
534.1412016784416 13541.898223798245
535.1633982763833 13519.092755661599
536.1853347455726 13344.53858547614
537.2070111671401 13381.374131400391
538.2284276221817 13250.227424312756
539.2495841917516 13126.123973048549
540.2704809568677 13101.790672883715
541.2911179985167 13120.562795456435
542.3114953976419 13005.668435316666
543.3316132351592 12965.15531872041
544.3514715919409 12849.83596316246
545.3710705488247 12832.907283358945
546.3904101866156 12747.758792941011
547.4094905860784 12792.403067933908
548.4283118279418 12778.994402249704
549.4468739929034 12758.20572235348
550.4651771616191 12661.334545539856
551.4832214147063 12606.981212646293
552.501006832761 12653.268110825105
553.5185334963226 12560.380535981141
554.5358014859103 12613.68782825578
555.5528108820035 12554.232391153262
556.5695617650363 12475.472169396118
557.5860542154242 12588.211689660408
558.6022883135283 12502.912398261831
559.6182641396881 12437.594240706985
560.6339817741991 12508.327962066473
561.6494412973225 12586.823862163223
562.6646427892883 12657.369759140223
563.6795863302796 12403.392684058539
564.694272000459 12453.81934510588
565.7086998799423 12615.572066154067
566.7228700488104 12416.251503743808
567.7367825871115 12431.974571963487
568.7504375748576 12452.892694025604
569.7638350920224 12481.555829793022
570.7769752185486 12361.031998880966
571.7898580343353 12429.157807771193
572.802483619258 12303.31983583383
573.8148520531431 12558.171347148438
574.8269634157932 12534.503463817304
575.8388177869692 12419.72541794038
576.8504152463938 12499.439899873794
577.8617558737587 12679.19984128412
578.8728397487175 12658.905830762855
579.883666950891 12665.135239283281
580.8942375598654 12809.491308060033
581.9045516551851 12890.650176584031
582.9146093163617 13184.421559911341
583.924410622878 12893.845272681912
584.9339556541727 12990.436381135112
585.9432444896538 13112.40299060783
586.9522772086875 12986.634356516823
587.9610538906127 13029.65641544266
588.9695746147318 12940.440244966781
589.9778394603054 13036.4211538582
590.985848506567 12849.439210099325
591.9936018327098 12920.62586772976
593.0010995178891 12707.458557194679
594.0083416412344 12763.70277752368
595.0153282818283 12547.180479830335
596.0220595187293 12538.632218304481
597.0285354309508 12448.973619488754
598.0347560974806 12469.370316696288
599.0407215972609 12348.193505111052
600.0464320092051 12297.479792033806
601.0518874121954 12327.057175584237
602.0570878850685 12201.465630805886
603.062033506636 12172.649357939512
604.0667243556636 12243.295373077304
605.0711605108936 12096.649648225175
606.0753420510264 12457.988315674116
607.0792690547278 12331.801452094176
608.082941600629 12188.402860535743
609.0863597673306 12200.281225997634
610.0895236333909 12430.28065572471
611.0924332773357 12558.018285435834
612.0950887776617 12493.29225062392
613.0974902128219 12630.956617696032
614.0996376612384 12793.89279122756
615.1015312013005 12895.61772882281
616.1031709113595 12975.696237422482
617.1045568697336 13012.299283564194
618.1056891547069 13146.587226241463
619.1065678445229 13292.591900761578
620.1071930173985 13647.177452483293
621.1075647515099 13618.913336163561
622.1076831250048 13824.59831504006
623.1075482159849 13962.313703297876
624.1071601025305 14164.361554488152
625.1065188626781 14261.439489136459
626.105624574433 14594.650487285358
627.1044773157682 14660.520978841541
628.1030771646128 14786.592866940346
629.1014241988742 14930.324221522867
630.0995184964158 15116.879569683113
631.0973601350688 15187.651716297503
632.0949491926294 15449.605465340012
633.0922857468631 15120.582742214374
634.089369875499 15147.0978314516
635.0862016562278 15169.864998459982
636.0827811667077 14928.437670945621
637.0791084845641 14893.450485935144
638.0751836873878 14632.373737622791
639.0710068527369 14588.935853124707
640.0665780581294 14351.6607543766
641.0618973810506 14145.794276168192
642.0569648989604 14076.349479970053
643.0517806892676 13786.833967705146
644.0463448293649 13666.247181849685
645.040657396592 13449.637368190388
646.0347184682723 13320.085567929138
647.0285281216875 13068.463250036468
648.0220864340772 12979.015695091757
649.0153934826558 12779.097531475993
650.0084493446047 12688.130207103239
651.0012540970674 12622.64703447227
651.9938078171526 12536.747083134136
652.9861105819346 12383.060257799376
653.9781624684565 12483.82940883856
654.9699635537254 12331.323439575257
655.9615139147136 12277.311470678262
656.9528136283589 12144.990416129116
657.9438627715699 12226.842431790754
658.9346614212154 12129.976179371213
659.925209654135 11862.1463596493
660.9155075471263 11969.032470398528
661.9055551769616 11945.350415437944
662.895352620375 11973.869748215911
663.8848999540678 11850.697600874792
664.8741972547068 11775.429927370202
665.863244598926 11727.342153580663
666.8520420633213 11760.6983907817
667.8405897244611 11747.002907091435
668.8288876588758 11559.148579118413
669.8169359430613 11739.95983496262
670.8047346534822 11698.005179989694
671.7922838665672 11519.681460507763
672.7795836587156 11574.806158143681
673.766634106285 11752.7312764196
674.7534352856092 11492.871560786256
675.7399872729766 11542.605056448845
676.7262901446538 11518.833308940102
677.712343976862 11508.580516204482
678.6981488457986 11605.82939763572
679.6837048276229 11437.680519003508
680.6690119984596 11454.915070319326
681.6540704344043 11431.625361619363
682.6388802115107 11303.73437442147
683.6234414058108 11376.55445183547
684.6077540932874 11328.095043752797
685.591818349907 11326.699806719258
686.575634251587 11292.551810440553
687.5592018742263 11264.690174309351
688.5425212936734 11010.03517252715
689.5255925857564 11261.438517647046
690.5084158262707 11114.887881098137
691.4909910909646 11036.639146240266
692.4733184555644 11071.843707979608
693.4553979957618 11039.695617030575
694.4372297872123 11024.957063210391
695.4188139055404 11044.758056147195
696.4001504263324 10855.674516214733
697.3812394251509 10937.619201635203
698.3620809775111 10807.966032686707
699.3426751589104 10865.981543854792
700.3230220448004 10863.531987109607
701.3031217106054 10892.15392143295
702.2829742317172 11165.68467193712
703.2625796834873 10839.256734180639
704.2419381412474 10797.461057604725
705.22104968028 11074.131095849632
706.1999143758458 11016.960656625964
707.178532303169 11021.09302121137
708.1569035374378 11007.466430633885
709.1350281538107 11083.565724897338
710.1129062274158 11005.505375677842
711.0905378333373 11192.354660960682
712.0679230466376 11127.820869081781
713.0450619423427 11260.411526449434
714.0219545954424 11409.692560333435
714.9986010808989 11282.39990831372
715.9750014736292 11289.746599907272
716.9511558485392 11509.065024912488
717.9270642804786 11558.830389225946
718.9027268442787 11699.226627403583
719.8781436147328 11524.358528406612
720.8533146666014 11518.999863899291
721.828240074612 11445.997121602239
722.8029199134635 11431.931661591192
723.7773542578125 11399.481607010257
724.751543182294 11164.13054833408
725.7254867615029 11230.461614871438
726.6991850700015 10972.44477117104
727.6726381823228 10960.647784262039
728.6458461729599 10934.931841394584
729.6188091163858 10919.30738164582
730.5915270870246 10878.954765506374
731.5640001592856 10803.891363801109
732.536228407529 10908.930422655134
733.5082119060917 10797.36776667274
734.4799507292755 10818.974197189269
735.4514449513481 10820.76969190298
736.4226946465496 10944.213575442825
737.3936998890786 10905.809693622687
738.3644607531078 10819.658487074605
739.3349773127793 10723.581434117117
740.3052496421951 10864.34628262791
741.27527781543 10614.614478916708
742.2450619065221 10473.666480323927
743.2146019894826 10564.314795785282
744.183898138288 10420.25338293589
745.1529504268801 10335.549019257813
746.1217589291682 10253.115497555407
747.0903237190341 10218.042608722995
748.058644870318 10197.439050346802
749.0267224568397 10098.182374932778
749.994556552374 10068.770904892579
750.9621472306771 10110.141659445291
751.9294945654583 10052.065775222467
752.8965986304011 10002.59628379734
753.8634594991636 9963.578364562087
754.8300772453586 10044.02046116973
755.7964519425768 9966.659766719467
756.762583664371 10136.749081852146
757.7284724842611 10094.595893912028
758.6941184757416 10065.988730450506
759.6595217122667 10053.84762435868
760.6246822672638 10056.785882686749
761.5896002141235 9921.91943972506
762.5542756262093 9956.3858798588
763.5187085768503 10096.468060366471
764.4828991393406 9997.312295687429
765.4468473869474 9938.077595162353
766.4105533929032 9928.094995981566
767.3740172304078 9917.524853565237
768.3372389726283 9967.804227624609
769.3002186926988 9705.3374056975
770.2629564637282 9727.708799351029
771.2254523587872 9661.635552804359
772.1877064509154 9611.466043595152
773.1497188131179 9513.1303968403
774.1114895183728 9450.31424000913
775.0730186396268 9485.07899855285
776.0343062497905 9382.007235691915
776.9953524217381 9377.782741719639
777.9561572283274 9440.12429994702
778.9167207423689 9448.680750842015
779.8770430366476 9284.912405219558
780.8371241839159 9339.061927966806
781.7969642568951 9299.021360654235
782.7565633282757 9514.747069216535
783.7159214707099 9306.842356861547
784.6750387568281 9325.547399593324
785.6339152592227 9245.296376985703
786.5925510504512 9238.108991771125
787.5509462030477 9393.779289228185
788.5091007895098 9278.350578229838
789.4670148823006 9306.910066585584
790.4246885538596 9269.88844214736
791.3821218765861 9255.526630857683
792.3393149228505 9152.92877720216
793.2962677649975 9308.29136661897
794.2529804753303 9333.256977509158
795.20945312613 9392.490623530666
796.1656857896378 9317.928729139578
797.1216785380675 9346.298000360886
798.0774314435985 9439.388063860544
799.0329445783846 9632.817572540462
799.9882180145414 9611.535943979467
800.9432518241574 9582.920901981312
801.89804607929 9758.556046707254
802.852600851962 9780.616029881003
803.8069162141637 9845.70443771258
804.760992237856 9881.348838217675
805.714828994971 9974.112816363582
806.6684265574077 10023.93039199841
807.6217849970271 9923.400757883168
808.574904385674 9891.270251272585
809.527784795142 9974.980227710297
810.4804262972102 9997.511491863794
811.4328289636178 9666.055068912265
812.3849928660748 9523.153745362577
813.3369180762638 9528.834449123435
814.2886046658241 9571.291796639089
815.2400527063783 9397.073094458796
816.1912622695108 9329.267306955822
817.1422334267718 9319.679681923739
818.0929662496856 9106.4589755243
819.0434608097457 8999.131332999423
819.9937171784059 9007.205769036696
820.9437354271013 8971.444258729192
821.8935156272255 9013.184164919485
822.8430578501484 8841.944514107516
823.7923621672016 8699.635134075223
824.7414286496896 8748.022263031378
825.6902573688876 8755.527605203446
826.6388483960363 8686.025426476863
827.5872018023492 8546.392816508127
828.5353176590033 8654.670100364088
829.4831960371503 8517.353645671577
830.4308370079016 8585.21104137367
831.3782406423525 8582.676859478093
832.3254070115545 8606.483200755458
833.2723361865319 8483.987873107333
834.2190282382799 8424.710246840794
835.1654832377644 8502.239702427036
836.1117012559116 8514.476029921187
837.0576823636256 8677.803806880507
838.003426631778 8427.283879411832
838.9489341312074 8433.980810267112
839.8942049327197 8607.96278486465
840.8392391070975 8700.191830759284
841.7840367250865 8563.14857707532
842.7285978573982 8518.46841961482
843.672922574724 8676.948707014348
844.6170109477152 8549.703846291919
845.560863046996 8535.691861922909
846.5044789431595 8558.555006907374
847.4478587067697 8531.981571825727
848.3910024083561 8638.465208923786
849.333910118421 8537.4698724578
850.2765819074339 8568.934560041382
851.2190178458332 8573.60749671386
852.161218004032 8669.785888556225
853.1031824524016 8553.13138019575
854.0449112612987 8484.288239060896
854.9864045010327 8590.327817617628
855.9276622418947 8522.48330698421
856.8686845541379 8558.608317217517
857.8094715079915 8481.85919795642
858.7500231736467 8693.56758203423
859.690339621271 8497.53476220827
860.6304209209939 8543.09980077418
861.5702671429244 8406.506966445342
862.5098783571284 8541.989467022404
863.4492546336569 8529.643476533101
864.3883960425155 8469.400072694083
865.3273026536863 8449.658735183479
866.2659745371238 8380.345291789357
867.2044117627465 8660.905397443212
868.1426144004472 8533.519289026479
869.0805825200823 8658.871815358933
870.0183161914847 8591.071630741277
870.9558154844526 8759.136463384184
871.8930804687552 8705.137583345704
872.8301112141307 8593.286335630424
873.7669077902865 8745.122749391427
874.7034702669062 8948.353246406554
875.6397987136315 8773.077737850172
876.5758932000863 8859.60591452819
877.5117537958522 8938.939654395394
878.4473805704911 8894.887149448583
879.3827735935283 8851.870016205283
880.3179329344603 9001.257077377255
881.2528586627541 9088.624428813982
882.1875508478479 9059.335334366046
883.1220095591489 8866.68473546424
884.0562348660296 8794.77907304821
884.9902268378391 8917.174982601206
885.9239855438955 8815.881320649456
886.8575110534839 8741.592920094827
887.7908034358588 8743.826902817822
888.7238627602474 8732.391168844495
889.6566890958475 8699.187886722078
890.5892825118208 8541.533941315329
891.5216430773125 8588.252973449886
892.4537708614189 8560.905611274004
893.3856659332196 8391.727773197683
894.3173283617652 8278.2478537492
895.2487582160684 8379.018810551144
896.179955565116 8232.344960798246
897.110920477864 8152.117608173228
898.0416530232451 8176.1586177696645
898.9721532701478 8082.192108655343
899.9024212874428 8265.328700326649
900.8324571439662 7957.576506378051
901.7622609085302 8005.981395284706
902.6918326499072 7953.047285367446
903.6211724368477 8005.621992910387
904.5502803380696 8115.5156492020515
905.4791564222614 8162.584043712102
906.4078007580792 7997.370898649546
907.3362134141571 7989.662299825392
908.2643944590909 8109.313418095068
909.1923439614493 7918.358827979042
910.1200619897754 7932.707811220575
911.0475486125779 8125.576450513678
911.9748038983344 7955.264785612746
912.9018279155007 7889.567980173937
913.8286207324982 7811.66766243509
914.7551824177117 7987.499646046957
915.6815130395116 7863.25031280333
916.6076126662283 7771.5912068964
917.533481366163 7805.281771778859
918.4591192075914 7855.892758364125
919.3845262587565 7904.886862205259
920.3097025878706 7814.604582040813
921.2346482631237 7773.375475907791
922.1593633526682 7873.459976753211
923.0838479246304 7933.028896151343
924.0081020471061 7977.199849610474
924.9321257881656 7737.018074871664
925.8559192158464 7833.763106047072
926.7794823981512 7735.136083790397
927.7028154030686 7700.360580512979
928.6259182985414 7627.5430594710215
929.5487911524906 7843.755167954632
930.4714340328119 7868.681699962336
931.3938470073608 7628.258620515475
932.3160301439748 7712.121497075791
933.2379835104548 7773.585048922681
934.1597071745709 7884.55321494851
935.0812012040769 7820.967601114896
936.002465666681 7844.240474507239
936.9235006300696 7831.365180327016
937.8443061619055 7838.302231498632
938.7648823298077 7616.825591813189
939.6852292013809 7658.111259732461
940.6053468441951 7818.609876645334
941.5252353257874 7648.423257412435
942.4448947136698 7726.906849268086
943.364325075323 7752.368286828947
944.2835264782043 7717.184179496231
945.2024989897309 7828.384843997604
946.1212426773054 7724.584285814776
947.0397576082851 7815.303827195525
947.9580438500125 7992.804475776397
948.8761014697939 7938.202648019143
949.7939305349064 7863.563099532983
950.7115311125999 7719.196677530157
951.6289032700952 7751.836682719571
952.5460470745875 7892.805406618029
953.4629625932339 7764.090427038398
954.3796498931715 7827.652381823052
955.2961090415029 7834.89789849996
956.2123401053068 7821.343509425744
957.1283431516276 7822.023136941332
958.0441182474842 7715.50432984611
958.9596654598663 7956.366158119097
959.8749848557309 7835.055165137657
960.7900765020167 7744.809249772972
961.7049404656209 7644.306034204409
962.6195768134185 7808.937922015735
963.5339856122537 7823.452876979444
964.4481669289453 7796.421204096419
965.3621208302793 7808.872308972766
966.2758473830145 7750.7537350023
967.1893466538822 7916.522489851789
968.1026187095813 7758.928860906747
969.0156636167867 7755.760135834133
969.9284814421426 7941.434039540402
970.8410722522622 7798.691200943447
971.753436113735 7816.143371398932
972.6655730931161 7826.320169833723
973.5774832569368 7883.993825759519
974.4891666716958 7704.307415197183
975.4006234038698 7722.988240397122
976.3118535198955 7743.171043400124
977.2228570861935 7873.014152565333
978.1336341691494 7943.536325889768
979.0441848351202 7713.4442462078105
979.9545091504333 7915.561602790466
980.864607181391 7883.883085365751
981.7744789942699 7905.236706549491
982.6841246553086 7929.841394002129
983.5935442307236 7893.293880116047
984.5027377867027 8038.770193321483
985.4117053894024 8013.589473788127
986.3204471049557 7925.288590619828
987.2289629994648 8060.328904061808
988.1372531390007 8205.256383469237
989.0453175896091 8145.8948972857615
989.9531564173067 8147.8646000913595
990.860769688079 8090.224557689282
991.7681574678918 8263.11432436458
992.6753198226706 8276.872548855823
993.582256818323 8288.674962174739
994.4889685207218 8279.266987485686
995.3954549957143 8530.340771641544
996.301716309119 8589.528503841564
997.2077525267232 8526.137764727157
998.1135637142943 8414.01127990102
999.0191499375615 8614.138512572252
999.924511262232 8494.659975121185
1000.8296477539861 8465.906437379726
1001.7345594784656 8303.622704487836
1002.6392465012996 8250.222975126759
1003.5437088880753 8379.284871776768
1004.4479467043584 8272.478812451203
1005.3519600156869 7951.314692752354
1006.2557488875718 8243.710736250736
1007.1593133854858 8063.690801662956
1008.0626535748888 8032.241063208897
1008.9657695212009 7854.62691053224
1009.8686612898182 8191.016348252366
1010.7713289461135 8211.813972951843
1011.6737725554212 7963.287958810829
1012.5759921830577 7946.375894013836
1013.4779878943027 7995.009825037923
1014.379759754418 8080.273193856451
1015.2813078286254 7870.341487258568
1016.18263218213 7835.9391901937315
1017.0837328801026 7834.067947064877
1017.9846099876886 7919.073896629791
1018.8852635700023 7773.274975179549
1019.7856936921362 7674.113437390379
1020.6859004191447 7974.591102545977
1021.5858838160675 7728.417940265286
1022.4856439479063 7699.856752016049
1023.3851808796389 7665.514212120058
1024.2844946762143 7861.001941035084
1025.183585402554 7751.904636807431
1026.082453123554 7543.6184939372515
1026.9810979040776 7691.178359008996
1027.8795198089647 7535.142715446445
1028.777718903024 7547.6711540636215
1029.6756952510368 7562.042655670191
1030.5734489177648 7549.505857714797
1031.4709799679313 7581.726363479604
1032.3682884662358 7737.094970442051
1033.2653744773506 7433.064033474882
1034.1622380659192 7450.219911648787
1035.058879296559 7574.590391479433
1035.9552982338591 7754.010313747579
1036.8514949423825 7593.2828186838915
1037.7474694866614 7585.774146999106
1038.6432219312028 7648.899233820353
1039.5387523404825 7919.25442423054
1040.4340607789582 7714.366803866015
1041.3291473110476 7850.704766880073
1042.2240120011465 8030.346615736268
1043.1186549136273 8041.379913196545
1044.0130761128294 7917.259288650345
1044.9072756630649 8027.722790808262
1045.8012536286205 8222.384948963227
1046.6950100737577 8177.113167894885
1047.588545062701 8301.26776478735
1048.481858659663 8266.795216047907
1049.3749509288118 8425.787550490533
1050.2678219343034 8210.368654471904
1051.1604717402515 8204.752217759888
1052.0529004107575 8150.292446299922
1052.9451080098825 8255.201503222343
1053.8370946016694 8203.04421838977
1054.7288602501267 8163.701775664151
1055.6204050192446 8097.139817107542
1056.511728972977 8199.588466008501
1057.402832175254 8153.499811592881
1058.2937146899785 7934.240217849239
1059.1843765810263 7954.608319535115
1060.0748179122456 7979.678141425621
1060.9650387474576 7847.344324578519
1061.855039150456 7938.835176925371
1062.7448191850071 7860.599109275919
1063.6343789148505 7835.9441642492675
1064.5237184037014 7916.713501365103
1065.412837715241 7724.702737838129
1066.3017369131267 7643.231811649037
1067.190416060992 7716.576675367134
1068.0788752224398 7613.959206995294
1068.9671144610438 7649.716623761565
1069.8551338403558 7639.230426567037
1070.7429334239023 7747.862562738841
1071.6305132751695 7538.384185514269
1072.517873457633 7641.117630643134
1073.4050140347335 7458.301349387106
1074.2919350698776 7654.69086024846
1075.1786366264623 7631.7243268492
1076.0651187678395 7567.4126410526715
1076.95138155735 7414.580355167762
1077.8374250582929 7454.721301195929
1078.7232493339507 7508.326480479331
1079.608854447577 7431.754783653557
1080.4942404623907 7388.473322784192
1081.3794074415982 7518.600155181688
1082.2643554483657 7548.48637901142
1083.149084545841 7448.606104371994
1084.033594797138 7290.49637315211
1084.9178862653516 7406.01866063584
1085.8019590135427 7539.700659331327
1086.6858131047484 7263.761379269604
1087.5694486019802 7407.555630859009
1088.4528655682225 7415.287896356538
1089.3360640664287 7509.636035764508
1090.2190441595321 7399.306373811955
1091.1018059104317 7438.48787186084
1091.98434938201 7493.787912250629
1092.866674637111 7600.350232351935
1093.748781738559 7467.634682621627
1094.6306707491512 7271.496503380831
1095.5123417316554 7531.80595978256
1096.3937947488157 7359.844545961673
1097.2750298633455 7341.431854526818
1098.156047137938 7327.87972225251
1099.0368466352556 7458.153917164776
1099.9174284179317 7612.93589079674
1100.7977925485757 7296.1761238602685
1101.6779390897755 7346.730834581171
1102.5578681040806 7478.183828133557
1103.4375796540226 7513.109424009706
1104.3170738021054 7331.924978263664
1105.1963506108077 7358.947964038416
1106.0754101425773 7306.821445449718
1106.9542524598382 7517.306089496805
1107.8328776249855 7444.289493851376
1108.7112857003904 7423.60455100424
1109.5894767483987 7446.231217128372
1110.4674508313292 7594.702978273404
1111.3452080114657 7498.670598013146
1112.2227483510815 7642.198182494261
1113.1000719124077 7722.599263349735
1113.9771787576592 7834.507152273292
1114.854068949022 7666.442780595369
1115.7307425486542 7798.773966468003
1116.6071996186893 7931.142707236619
1117.483440221229 8183.569696059218
1118.3594644183577 7930.089572000914
1119.235272272128 7965.968078793849
1120.1108638445658 8103.364931790476
1120.9862391976712 8465.449385730155
1121.8613983934229 8295.190319351603
1122.7363414937627 8361.996559640405
1123.6110685606182 8517.27990129858
1124.485579655884 8603.835311410297
1125.359874841426 8583.149539619937
1126.2339541790916 8647.032836599497
1127.1078177306936 8895.72330962455
1127.9814655580267 8673.36581226035
1128.854897722851 8765.435954362152
1129.7281142869106 8730.632158826764
1130.6011153119125 8740.843632424981
1131.473900859548 8837.159995934611
1132.3464709914697 8631.794073117988
1133.2188257693178 8590.298305570841
1134.0909652546961 8425.205203653091
1134.96288950919 8290.640943068498
1135.8345985943506 8532.297006858727
1136.7060925717087 8217.186621015104
1137.57737150277 8236.926621008337
1138.4484354490069 8386.40596912151
1139.3192844718778 8100.2604309496965
1140.1899186327992 7889.822201934416
1141.060337993178 8049.882997326626
1141.930542614382 7881.468062899713
1142.8005325577597 7770.810081269662
1143.670307884635 7607.65328903701
1144.5398686563003 7786.203446867815
1145.409214934025 7605.253103469974
1146.2783467790541 7439.549734713344
1147.1472642526023 7512.964356267233
1148.0159674158622 7570.546833179149
1148.8844563300026 7296.274022726217
1149.7527310561618 7300.9077640991545
1150.6207916554504 7261.495994085283
1151.4886381889592 7120.322939899817
1152.3562707177498 7349.681678552153
1153.2236893028585 7058.1636349332575
1154.090894005296 7083.702083537112
1154.9578848860474 7152.297653119402
1155.8246620060709 7148.558482051017
1156.6912254262988 6961.552660583718
1157.5575752076438 7033.320183804119
1158.42371141098 7164.851928786375
1159.2896340971656 7154.108528013038
1160.1553433270346 7024.821025870491
1161.0208391613887 7056.848287378666
1161.8861216610057 7129.462004706576
1162.75119088664 7014.782200956512
1163.6160468990201 7066.998561068989
1164.4806897588442 6898.132907634123
1165.3451195267917 7150.056824107667
1166.2093362635114 7008.814390720598
1167.0733400296285 7062.486314671221
1167.9371308857444 6885.1335256356615
1168.8007088924278 7013.195542658806
1169.6640741102328 7085.2261061875715
1170.5272265996773 6921.094013094473
1171.390166421259 6895.993714741258
1172.252893635452 7072.93040477248
1173.1154083026995 7166.927996077049
1173.977710483421 7114.497654784367
1174.8398002380145 6949.149435967529
1175.7016776268483 7078.163673179735
1176.563342710264 7054.948977406135
1177.4247955485826 7010.67806651573
1178.2860362020947 7110.861926621465
1179.147064731069 6985.174755470665
1180.0078811957483 7157.688824007564
1180.8684856563486 7096.889273558167
1181.7288781730604 7129.8006201448325
1182.589058806052 7230.621692975859
1183.4490276154593 7352.956080335547
1184.3087846614017 7135.728096418115
1185.1683300039676 7275.357668359909
1186.027663703222 7474.766527709767
1186.8867858192025 7290.3383051871715
1187.7456964119228 7390.713956149279
1188.6043955413716 7393.060831272752
1189.4628832675116 7507.295976681114
1190.3211596502842 7650.195030030291
1191.179224749596 7609.543866992152
1192.0370786253388 7410.658178760243
1192.8947213373758 7746.976826437416
1193.7521529455407 7917.347014870439
1194.6093735096438 7555.574557270981
1195.466383089477 7632.3076785271
1196.3231817447977 7724.935509835753
1197.1797695353398 7876.698993241815
1198.0361465208189 7679.388255805847
1198.8923127609214 7618.8313131239265
1199.7482683153048 7908.4540348952505
1200.6040132436028 7975.945323678733
1201.459547605431 7768.906420275463
1202.3148714603722 7838.711776615719
1203.1699848679855 7812.428184193789
1204.0248878878065 7968.669528046395
1204.8795805793507 7759.985309201089
1205.7340630020935 7810.630039569701
1206.5883352155033 7901.627736288101
1207.4423972790064 7850.925327038264
1208.2962492520237 7700.200781681958
1209.1498911939307 7664.3546317126475
1210.0033231640937 7724.8741030407855
1210.8565452218427 7752.902150130049
1211.7095574264913 7441.354515564822
1212.5623598373222 7596.012178753636
1213.4149525135963 7484.173716170402
1214.2673355145507 7586.065743785475
1215.1195088993936 7454.380420409684
1215.9714727273113 7493.668439830969
1216.8232270574663 7695.877429320664
1217.6747719489904 7346.358088317336
1218.5261074609934 7393.326208706113
1219.3772336525653 7375.412860002351
1220.2281505827668 7606.493112987385
1221.0788583106296 7599.253347085847
1221.9293568951707 7262.893124644533
1222.7796463953746 7347.561007875267
1223.629726870202 7519.776930485832
1224.4795983785934 7541.416967829113
1225.3292609794553 7431.210560831474
1226.1787147316809 7291.710813820653
1227.0279596941327 7375.276022982255
1227.8769959256424 7317.583612793338
1228.7258234850306 7499.5275593667275
1229.5744424310833 7226.6353568438235
1230.422852822563 7522.357373109825
1231.2710547182105 7511.11069854539
1232.119048176739 7303.821290138609
1232.9668332568417 7142.370429741053
1233.8144100171812 7441.05256024165
1234.6617785163999 7349.950252671627
1235.508938813111 7078.652453035119
1236.3558909659114 7168.821298081518
1237.2026350333617 7355.445093457126
1238.049171074008 7329.699984388523
1238.8954991463652 7109.9973720441685
1239.741619308932 7094.498835280327
1240.587531620169 6977.756219232829
1241.4332361385277 7223.563840777027
1242.2787329224248 7033.322039974494
1243.1240220302534 7023.016599716175
1243.9691035203869 7042.825794438795
1244.813977451171 7215.347150402698
1245.6586438809263 7045.361797435889
1246.5031028679496 6768.366453152422
1247.3473544705157 7013.354766743035
1248.1913987468706 7067.188471452502
1249.0352357552383 6715.378581940669
1249.8788655538228 6838.369690200476
1250.7222882007918 7021.894088047884
1251.565503754302 7046.143090899446
1252.4085122724755 6714.591887849807
1253.2513138134182 6981.6195515132
1254.0939084352049 6947.073937541207
1254.9362961958905 6888.5206049515355
1255.7784771535007 6846.861361194498
1256.6204513660432 6965.432832543003
1257.4622188915 7136.04227227356
1258.3037797878242 6841.009408834999
1259.1451341129468 6756.106075830362
1259.9862819247755 6842.034977001715
1260.8272232811978 6833.356108512118
1261.6679582400666 7065.721067351587
1262.5084868592203 6821.180247843867
1263.34880919647 6732.999871334917
1264.1889253095997 6823.031064504559
1265.0288352563712 7035.32492952376
1265.8685390945266 6780.801206038494
1266.7080368817751 6862.401661044256
1267.5473286758115 7136.494726000504
1268.386414534294 6863.436089765166
1269.2252945148703 6666.593762857521
1270.0639686751547 6892.579616288602
1270.9024370727402 6844.990011120569
1271.7406997651997 6783.14535646108
1272.5787568100714 6726.6071555932485
1273.4166082648808 6712.74296403369
1274.2542541871244 6779.099057890916
1275.091694634275 7009.16802923085
1275.9289296637817 6606.97554798148
1276.7659593330663 6835.061687642958
1277.6027836995308 6588.951843948237
1278.4394028205552 6894.620017581864
1279.2758167534867 6678.933214188968
1280.112025555658 6639.155136886491
1280.9480292843746 6769.058556192444
1281.7838279969128 6527.06174467556
1282.6194217505326 6665.29100842655
1283.4548106024686 6540.019946490685
1284.289994609926 6618.154426808775
1285.1249738300921 6744.290036629504
1285.959748320127 6629.695972206588
1286.7943181371702 6723.086591501674
1287.6286833383328 6672.024453622604
1288.4628439807038 6724.176294833531
1289.2968001213521 6577.020530809428
1290.1305518173194 6605.566132980438
1290.9640991256183 6741.0820097604665
1291.7974421032523 6553.931571405507
1292.630580807183 6641.746577379448
1293.463515294361 6785.270793329917
1294.29624562171 6898.4593550355785
1295.12877184613 6681.9022073698925
1295.961094024493 6732.483264937429
1296.79321221365 6796.976286119313
1297.6251264704333 6924.3965075591495
1298.4568368516466 7072.827668449558
1299.2883434140658 6948.563630795528
1300.1196462144526 6695.645686869015
1300.9507453095375 6992.802977934218
1301.7816407560313 6980.532776433216
1302.6123326106172 6913.571264968601
1303.4428209299622 6900.264949675647
1304.2731057707024 7127.594069653857
1305.1031871894502 6931.868278412377
1305.933065242798 7030.239060841685
1306.7627399873181 7059.223630458383
1307.5922114795467 7446.235110621623
1308.4214797760123 7488.8860704348135
1309.2505449332057 7127.594171879447
1310.0794070076026 7261.425708141875
1310.9080660556538 7347.098194309384
1311.736522133786 7364.3904022482575
1312.5647752983987 7134.735274589073
1313.3928256058734 6995.129890117534
1314.2206731125661 7321.334011451037
1315.048317874809 7275.723026636466
1315.8757599489109 7142.364211423868
1316.7029993911547 7224.22363628847
1317.5300362578055 7379.962071815137
1318.356870605101 7096.509003071655
1319.183502489257 7130.7443223586715
1320.0099319664623 7274.459940055119
1320.836159092889 7323.415867627113
1321.66218392468 7295.631075492014
1322.4880065179532 7103.686835350479
1323.3136269288134 7197.432344143272
1324.1390452133292 7282.876291642393
1324.9642614275563 7393.498528762376
1325.7892756275214 7165.241105536324
1326.6140878692295 7119.409795142007
1327.4386982086617 7504.301161348088
1328.2631067017755 7254.004484272866
1329.0873134045069 7333.0016581356085
1329.911318372764 7134.080633284415
1330.735121662441 7202.107716470785
1331.558723329399 7159.30154197075
1332.3821234294774 7076.712586628257
1333.2053220185007 7058.452396056501
1334.0283191522612 7110.880836946657
1334.851114886529 7111.040193398594
1335.6737092770582 6858.60942618911
1336.4961023795695 7054.135273899066
1337.3182942497697 6905.058821638015
1338.1402849433325 7028.713116514782
1338.962074515921 6860.241408283437
1339.7836630231632 6762.799010662631
1340.6050505206676 7197.594741040351
1341.426237064028 7057.093079917019
1342.2472227088037 6710.8083996291125
1343.0680075105338 6676.232414524495
1343.888591524741 6806.108149060817
1344.7089748069138 7013.830874711853
1345.5291574125276 6731.677776647042
1346.3491393970307 6557.451258057658
1347.168920815846 6808.481708707628
1347.9885017243778 6804.834785607409
1348.8078821780036 6625.429347600392
1349.6270622320844 6635.505898304496
1350.4460419419447 6630.94060754208
1351.2648213629054 6815.904048375944
1352.0834005502438 6491.853157485035
1352.90177955923 6511.152039912692
1353.7199584451064 6684.053353130398
1354.5379372630887 6751.841892925552
1355.355716068374 6506.243903784348
1356.1732949161305 6472.912814570977
1356.9906738615155 6599.473261145738
1357.8078529596478 6571.851628397538
1358.6248322656375 6648.283885540838
1359.441611834567 6434.099401443716
1360.2581917214866 6720.090177470907
1361.0745719814367 6426.289753047388
1361.890752669433 6460.577109906875
1362.7067338404577 6437.884710015476
1363.5225155494845 6734.80822560659
1364.3380978514506 6812.861893122075
1365.1534808012839 6423.469213456838
1365.9686644538815 6204.132805951606
1366.783648864117 6701.884617387919
1367.5984340868417 6715.811536058961
1368.413020176893 6562.457665979064
1369.2274071890715 6200.532104053508
1370.0415951781652 6719.664362066806
1370.8555841989346 6554.538564897957
1371.6693743061223 6533.6098645441825
1372.48296555444 6295.2851489211225
1373.2963579985844 6615.1632655114645
1374.1095516932255 6567.695701524988
1374.9225466930166 6394.349347575748
1375.7353430525782 6565.448125324547
1376.5479408265164 6462.477792209899
1377.36034006941 6681.4703341864515
1378.1725408358216 6534.74595794207
1378.9845431802805 6400.167214042602
1379.796347157304 6909.5553593895165
1380.6079528213813 6721.505268902787
1381.4193602269788 6423.948985372511
1382.230569428546 6569.244382769985
1383.0415804805016 6833.759059682861
1383.852393437246 6779.82988463876
1384.6630083531563 6649.070812450183
1385.4734252825892 6604.056831262487
1386.2836442798798 6662.662972212218
1387.0936653993322 6783.065928299553
1387.9034886952395 6626.352664064034
1388.713114221864 6688.977751827928
1389.5225420334482 6729.464183801359
1390.331772184214 6637.292087016567
1391.1408047283585 6411.226157127838
1391.9496397200564 6473.41533023717
1392.758277213461 6689.900487260444
1393.5667172627054 6769.87377459837
1394.3749599218918 6390.731329903319
1395.1830052451114 6256.456030389883
1395.9908532864265 6432.217635756946
1396.7985040998774 6571.814762042295
1397.6059577394808 6272.884174081907
1398.4132142592352 6244.302155418133
1399.2202737131156 6202.848088745035
1400.027136155073 6460.5283539374195
1400.8338016390353 6120.793353626699
1401.6402702189134 6144.961535820268
1402.446541948586 6124.788405187959
1403.2526168819204 5997.220729645334
1404.058495072757 6053.132459736217
1404.8641765749107 6029.612215249482
1405.6696614421799 6151.624362011559
1406.4749497283356 6434.649934888495
1407.280041487129 5856.767088962788
1408.084936772295 5854.724339793277
1408.8896356375335 6152.564047645807
1409.6941381365323 6068.472277886781
1410.498444322955 5810.663449915751
1411.3025542504402 5930.620093642378
1412.106467972606 6006.507739140386
1412.9101855430508 5989.894396965322
1413.7137070153458 5722.709875009552
1414.5170324430437 5943.0384827127755
1415.320161879672 5946.171719780685
1416.1230953787435 6162.484475997694
1416.925832993742 5671.019317577939
1417.7283747781275 5717.999226542981
1418.5307207853439 5952.276201575334
1419.3328710688093 5914.699801896978
1420.134825681922 5704.399893004448
1420.9365846780584 5745.559760529679
1421.7381481105713 6037.285962801101
1422.539516032788 5850.748189590995
1423.3406884980232 5701.35394946846
1424.1416655595604 5688.726712965128
1424.942447270665 5809.293324257886
1425.7430336845828 5882.683436455727
1426.5434248545298 5575.326361218708
1427.3436208337116 5763.525491155708
1428.143621675301 5789.7545579020825
1428.9434274324558 6027.706806505063
1429.7430381583108 5601.710327679175
1430.5424539059713 5699.676803349907
1431.3416747285337 6186.198439355798
1432.1407006790632 5976.302462590574
1432.9395318106053 5808.750183105923
1433.7381681761835 5613.15722329253
1434.5366098288014 5869.014029684226
1435.3348568214424 5975.511097968797
1436.1329092070573 5676.0453738554625
1436.9307670385879 5785.079542533788
1437.7284303689503 5915.241612656753
1438.5258992510335 6045.717546066868
1439.3231737377118 5801.438674072404
1440.1202538818306 5764.846671336609
1440.9171397362225 5871.768271510014
1441.7138313536925 5840.735725689443
1442.5103287870243 5655.252238282167
1443.3066320889775 5601.773609715082
1444.1027413122956 5956.642276692744
1444.8986565096966 5708.040580878314
1445.694377733882 5653.925876381107
1446.4899050375207 5494.516296471242
1447.2852384732687 5669.572704432478
1448.0803780937622 5890.598943670891
1448.8753239516063 5479.490483738449
1449.6700760993954 5357.967271059378
1450.464634589689 5519.895256586168
1451.2589994750397 5905.480869640839
1452.0531708079689 5330.431085590807
1452.8471486409799 5355.666216716965
1453.6409330265524 5649.934104696544
1454.4345240171442 5453.436720891486
1455.2279216651987 5354.355287675009
1456.0211260231263 5333.274404820719
1456.8141371433194 5887.201869696407
1457.6069550781594 5652.211259833335
1458.3995798799897 5234.284975129468
1459.1920116011424 5249.856165938817
1459.98425029393 5109.21978959302
1460.7762960106338 5184.516681805301
1461.5681488035225 5238.31789194155
1462.3598087248392 5199.5266628748395
1463.1512758268036 5516.450125054873
1463.942550161617 5225.254065425958
1464.7336317814625 5097.519978210967
1465.524520738496 5248.579724722605
1466.3152170848552 5154.571078140317
1467.1057208726506 5246.8328205410435
1467.8960321539817 5093.52678002067
1468.6861509809169 5041.07218063626
1469.4760774055085 5091.940898372295
1470.265811479785 5159.574709880866
1471.055353255755 5014.3039671265
1471.844702785409 4971.952974313088
1472.6338601207044 4909.61820925774
1473.4228253135934 5156.04309741227
1474.2115984159936 4942.1062771731185
1475.0001794798063 4787.60498251358
1475.7885685569145 5084.131329882666
1476.576765699172 4988.9254887054785
1477.3647709584238 4867.775242565776
1478.1525843864802 5188.239481957223
1478.9402060351367 4983.069983235717
1479.7276359561693 5019.801619843536
1480.514874201328 4847.939100084533
1481.3019208223468 4687.45985582495
1482.0887758709323 4664.362918765391
1482.8754393987747 5065.026429778323
1483.6619114575406 4657.074281359219
1484.4481920988783 4787.876919332917
1485.2342813744108 4907.714687452746
1486.0201793357446 5119.6568556117745
1486.8058860344572 4713.176072711169
1487.591401522117 4764.212304002534
1488.3767258502594 4829.6578458747545
1489.1618590704056 4901.776954910967
1489.9468012340494 4556.226113815474
1490.7315523926754 4828.0764787484495
1491.5161125977356 5037.14214499311
1492.3004819006637 4837.876699879412
1493.084660352877 4651.364565715334
1493.8686480057622 4883.081313835126
1494.6524449106964 5141.854910695237
1495.4360511190262 5075.583266968061
1496.219466682087 4874.85977759789
1497.0026916511779 4854.360996883559
1497.7857260775945 4901.400907066047
1498.5685700125996 4937.7134086858705
1499.3512235074395 4623.898558857354
1500.133686613337 4645.171157145225
1500.9159593814966 4754.658401107039
1501.698041863101 5178.664407670865
1502.4799341093094 4591.681635780335
1503.2616361712662 4593.842973595068
1504.043148100087 4820.489862949116
1504.8244699468742 4865.527972765317
1505.6056017626997 4528.019967207363
1506.3865435986281 4654.797637517438
1507.1672955056893 4915.967094708937
1507.9478575348967 4617.33859351243
1508.7282297372512 4952.275492431327
1509.5084121637192 4853.825688115257
1510.2884048652577 4756.717142033913
1511.0682078927948 4787.508782329908
1511.8478212972423 4626.707314765214
1512.6272451294917 4579.285708384416
1513.4064794404076 4838.090909156742
1514.1855242808433 4766.133687847435
1514.9643797016215 4679.265895937732
1515.743045753552 4911.581286353392
1516.5215224874191 4829.6047810409245
1517.2998099539836 4442.195379457244
1518.077908203999 4652.822256159181
1518.8558172881785 4651.96200653278
1519.633537257234 4749.613189859307
1520.4110681618404 4792.137210652659
1521.1884100526604 4748.809135246933
1521.9655629803365 4668.218868733601
1522.7425269954856 4874.398735305552
1523.5193021487103 5120.023764439893
1524.2958884905856 4669.949358628086
1525.0722860716687 4669.739778381943
1525.848494942502 4720.991562552086
1526.624515153595 4778.98455905872
1527.4003467554485 4732.558294571926
1528.175989798534 4869.262748939631
1528.9514443333064 4782.767351833536
1529.726710410203 4931.903884973931
1530.5017880796331 4646.232536666352
1531.276677391992 4704.099611796292
1532.0513783976457 4990.814856257667
1532.825891146953 4817.898712197499
1533.6002156902414 4852.196573742505
1534.3743520778207 4769.690223510089
1535.1483003599806 4838.5995067899985
1535.9220605869923 4910.190177077167
1536.6956328091019 4831.64507530229
1537.4690170765407 4784.255723951743
1538.242213439511 4858.604265174413
1539.015221948208 4760.167990644937
1539.78804265279 4700.813881709009
1540.560675603405 4679.269619419249
1541.3331208501804 5036.975480843563
1542.1053784432224 5003.39607571617
1542.8774484326168 4806.9086086223515
1543.649330868422 4772.036985067492
1544.4210258006842 4834.98851438973
1545.1925332794308 4877.546301007917
1545.9638533546604 4843.611449854693
1546.7349860763552 4756.216960429242
1547.5059314944829 5101.381137735605
1548.27668965898 4893.217998084135
1549.0472606197673 4853.42803368448
1549.817644426752 4762.762884439513
1550.5878411298072 5031.126064584287
1551.3578507787988 4992.46034689077
1552.1276734235635 4750.42192108409
1552.8973091139233 4961.396300043763
1553.6667578996767 5074.4273529484435
1554.436019830604 4865.842019136662
1555.20509495646 4807.712687480037
1555.9739833269869 4802.994935099259
1556.7426849919011 4923.225959355646
1557.511200000903 5195.834566415871
1558.2795284036674 4950.924950255319
1559.0476702498509 4942.572600034174
1559.8156255890954 5138.4267941332
1560.5833944710157 5328.991374801595
1561.3509769452048 4893.930982885215
1562.1183730612447 5042.1554878784
1562.8855828686865 5097.558545854303
1563.6526064170703 5285.284367035052
1564.4194437559127 5226.367064282617
1565.1860949347047 4946.046324011248
1565.9525600029283 5346.790242680211
1566.7188390100328 5354.30749653742
1567.4849320054564 4960.206466068086
1568.250839038612 5084.690755619872
1569.0165601588997 5057.081863959941
1569.7820954156887 5224.865194652515
1570.5474448583373 4946.843027488198
1571.31260853618 4900.281807620304
1572.0775864985299 4867.112254900269
1572.8423787946813 5041.244018958477
1573.6069854739108 4882.8179746917585
1574.371406585471 4972.10266277124
1575.1356421785986 5094.304684940811
1575.899692302506 4875.537887236267
1576.6635570063845 5059.78821720077
1577.4272363394157 4920.462654920379
1578.190730350747 4862.783288661843
1578.9540390895163 5094.642408328327
1579.7171626048384 4678.661217947009
1580.480100945806 4748.212942396414
1581.2428541614918 4734.611437427057
1582.0054223009538 4904.965839479411
1582.767805413223 4868.010900679089
1583.5300035473156 4865.084119681398
1584.292016752228 4978.782421487473
1585.0538450769309 5087.779240806458
1585.8154885703807 4686.184837158168
1586.5769472815136 4705.958119546414
1587.3382212592405 4871.999575115878
1588.099310552463 5098.688044569613
1588.8602152100484 4890.000999292297
1589.6209352808564 4892.528751973456
1590.3814708137234 4761.708404675502
1591.14182185746 4822.707987925043
1591.9019884608679 4656.09473748405
1592.6619706727215 4509.633508190365
1593.4217685417734 4904.49371303899
1594.1813821167616 5011.70886178012
1594.9408114464022 4609.108059010448
1595.7000565793933 4642.283947122228
1596.459117564409 4835.997692717547
1597.2179944501113 4559.472791272377
1597.9766872851324 4498.318019516704
1598.735196118092 4711.897638205082
1599.4935209975883 4892.931932093775
1600.2516619721973 4875.692147168131
1601.0096190904787 4548.858134046563
1601.7673924009723 4578.754742096242
1602.524981952196 4521.628002782882
1603.2823877926476 4542.7343788582575
1604.0396099708087 4467.788500464671
1604.7966485351371 4249.267633643521
1605.5535035340745 4516.139445943022
1606.3101750160404 4802.52647377275
1607.0666630294363 4407.071789847281
1607.822967622642 4292.829474100682
1608.5790888440224 4573.878812876288
1609.3350267419137 4699.933552928987
1610.0907813646445 4549.6157017172045
1610.8463527605145 4422.306409282516
1611.601740977805 4610.614264038295
1612.356946064785 4385.790983765453
1613.1119680696902 4176.210825919779
1613.8668070407512 4363.832446161071
1614.6214630261748 4402.1949703488435
1615.375936074137 4606.871735818837
1616.1302262328118 4489.036890858944
1616.8843335503425 4389.780777867238
1617.638258074854 4383.589173927229
1618.391999854457 4554.490780712737
1619.1455589372363 4591.248469612449
1619.8989353712623 4456.326744476733
1620.65212920458 4233.05641666287
1621.4051404852235 4268.940932058695
1622.1579692611976 4458.1901965959405
1622.9106155804966 4074.0570012378644
1623.663079491087 4233.500032604543
1624.4153610409248 4384.7355709015355
1625.1674602779385 4271.862387531224
1625.9193772500403 4116.652177110718
1626.6711120051277 4650.161382998029
1627.4226645910676 4302.436627286718
1628.174035055721 4038.364995572876
1628.9252234469168 4308.450003161872
1629.676229812474 4187.9121244041135
1630.4270542001905 4583.660210945367
1631.1776966578382 4326.805906166082
1631.9281572331747 4153.486758989398
1632.678435973945 4386.783595326063
1633.4285329278573 4294.036094586371
1634.1784481426203 4037.1729888180525
1634.9281816659113 4218.734348126895
1635.677733545388 4435.3091618295
1636.4271038286934 4126.751570129793
1637.176292563452 4336.837529236779
1637.9252997972635 4171.546189440021
1638.674125577716 4238.134742821774
1639.4227699523672 4641.344179681585
1640.171232968767 3907.1116322422304
1640.9195146744423 4197.211833572759
1641.6676151168977 4474.099859597291
1642.4155343436178 4514.798955774484
1643.1632724020765 4189.1272580601835
1643.9108293397167 4164.063563192869
1644.658205203974 4091.6400679644275
1645.4054000422566 4750.133763278574
1646.1524139019566 4188.115238346103
1646.8992468304423 3919.306956777701
1647.6458988750728 4136.84059480779
1648.3923700831765 4133.666646581684
1649.1386605020743 4103.783379531783
1649.8847701790564 4309.895211590697
1650.6306991614038 4221.321077368621
1651.3764474963682 4289.437032521948
1652.1220152311944 3949.313806332997
1652.867402413096 4265.422393981945
1653.6126090892776 4270.008676758096
1654.3576353069184 4442.113560096712
1655.1024811131829 4212.802526700792
1655.8471465552066 4062.5286678192424
1656.5916316801213 4335.034337894234
1657.3359365350298 4251.3029146702975
1658.0800611670165 4120.205247033885
1658.824005623148 4089.7562998743415
1659.5677699504722 4020.9318870145426
1660.3113541960192 4262.612890785857
1661.054758406799 3996.017670275064
1661.7979826297997 3944.413114699837
1662.5410269119966 3908.7178218451068
1663.283891300338 4187.743885417299
1664.0265758417645 3999.437794318585
1664.7690805831826 4170.703565944249
1665.5114055714948 4242.390316408572
1666.2535508535748 4397.454098064797
1666.9955164762814 3843.265796828815
1667.7373024864555 4013.2015754644467
1668.478908930916 4040.4425940873844
1669.220335856462 3968.7177240950687
1669.9615833098778 3938.625144936284
1670.7026513379296 3820.226017726721
1671.44353998736 4021.8988516008676
1672.1842493048916 3928.50906387867
1672.9247793372379 3816.7263455767
1673.6651301310812 3974.686249010773
1674.4053017330934 3868.4564740795895
1675.1452941899242 3971.6488986873255
1675.885107548207 3474.3568843812764
1676.6247418545518 3538.099004315688
1677.3641971555535 3710.0803274792897
1678.1034734977893 3984.7429302331793
1678.8425709278108 3782.1142229300485
1679.5814894921605 3913.735068839969
1680.320229237359 3882.782087373278
1681.0587902098978 3889.7235271668897
1681.7971724562685 3635.16406591158
1682.5353760229264 3529.345254585205
1683.2734009563173 3765.1111576502467
1684.0112473028657 3518.55390504922
1684.7489151089794 3716.4252402945544
1685.4864044210462 3762.962008097152
1686.2237152854377 3321.0853499710406
1686.960847748498 3857.50748888668
1687.6978018565642 3419.0286806886666
1688.434577655944 3445.190433435874
1689.1711751929379 3296.0014836812893
1689.9075945138156 3564.0231758133823
1690.6438356648396 3379.8321984845415
1691.3798986922448 3179.2189594402994
1692.1157836422499 3465.077325794543
1692.851490561059 3322.0989171863343
1693.587019494853 3332.45942662061
1694.3223704897991 3050.807750431413
1695.0575435920364 3146.6814880085108
1695.792538847696 3706.193327554647
1696.527356302886 3253.56790406588
1697.2619960036936 3032.1741647879367
1697.9964579961907 3107.510736941394
1698.730742326432 2846.42832104014
1699.4648490404488 2921.8772773033306
1700.1987781842563 3078.0386621667376
1700.9325298038548 3337.778760540075
1701.6661039452174 3358.8292533422064
1702.3995006543082 3136.4036311407585
1703.1327199770658 3291.2252541311946
1703.865761959416 2642.5659582374783
1704.598626647261 3271.8525380888373
1705.3313140864866 2993.4127474588713
1706.0638243229587 2966.526339479265
1706.7961574025303 3221.2713282326686
1707.528313371029 3064.6919534653894
1708.260292274268 2829.445022447343
1708.9920941580403 3045.9463729521444
1709.7237190681226 3115.3664890782757
1710.4551670502697 3004.834026249483
1711.18643815022 2717.0483665827915
1711.9175324136959 2818.2188729254344
1712.6484498863938 2919.567610568597
1713.379190614005 2771.5859222327626
1714.109754642188 2789.136186914354
1714.8401420165883 2835.1643932371203
1715.570352782839 3166.2321343390095
1716.3003869865497 3056.7005160570297
1717.0302446733076 2724.305906962666
1717.7599258886876 2901.9753292252185
1718.4894306782444 3199.2954920781203
1719.2187590875183 2713.6163192917293
1719.9479111620203 3147.2302294336523
1720.6768869472544 2712.246134788249
1721.4056864887025 3160.0888173913877
1722.1343098318284 3127.6007587437443
1722.8627570220742 2887.300215323211
1723.591028104871 2703.607254016887
1724.3191231256242 2638.2303554972723
1725.0470421297232 2638.014235904023
1725.7747851625427 2930.309677148812
1726.5023522694337 2885.4477261587026
1727.2297434957363 2940.5191571436476
1727.9569588867635 2635.988268826148
1728.6839984878152 2971.35818154748
1729.4108623441734 2514.9968400616826
1730.1375505011038 2928.06713729789
1730.8640630038426 2596.3723769780754
1731.5903998976264 2768.1505992444154
1732.316561227657 2914.8839838590375
1733.0425470391274 2599.1410091117305
1733.7683573772065 2821.5524058271426
1734.4939922870508 2763.4203475500553
1735.2194518137949 2721.801498063326
1735.9447360025606 2775.122649095835
1736.669844898439 2718.585468224456
1737.3947785465189 2607.5478498512066
1738.1195369918605 2595.3541231065533
1738.8441202795093 2747.2552499676262
1739.5685284544943 2823.4517664241
1740.292761561821 2815.3855321923065
1741.0168196464838 2841.6374657518613
1741.7407027534518 2876.291882370231
1742.464410927687 2866.530279852166
1743.187944214118 2768.6016889852835
1743.9113026576688 2663.01298753482
1744.634486303241 2631.2094877734917
1745.3574951957125 2690.2831608504694
1746.0803293799509 2841.229123208404
1746.8029889008048 2663.635006254397
1747.5254738031017 2800.4399736937457
1748.2477841316504 2567.026797243751
1748.969919931249 2644.5632666465085
1749.6918812466665 2661.1372757673284
1750.4136681226646 2855.066454142338
1751.1352806039777 2618.485943945513
1751.856718735331 2357.4405654290044
1752.5779825614281 2554.9727220306427
1753.2990721269507 2796.5785116811544
1754.0199874765676 2671.3121032035815
1754.7407286549314 2499.732803880589
1755.4612957066693 2646.745437651893
1756.1816886763954 2489.244348862925
1756.9019076087097 2764.9826620724407
1757.6219525481865 2744.3746905828866
1758.3418235393856 2664.710045545198
1759.061520626854 2637.9646010560828
1759.7810438551096 2848.424267951844
1760.5003932686614 2490.687830077712
1761.2195689119999 2843.939202254192
1761.938570829594 2735.4837734991365
1762.657399065898 2631.787963786169
1763.376053665348 2403.25106928899
1764.0945346723602 2445.0183260527606
1764.812842131334 2767.8823601623258
1765.5309760866512 2453.6988741581763
1766.2489365826787 2370.015013254463
1766.9667236637597 2589.1964484135333
1767.684337374223 2361.2135051361047
1768.401777758383 2422.155295782674
1769.1190448605284 2432.676953537406
1769.836138724937 2355.368714527494
1770.5530593958665 2581.678710477799
1771.2698069175603 2770.394282885035
1771.9863813342326 2620.0881523483035
1772.702782690094 2458.1860834935374
1773.4190110293293 2770.4945902256513
1774.1350663961111 2779.422756712995
1774.8509488345844 2410.7190122428133
1775.5666583888924 2641.71077844347
1776.2821951031437 2814.5732866600474
1776.9975590214362 2401.505346273184
1777.7127501878585 2792.0561740239614
1778.4277686464684 2709.2244537523693
1779.1426144413108 2803.530961232736
1779.8572876164162 2752.1940632979467
1780.571788215797 2442.435092150127
1781.2861162834415 2502.6580685487697
1782.0002718633277 2449.646950854334
1782.7142549994132 2612.3078052008277
1783.4280657356376 2609.9714124082157
1784.141704115922 2511.4759574161694
1784.855170184177 2453.806875180116
1785.5684639842839 2617.2634184535855
1786.2815855601148 2250.454958535847
1786.9945349555237 2585.4130683947287
1787.707312214343 2392.2091343495617
1788.4199173803918 2844.736129369245
1789.132350497468 2376.8659164477594
1789.8446116093583 2462.861183349976
1790.556700759822 2445.1751969936336
1791.2686179926077 2467.4210270402464
1791.9803633514493 2493.0186237980747
1792.6919368800554 2296.8217395602546
1793.4033386221236 2551.622743271907
1794.1145686213295 2611.5806776289783
1794.8256269213307 2638.8931492072397
1795.536513565774 2523.7225045301284
1796.247228598284 2243.505340418168
1796.9577720624693 2208.081876456121
1797.6681440019165 2479.8236131910494
1798.3783444602013 2489.695813162979
1799.0883734808776 2552.989537219959
1799.7982311074884 2540.4574163199895
1800.5079173835475 2556.6101032246165
1801.2174323525633 2552.8224833653503
1801.9267760580187 2439.0454877059938
1802.635948543386 2548.1230018505503
1803.3449498521113 2354.598693058192
1804.0537800276325 2472.7287769997506
1804.7624391133668 2412.9848316487523
1805.47092715271 2220.6355652699394
1806.1792441890484 2334.829532367573
1806.8873902657433 2541.321318416424
1807.5953654261448 2393.68138367387
1808.3031697135812 2359.6803255470154
1809.0108031713662 2226.6915225824177
1809.71826584279 2442.8788695284206
1810.425557771141 2325.4417924909753
1811.1326789996747 2335.594736731373
1811.839629571632 2345.631495205179
1812.5464095302468 2386.8229412208734
1813.2530189187182 2446.3026859892093
1813.959457780249 2359.7110639590996
1814.6657261580076 2630.371566349303
1815.371824095153 2434.345984861978
1816.0777516348262 2647.67605201411
1816.78350882015 2037.7673685070793
1817.4890956942272 2111.5730664150847
1818.1945123001533 2341.191153045195
1818.8997586809928 2409.4887428424045
1819.6048348798067 2322.865821832781
1820.3097409396287 2401.2519906755574
1821.0144769034796 2772.3548027849533
1821.7190428143622 2596.561475746263
1822.423438715261 2540.5101631245075
1823.1276646491478 2262.5802874229184
1823.8317206589727 2479.1160486632334
1824.5356067876692 2494.8678599348063
1825.2393230781581 2413.080411291848
1825.942869573335 2104.2681026407586
1826.646246316086 2240.081888320373
1827.3494533492758 2459.2258322897105
1828.052490715756 2506.921033564059
1828.7553584583547 2431.0201150662806
1829.458056619891 2501.5876548884294
1830.1605852431585 2335.720690766067
1830.8629443709433 2221.2120460408514
1831.5651340460063 2302.1952465693676
1832.2671543110919 2201.298934015639
1832.9690052089318 2459.730584070129
1833.6706867822395 2075.56467683918
1834.3721990737104 2449.483978742541
1835.0735421260233 2495.5013881464697
1835.774715981841 2305.1251620764137
1836.4757206838058 2562.9775028370123
1837.1765562745459 2319.10059616741
1837.8772227966747 2267.1933614196478
1838.5777202927839 2330.721346707126
1839.2780488054523 2323.376529224132
1839.9782083772352 2195.6565867407567
1840.6781990506806 2251.83406997047
1841.378020868313 2308.0331104464444
1842.0776738726418 2317.3724168988783
1842.777158106157 2304.3325098017212
1843.4764736113375 2207.2324344266535
1844.1756204306403 2400.57316280125
1844.8745986065078 2411.2234630722205
1845.5734081813607 2053.667318460338
1846.2720491976124 2269.4730297960296
1846.970521697649 2105.485198274725
1847.6688257238511 2435.882171590888
1848.3669613185684 2268.7972098845767
1849.0649285241452 2118.3692726828313
1849.7627273829057 2384.849002721008
1850.460357937156 2346.9995374514524
1851.1578202291857 2001.2209536237472
1851.8551143012664 2268.345777976968
1852.5522401956569 2381.7155380183494
1853.2491979545957 2446.5036478262427
1853.9459876203055 2136.271125989896
1854.6426092349902 2243.2108547502053
1855.3390628408451 2266.0714212981134
1856.0353484800362 2507.453666110886
1856.7314661947203 2439.388065573129
1857.4274160270397 2118.1265671493434
1858.123198019115 2270.2698006364867
1858.8188122130487 2134.466489821426
1859.5142586509319 2107.562875585529
1860.209537374838 2234.0218648421273
1860.9046484268183 2137.7168442459415
1861.599591848917 2536.0570633465927
1862.294367683151 2344.215048566909
1862.988975971528 2213.773818863147
1863.6834167560355 2348.4690458909668
1864.3776900786452 2489.4314364436036
1865.0717959813119 2227.208489894564
1865.7657345059724 2093.6748932658556
1866.4595056945564 2478.270957271959
1867.1531095889586 2417.3359005655316
1867.846546231076 2047.8987088025747
1868.5398156627743 2457.2230522635386
1869.2329179259123 2186.2133291886466
1869.9258530623283 2556.9590137455807
1870.618621113843 2164.5067487659917
1871.3112221222636 2068.8484928439043
1872.0036561293764 2115.256203046302
1872.695923176956 2298.803834892524
1873.3880233067594 2472.0498237625943
1874.0799565605212 2129.723119414628
1874.7717229799673 2155.1473612666964
1875.4633226068036 2468.9516791184974
1876.1547554827175 2410.947727359685
1876.8460216493859 2228.347519396457
1877.5371211484617 2258.4454441779267
1878.2280540215852 2538.892379162055
1878.9188203103804 2006.234373368055
1879.6094200564548 2260.290227280648
1880.299853301396 2138.794011309235
1880.9901200867826 2404.8194078734914
1881.6802204541673 2355.1160997064867
1882.3701544450942 2364.836033265721
1883.059922101087 2089.095865021181
1883.7495234636517 2126.596953290838
1884.4389585742792 2164.114411455683
1885.1282274744517 2183.3874797757817
1885.8173302056166 2266.8714470433238
1886.506266809225 2350.470391457414
1887.195037326701 1997.6120697800623
1887.8836417994517 2134.8124821930587
1888.5720802688702 2557.4770537878653
1889.260352776333 2445.748471051303
1889.9484593632042 2468.227757548788
1890.63640007082 2240.7644390090722
1891.3241749405151 2185.18119071278
1892.0117840135954 2292.9087323869812
1892.6992273313572 2214.864768662026
1893.3865049350788 2031.4769901107843
1894.0736168660223 2597.3299356149587
1894.7605631654333 2435.436165987113
1895.4473438745408 2012.735153617855
1896.133959034556 2573.217188989739
1896.820408686679 2382.6219270384204
1897.506692872088 2521.2777846814233
1898.192811631945 2342.942437952667
1898.8787650073991 2067.701602570686
1899.5645530395832 2315.0106102168625
1900.2501757696118 2488.5428187458897
1900.9356332385796 2077.346891540792
1901.620925487574 2604.8537042405464
1902.3060525576602 2309.586802826606
1902.9910144898859 2229.18328463588
1903.6758113252872 2121.4747471851774
1904.3604431048789 2303.9700296476726
1905.0449098696663 2360.266696410357
1905.7292116606295 2089.2315797550505
1906.4133485187394 2297.923209381161
1907.0973204849488 1942.9814817138188
1907.7811276001976 2017.3570079048652
1908.4647699053967 2116.5547539047393
1909.1482474414588 1730.7631457766806
1909.8315602492694 2055.5024040509898
1910.5147083696957 2380.7233245588222
1911.1976918436012 2196.064554305355
1911.880510711815 2051.4837685690586
1912.5631650151681 2031.8359172299017
1913.2456547944657 2012.1034225534415
1913.927980090495 2132.490282773269
1914.6101409440362 2197.6779431473115
1915.2921373958416 2327.6264725697
1915.9739694866603 2164.83008873725
1916.655637257214 2440.2279035895635
1917.3371407482136 2102.3849670396785
1918.0184800003572 2491.1565092181163
1918.6996550543154 2492.966309416488
1919.3806659507554 2272.0468500506454
1920.0615127303208 2227.0733629535416
1920.7421954336423 2585.9302581927377
1921.4227141013343 2435.871885717324
1922.103068773993 2329.308893588158
1922.783259492202 2492.427481214422
1923.4632862965227 2118.765919623339
1924.1431492275078 2164.795004320259
1924.8228483256917 2070.268277378874
1925.5023836315922 2137.991882704625
1926.1817551857057 2304.840212329592
1926.8609630285227 2472.0447843009797
1927.5400072005123 2355.4149848913976
1928.218887742125 2087.110493013459
1928.8976046938005 2026.375505223811
1929.5761580959588 2294.7685633978667
1930.2545479890086 2262.574212148528
1930.9327744133352 1821.6208357051964
1931.6108374093164 2207.6543873858705
1932.2887370173066 2060.0224358591945
1932.9664732776473 1911.9950436328331
1933.6440462306673 2132.2499770464824
1934.3214559166754 2186.5579958613303
1934.9987023759659 2516.2515912714084
1935.675785648813 2480.0378051130792
1936.3527057754836 2522.440677510156
1937.029462796223 2564.9596339451596
1937.70605675126 2162.948921636485
1938.3824876808085 2115.872927380372
1939.058755625072 2165.8718584151165
1939.7348606242267 2076.8251350666173
1940.4108027184448 2206.1654586646614
1941.0865819478713 2365.424062209719
1941.7621983526478 2058.176134030329
1942.4376519728921 2025.0835967267453
1943.1129428487038 2232.5512854223125
1943.7880710201734 2381.8760940307648
1944.4630365273733 2248.9433651979175
1945.1378394103576 2026.1935906250346
1945.8124797091714 1983.9447974644659
1946.4869574638324 1941.5427408239043
1947.161272714353 2157.5562798688047
1947.8354255007234 2310.187226565656
1948.5094158629272 2169.2338716135214
1949.1832438409183 2335.637991454088
1949.8569094746435 2390.0166345604816
1950.530412804037 2497.787575159214
1951.2037538690092 2356.457335077534
1951.8769327094578 2121.6444145725045
1952.5499493652678 2165.2374338157697
1953.222803876306 2483.0454235893094
1953.895496282421 2163.7938582363377
1954.5680266234522 2301.6869283465876
1955.2403949392155 2309.0816586473916
1955.9126012695142 1990.7057422165285
1956.5846456541403 2208.5953784430485
1957.2565281328643 2065.5135634268395
1957.9282487454457 2350.27306910922
1958.5998075316202 2273.744572909248
1959.27120453112 2096.4067780911655
1959.9424397836501 2165.6475982643633
1960.613513328908 2235.028367628425
1961.2844252065697 2079.8771142704963
1961.9551754563017 1924.421573888896
1962.6257641177453 1986.7380126587145
1963.29619123054 2016.605293518649
1963.966456834296 2010.01256950303
1964.6365609686181 1817.3097113431772
1965.306503673086 2214.221401254799
1965.976284987275 2025.2346466154552
1966.645904950734 2191.8805628006235
1967.315363603002 1899.9839712561607
1967.9846609836077 2108.9903254973474
1968.6537971320486 2109.7849217623625
1969.3227720878222 2256.626450858659
1969.9915858904042 2002.502607385079
1970.660238579252 2361.839372658907
1971.3287301938108 2104.789197021096
1971.997060773514 2133.5161252611747
1972.665230357772 1930.9797849601891
1973.3332389859843 2022.5029617413704
1974.0010866975335 1810.086748625628
1974.6687735317864 2221.3329101995323
1975.3362995280932 2271.9120424533385
1976.003664725793 2175.420564074212
1976.6708691642052 1760.423728853993
1977.3379128826364 2045.20712227453
1978.004795920373 2282.431714322085
1978.6715183166925 2004.2947490056436
1979.3380801108524 2277.0642141603353
1980.0044813420973 2065.980885344646
1980.6707220496555 1869.7218343519858
1981.3368022727373 2063.8565357391803
1982.0027220505417 2225.4767689739997
1982.66848142225 1816.2662061140109
1983.3340804270283 1921.1582790094376
1983.999519104027 2173.6912242015746
1984.6647974923835 2250.1502035939875
1985.329915631215 2391.025558459232
1985.99487355963 1973.0743243740294
1986.6596713167146 2412.689383566805
1987.3243089415428 2012.9276242634096
1987.9887864731754 2378.605452112747
1988.6531039506553 1951.7964524357744
1989.3172614130071 1917.6142459042335
1989.9812588992481 1883.4032034080763
1990.645096448372 1697.923180692786
1991.3087740993633 2080.187115302732
1991.9722918911848 2033.4551358824124
1992.635649862792 2122.5955024533887
1993.2988480531185 2188.5925001870546
1993.9618865010852 2538.371240536636
1994.6247652455968 2056.682719874839
1995.287484325545 1894.928423011223
1995.9500437798033 1914.4190799905882
1996.6124436472292 1933.0104207593072
1997.2746839666706 2286.9582598501215
1997.936764776954 1971.4546557083152
1998.598686116895 1954.3575191453772
1999.2604480252903 2362.8967824638885
1999.9220505409212 2302.9484070162507
2000.5834937025593 1821.2042467661645
2001.2447775489582 2026.8413184952647
2001.9059021188514 2118.374211772811
2002.5668674509616 1868.6149411237645
2003.2276735839987 2037.2128638726767
2003.8883205566508 2355.654998230956
2004.5488084075987 2220.861372721328
2005.2091371755014 2059.0178101403444
2005.8693068990033 1891.8604967738197
2006.5293176167397 1866.9787201827894
2007.1891693673224 1842.2230917115062
2007.848862189354 1944.6818731143514
2008.5083961214223 2002.8601869357037
2009.1677712020955 1964.6091223981796
2009.8269874699254 1883.7134403016917
2010.4860449634598 1894.4629361603807
2011.1449437212177 1905.3522881747353
2011.8036837817108 2327.1653678124426
2012.4622651834325 2287.619945892524
2013.1206879648653 2202.972761746061
2013.7789521644736 1980.0584227940824
2014.4370578207036 2262.270753398546
2015.0950049719922 2027.6946067384695
2015.7527936567585 2281.748226525786
2016.4104239134067 1958.7029903017876
2017.067895780323 2543.278561053786
2017.725209295886 1769.352839000243
2018.3823644984514 2358.3714360589156
2019.0393614263648 2159.7749515462197
2019.6962001179545 2025.4902288265089
2020.3528806115355 2322.1759482400994
2021.0094029454067 2136.562323135054
2021.6657671578487 1887.468488084897
2022.321973287133 2030.2350865928613
2022.9780213715148 1925.026527523601
2023.6339114492293 2121.0267919042576
2024.2896435585026 2000.8302343368098
2024.9452177375442 2060.058339348513
2025.600634024544 2317.9082371635564
2026.2558924576842 2238.722662567706
2026.9109930751292 2328.0257654930947
2027.565935915025 2134.845988163785
2028.2207210155066 2384.8745520193224
2028.8753484146964 2430.220689801531
2029.529818150695 2323.7107338413407
2030.1841302615903 2216.7053448146403
2030.8382847854573 2005.952406773426
2031.4922817603601 2115.9711534590274
2032.1461212243357 2101.1722186574316
2032.7998032154192 1879.9162952646354
2033.4533277716218 2017.9848239012547
2034.1066949309443 1962.7247215048926
2034.7599047313688 1831.3168957804544
2035.4129572108704 2217.9205455923247
2036.0658524074006 2142.5001290979026
2036.7185903589016 2011.878780349786
2037.3711711032956 2244.0526502911566
2038.023594678496 2009.7812686895275
2038.675861122394 1886.8894963669802
2039.3279704728757 2252.9402011623038
2039.9799227678031 1869.0389711702944
2040.6317180450278 2024.4302724099111
2041.2833563423865 2003.7126732684574
2041.9348376977014 2348.7365492420613
2042.5861621487784 2249.2229473207494
2043.2373297334088 2084.666189795048
2043.8883404893695 2169.4910319750406
2044.5391944544208 2214.0737382864854
2045.1898916663158 2288.698255920678
2045.8404321627804 2444.897931127839
2046.4908159815368 1931.6259446683412
2047.1410431602853 1840.9667769059681
2047.7911137367173 1938.3807850819874
2048.441027748504 2190.5527494417247
2049.090785233302 1964.940144774855
2049.7403862287592 1987.1448774357225
2050.389830772503 1861.1572532672458
2051.0391189021466 1735.1036038038224
2051.688250655294 2216.0209160013555
2052.337226069527 1872.0449246606033
2052.986045182417 2235.742424295281
2053.634708031521 2212.667425164244
2054.283214654375 2189.704682839444
2054.931565088511 1858.7602505103234
2055.579759371436 1775.6849486139067
2056.2277975406523 2101.52599966047
2056.8756796336384 2235.4057898424353
2057.5234056878617 1760.2965257570365
2058.1709757407752 1843.7742250483643
2058.8183898298194 2341.610414472027
2059.465647992416 2269.6090823379345
2060.1127502659747 2295.983831573033
2060.759696687888 1906.4123237195126
2061.4064872955405 2126.4875337146796
2062.053122126292 1893.8845723190122
2062.699601217497 2183.383385489485
2063.345924606485 1987.2354742125128
2063.992092330587 1959.5434875348951
2064.638104427102 1824.1073882031683
2065.283960933324 2340.271251371882
2065.92966188653 2183.380369117876
2066.5752073239855 2016.716964588971
2067.2205972829397 1849.9231743297855
2067.86583180062 2097.525161880714
2068.5109109142522 2075.7220718203566
2069.15583466104 2023.1863200833582
2069.8006030781708 1804.3344915853074
2070.445216202821 1912.2665709575608
2071.089674072153 2268.7731165654122
2071.7339767233116 2260.679957537566
2072.3781241934303 2022.1322690490713
2073.0221165196253 2192.046883888902
2073.6659537390024 1881.4008352783508
2074.3096358886505 2218.4013232407956
2074.953163005637 2010.4873398853929
2075.596535127028 1707.4123262300825
2076.2397522898664 1939.7602404664667
2076.882814531182 2068.1675122499964
2077.5257218879924 2227.6853410599388
2078.1684743973 1858.6112281173132
2078.8110720960885 1858.6164096144046
2079.453515021336 1950.4541475123995
2080.095803209997 2042.34486613453
2080.7379366990135 1903.1802706468693
2081.37991552532 2248.0903844327713
2082.0217397258275 2173.2568078703
2082.6634093374414 1708.033546137744
2083.3049243970418 2061.5189721909437
2083.9462849415067 2316.418282521115
2084.587491007689 2118.468448871339
2085.2285426324324 2019.6769330814727
2085.869439852564 2002.8803491534
2086.510182704902 1846.1823017197628
2087.1507712262483 2098.9708934889895
2087.791205453381 2141.891369617161
2088.4314854230743 2184.8358391938077
2089.0716111720867 2076.3879392947974
2089.7115827371617 1769.1877501808872
2090.351400155023 1818.9526129835067
2090.991063462385 1868.8983708813703
2091.6305726959527 1722.8174942740745
2092.2699278924047 1839.4061750999895
2092.9091290884153 1956.3093255057513
2093.548176320641 1780.8606676303364
2094.187069625721 2124.3183417001137
2094.8258090402887 2161.7741709708125
2095.464394600951 2199.3147947168827
2096.102826344313 2161.845093413394
2096.741104306955 2186.5657405114
2097.379228525453 1857.3660112032453
2098.017199036358 2060.1657048523457
2098.6550158762147 1850.875634307191
2099.2926790815527 2110.119938462945
2099.9301886888825 2015.5380992481835
2100.5675447347076 1940.827002017018
2101.2047472555114 2226.970776393996
2101.841796287761 2119.1378515462325
2102.47869186792 2035.994684607595
2103.1154340324265 1900.445231083333
2103.752022817709 1897.7606379312406
2104.388458260184 1912.9349441937816
2105.024740396251 2084.239618043344
2105.660869262292 1944.6446970374247
2106.296844894685 1992.8407575713766
2106.93266732978 2041.1965543717556
2107.5683366039284 1740.8079722109833
2108.2038527534532 2047.327139993032
2108.8392158146726 2223.85349166385
2109.4744258238843 2045.2477743669763
2110.1094828173755 1958.8431903298265
2110.744386831422 2467.2732950258724
2111.3791379022787 2187.085468561223
2112.01373606619 2502.77486926654
2112.648181359389 2143.3008389793567
2113.28247381809 2060.1256274277703
2113.916613478492 2180.3414527979376
2114.550600376786 2100.456581287996
2115.1844345491445 1936.4073641713996
2115.818116031729 1829.0520466199857
2116.451644860679 1872.3764362731988
2117.085021072133 1760.8610627182447
2117.718244702204 1858.9257531545718
2118.3513157869984 1729.9040621424615
2118.984234362604 1804.7167571078658
2119.617000465092 1763.360580614982
2120.249614130529 2210.4132988954743
2120.8820753949585 1951.166593135964
2121.5143842944162 1788.4461449229598
2122.14654086492 1871.0502660463674
2122.7785451424734 2256.2369795577165
2123.4103971630702 2190.4681012946144
2124.042096962681 2124.7872807793824
2124.6736445772767 2144.833506208722
2125.305040042802 1753.857022635983
2125.936283395191 2050.522209961568
2126.567374670365 2117.590274694119
2127.198313904233 1838.7874154839405
2127.8291011326855 1822.2037254209968
2128.4597363916037 1805.3687979607814
2129.0902197168507 1880.3015149861822
2129.720551144279 1736.1952822085836
2130.3507307097225 2355.008592732943
2130.980758449008 2390.160404348259
2131.6106343979427 2373.490646905735
2132.2403585923203 2356.679256743652
2132.8699310679276 2251.7837111889457
2133.499351860526 2159.230862742435
2134.1286210058715 1952.9179903151082
2134.7577385397053 2165.7640148344553
2135.3867044977487 2378.93899671845
2136.0155189157176 2371.6590627397713
2136.644181829308 2258.092338958143
2137.2726932742025 2004.1542313230839
2137.901053286074 1877.219649948857
2138.5292619005777 1750.155769884484
2139.1573191533535 1811.9922854727752
2139.7852250800315 2200.9008684856663
2140.4129797162295 1973.873403835154
2141.0405830975433 1733.8582324463841
2141.6680352595613 1789.0971954477732
2142.2953362378576 1844.4623535645856
2142.9224860679915 1920.7976504027097
2143.549484785508 1851.8589382435064
2144.1763324259373 1923.2817157432964
2144.803029024799 1898.4917887984461
2145.429574617594 1798.7396699850458
2146.0559692398165 1984.2671572409095
2146.682212926942 1771.091210563378
2147.308305714432 2007.4132023468105
2147.9342476377333 2265.5388807735717
2148.5600387322847 2583.723745462096
2149.185679033506 2051.772003150018
2149.8111685768017 1840.3562117246559
2150.4365073975678 1843.0248112560446
2151.061695531187 1805.0580351879166
2151.686733013021 2236.019586858909
2152.311619878423 2175.662095847024
2152.9363561627342 1801.5832915177466
2153.560941901278 1752.1410647672517
2154.1853771293663 2102.6111336152126
2154.809661882293 2004.1726145196312
2155.433796195348 2383.13730749664
2156.0577801037944 1722.5770369644083
2156.681613642895 2366.191356312599
2157.3052968478896 1784.4416275467252
2157.928829754006 2092.6112539215783
2158.552212396462 2098.597068229628
2159.1754448104566 2134.356756731862
2159.7985270311783 1582.7945175516072
2160.4214590938027 1479.4185856503816
2161.0442410334927 1527.0147451471128
2161.6668728853874 1680.7146313384897
2162.289354684628 1834.75992163433
2162.911686466332 1876.5455016648932
2163.533868265602 1980.5330425671941
2164.1559001175337 2345.1481797329343
2164.7777820572046 1979.9686552988846
2165.399514119681 1930.8939422331882
2166.021096340013 1681.6451680599062
2166.6425287532384 2212.176096026719
2167.263811394385 1755.9938676455472
2167.8849442984574 2177.0627058609107
2168.505927500455 1691.66516520067
2169.126761035366 2077.405349181174
2169.7474449381552 1855.192536665329
2170.367979243778 1585.4253383709245
2170.9883639871823 2267.7862018587202
2171.608599203293 1663.2840516405188
2172.2286849270276 2481.6590489258706
2172.8486211932886 2436.2734606306103
2173.4684080369625 2104.748752898623
2174.0880454929265 1610.029767688009
2174.7075335960417 1514.2849909923652
2175.3268723811543 1623.3028477359508
2175.9460618831 1732.6183040939536
2176.565102136701 1962.9139533626999
2177.1839931767627 1936.2809048003378
2177.802735038078 1909.6052798998699
2178.421327755432 1652.5522524078194
2179.0397713635866 1796.013204651319
2179.658065897298 1822.3283513603012
2180.276211391305 1984.9231615852727
2180.8942078803357 1965.8546892006375
2181.5120553991 2181.0540189224384
2182.129753982299 1722.2144014680384
2182.7473036646206 1955.0350394239854
2183.3647044807367 1978.7786918254685
2183.9819564653044 1624.5592076176208
2184.599059652968 1856.9107044316665
2185.216014078367 2027.8092933916973
2185.832819776113 2101.1711418352347
2186.4494767808137 2174.5869069124733
2187.065985127063 1688.3102950723921
2187.682344849436 1664.219188692939
2188.298555982501 1907.0725407780242
2188.9146185608097 2150.2221981343882
2189.530532618901 2138.369085342375
2190.1462981912937 2027.2728101881698
2190.761915312507 2034.4192546355941
2191.377384017036 1957.240535200282
2191.9927043393654 1918.1749400896156
2192.6078763139667 2173.7948087920204
2193.2228999753006 1641.3234807553715
2193.837775357808 1881.5424977467906
2194.452502495922 1676.83195366816
2195.0670814240602 1885.381154937521
2195.6815121766285 1689.8325522578339
2196.2957947880186 1651.7287054923977
2196.9099292926057 1613.5536870557266
2197.523915724758 2004.4463560334527
2198.137754118825 1747.7283163010156
2198.7514445091456 2302.377000583004
2199.3649869300443 1704.7411346364177
2199.9783814158327 2423.8070615696097
2200.5916280008096 2421.237131852828
2201.2047267192593 2156.9518407795713
2201.8176776054515 1810.2138992986736
2202.430480693649 1734.7647255564436
2203.0431360180955 2076.2356248494775
2203.6556436130195 2063.654805316685
2204.268003512645 1961.1954574625524
2204.8802157511727 1858.5431373613562
2205.492280362796 2205.128872657037
2206.1041973816937 1912.965819750039
2206.715966842032 1997.0965013482066
2207.3275887779655 2020.9937507983195
2207.93906322363 2070.0633693712816
2208.550390213153 2076.73217851583
2209.1615697806465 2129.5585944576324
2209.7726019602105 1719.60161144478
2210.3834867859277 1674.2240927734256
2210.9942242918787 1724.5767494314628
2211.6048145121167 1779.0512376545298
2212.2152574806914 2759.1609442393137
2212.825553231638 1732.4816641223756
2213.435701798975 2753.2158279275613
2214.045703216707 1952.3499134639762
2214.655557518832 1578.4384417064612
2215.2652647393297 1686.1755151814748
2215.874824912169 1899.3837856424605
2216.4842380713 2113.284464436261
2217.09350425067 1593.813025595477
2217.7026234842033 2245.353856269953
2218.311595805819 2199.6884754038942
2218.9204212494133 1938.184380333274
2219.52909984888 2393.5511885595633
2220.137631638092 2295.9292036605975
2220.7460166509154 2197.9595573520955
2221.354254921198 1748.400721573514
2221.9623464827764 2011.235417195078
2222.5702913694713 1978.6231536874875
2223.178089615096 1857.5275730999133
2223.7857412534486 1736.2070039145824
2224.39324631831 1448.2686971606392
2225.000604843457 1720.638065708678
2225.607816862641 2055.4645807860843
2226.214882409611 2002.2323578200176
2226.8218015180973 2223.3865940287346
2227.4285742218217 1947.1717763665042
2228.0352005544864 1829.6703403856761
2228.6416805497847 1604.8049600615327
2229.248014241399 1760.6537707162329
2229.8542016629945 1586.2037150666351
2230.460242848223 1953.972401779564
2231.0661378307304 1732.3651976624194
2231.671886644139 1510.544619625808
2232.277489322065 1557.9811507878735
2232.8829458981127 1356.9051984410191
2233.48825640587 2000.7589851995624
2234.0934208789095 2511.5432104439874
2234.6984393507955 2084.978247000745
2235.3033118550793 1972.734185734039
2235.9080384252975 1723.2788120615357
2236.5126190949723 1655.9915241139329
2237.1170538976166 1759.5841764594916
2237.721342866729 1575.323558209465
2238.32548603579 1772.707129632507
2238.9294834382763 1851.7613543203538
2239.533335107646 1892.8072351637907
2240.1370410773434 1873.7558064052876
2240.740601380803 1643.272156287639
2241.3440160514474 2036.8475124336449
2241.9472851226783 2023.7951688052294
2242.550408627896 1969.5516952898047
2243.1533866004793 2190.6721032250816
2243.756219073799 1856.4658138493537
2244.3589060812064 1809.405805773543
2244.961447656049 1561.4573569562785
2245.5638438316564 1846.6838410362063
2246.166094641343 1983.0638738455316
2246.7682001184166 1632.5323493006929
2247.3701602961664 1717.1599481034305
2247.971975207871 1855.3748040039325
2248.5736448867974 2186.9123690979327
2249.175169366197 1848.4981502276798
2249.7765486793123 1864.9935913675897
2250.3777828593684 1897.7706685413182
2250.9788719395783 1884.2727260715358
2251.579815953146 1879.596781484905
2252.1806149332606 1874.8295922528712
2252.781268913097 1996.9254369498008
2253.381777925817 2042.9523199422933
2253.9821420045737 2089.0408257410063
2254.5823611825035 2221.9860879652283
2255.1824354927303 1816.2710680735138
2255.782364968365 1724.6298082131852
2256.38214964251 1632.9154493332353
2256.9817895482483 1595.1260589224332
2257.5812847186553 1937.1434447963245
2258.180635186791 1817.0178506362995
2258.779840985704 1726.8282187313216
2259.37890214843 1943.5539090709394
2259.97781870799 2226.9724224807073
2260.5765906973957 2011.8613298249256
2261.175218149645 1980.4617470460992
2261.773701097718 2041.10721907336
2262.3720395745895 1737.488756749999
2262.970233613216 1695.0365792618607
2263.568283246548 1778.1209921842383
2264.1661885075137 1590.034645876943
2264.763949429038 1557.8040468895929
2265.3615660440246 2065.677726903513
2265.959038385374 1661.7056425770893
2266.5563664859637 1692.539439958356
2267.153550378669 1723.5003311403466
2267.7505900963424 1959.3275113258449
2268.3474856718312 1709.7603263288179
2268.9442371379664 1866.965579600858
2269.5408445275643 1696.4063009605743
2270.1373078734377 1664.5916676514407
2270.7336272083758 1632.7136558910256
2271.32980256516 1683.442625198928
2271.925833976562 1928.9074234212956
2272.5217214753357 2018.3199481251618
2273.117465094223 1789.934131598519
2273.7130648659586 1691.7578281603255
2274.308520823257 1631.8531193350823
2274.903832998827 1708.1554970551297
2275.4990014253563 1784.5918409562842
2276.094026135528 2027.0563079832195
2276.6889071620117 1675.1521965271481
2277.2836445374614 1982.7509975416845
2277.878238294519 1910.0956114207977
2278.472688465812 1621.2049438326703
2279.066995083962 1331.8231925160505
2279.6611581815705 1804.267081107208
2280.255177791232 1585.2285303278818
2280.8490539455233 1859.8633645264538
2281.442786677013 2135.0636135456125
2282.0363760182554 2063.9005126505945
2282.6298220017943 1726.3951571114144
2283.223124660155 2144.535256029569
2283.816284025859 1539.7018017169332
2284.4093001314086 1574.29698825468
2285.002173009292 1609.006256589264
2285.5949026919952 1983.7152013388943
2286.1874892119777 1855.8416207934777
2286.7799326016993 2027.4693920530876
2287.3722328936 1589.5367866157292
2287.964390120109 1389.7287762713459
2288.556404313642 2053.9169015991365
2289.1482755066027 2355.0941552170307
2289.7400037313873 1942.1768454030691
2290.3315890203703 1825.3163098147165
2290.9230314059205 1718.5545994593358
2291.5143309203904 1611.6732347751886
2292.1054875961236 1714.3580668357113
2292.6965014654506 2267.1587101135233
2293.287372560684 1752.5513614260358
2293.878100914131 1823.4333902715068
2294.468686558086 1894.5255061063276
2295.059129524827 1767.7749299781303
2295.649429846617 1716.3670277995352
2296.239587555716 1664.798934518342
2296.8296026843636 1813.2935676814038
2297.419475264791 1760.73153687268
2298.0092053292137 1707.962345252058
2298.598792909839 1850.1913981599178
2299.1882380388597 1885.2455198268326
2299.777540748455 1953.072820560085
2300.3667010707904 2020.8664462044574
2300.9557190380256 2028.4672515779198
2301.544594682302 2461.371884337134
2302.1333280357503 2265.1323793277966
2302.721919130485 2068.7217640901054
2303.3103679986198 2471.9579217835603
2303.898674672242 2145.454004665241
2304.486839183437 1831.589181982513
2305.0748615642697 1822.0337009613402
2305.6627418468015 1911.0642606347078
2306.2504800630704 1785.5750369590435
2306.8380762451143 1831.2798425327396
2307.425530424949 1193.8563982590256
2308.012842634582 1869.5222880666995
2308.6000129060103 2472.06683945573
2309.187041271214 2572.362736501517
2309.773927762164 2318.3596041726223
2310.3606724108213 2063.8203797906126
2310.9472752491274 1652.2027407081362
2311.5337363090184 2001.9472761685697
2312.120055622414 1908.006712066166
2312.706233221221 1951.3007576205569
2313.2922691373424 1488.3808920114116
2313.8781634026564 1578.796631068676
2314.463916049037 1669.409047533209
2315.049527108342 2061.15476556705
2315.6349966124235 2516.3565309157866
2316.2203245931123 2224.229253611685
2316.8055110822315 2080.7171297298687
2317.3905561115935 1936.8404548513295
2317.9754597129977 1633.025109416609
2318.560221918229 1642.309799439829
2319.1448427590603 1651.6513678893818
2319.729322267256 1554.032557715093
2320.313660474563 1747.0507035215821
2320.8978574127195 2007.210097877532
2321.481913113452 2268.1580710795374
2322.0658276084705 1779.1345642024673
2322.6496009294806 1952.0712533980236
2323.233233108165 2038.5066351198013
2323.8167241762058 1850.3686383815161
2324.4000741652617 1792.4982157441355
2324.983283106987 2083.7792631060493
2325.5663510330232 1935.7542575350046
2326.1492779749933 1787.162520197347
2326.7320639645204 2034.9601244651046
2327.3147090332004 1667.2399385173019
2327.897213212629 1811.09379218098
2328.4795765343843 1955.0078679567553
2329.0617990300307 1692.538335387789
2329.643880731124 2290.6225294259925
2330.22582166921 1779.3736341224035
2330.807621875816 1561.3767002084537
2331.3892813824623 2036.4668093851155
2331.9708002206517 1732.928007782882
2332.5521784218818 2128.6424597658765
2333.133416017634 1857.120291442155
2333.7145130393765 1848.8707412358217
2334.295469518571 2051.902075429977
2334.876285486658 2093.3700388905545
2335.456960975076 2082.883002853187
2336.037496015242 2072.4086025945126
2336.6178906385667 1761.6102951409662
2337.198144876451 1916.1551675422645
2337.778258760278 1858.3698594887671
2338.3582323214214 1219.9731902265407
2338.938065591243 1723.4227127001013
2339.517758601087 2269.2715513459834
2340.0973113822965 1884.0209216649498
2340.676723966193 1822.1697926004235
2341.255996384094 2000.1579891906829
2341.835128667295 2251.0899064648365
2342.4141208470883 1876.1924864563493
2342.992972954751 1971.6344483618018
2343.5716850215467 1980.5643941417643
2344.1502570787306 1255.3662422106709
2344.7286891575386 1603.9489588424542
2345.3069812892045 2479.8386924645965
2345.885133504944 2262.5793248354403
2346.4631458359618 1644.3482944337716
2347.04101831345 1790.05350098595
2347.6187509685915 1913.2106061105965
2348.196343832553 1766.0854010195512
2348.7737969364935 1943.4595245793203
2349.351110311558 1763.0287193558536
2349.9282839888765 1531.7316870552363
2350.5053179995757 1426.1200670201415
2351.0822123747585 1351.932372407055
2351.658967145526 1426.6031042811578
2352.2355823429643 1501.4827843725786
2352.812057998144 1978.4564064994706
2353.3883941421263 1560.5557464701192
2353.9645908059647 1908.5668612289962
2354.540648020693 1729.287324116563
2355.116565817336 1673.0195230101156
2355.6923442269126 1763.0748195686629
2356.2679832804224 1853.3170428321744
2356.8434830088518 1818.177047691165
2357.41884344318 1835.983777730556
2357.994064614377 2107.0809129356394
