#exp_cfg={"servo_angle": 0.0, "laser_lim": 100.0, "servo_angle_to": 18.0, "laser_wup": 0.0, "bt_dev": "EnSpectr-25AE3", "laser_wdn_max": 0.0, "frames": 10.0, "servo_used": 0, "servo_calib_use": 0, "laser_wdn_min": 0.0, "servo_pix_from": 90.0, "cooler_tout": 300.0, "servo_angle_from": 0.0, "servo_calib": "[-1.9174921013161362e-09, 3.9322238269163779e-05, -0.27385609119055809, 653.59552119713567]", "laser_autoctl": 0, "servo_pix_to": 3682.0, "laser_pw": 100.0, "cooler_on": 0, "laser_volt": 4.0, "cooler_autoctl": 0, "cooler_curr": 70.0, "cooler_startup": 10.0, "laser_fixed_pw": 0, "gain": 1.3, "offset": 2.53059635486, "servo_calib_degree": 3.0, "laser_curr": 55.0, "shutter": 8200.0, "servo_calib_step": 1.0, "laser_fixed_curr": 0, "exp": 2000.0, "ccd_volt": 4.7, "bt_addr": "00:06:66:62:5A:E3", "servo_delay": 500.0, "laser_autooff": 1}
#proc_cfg={"flat_auto_wnd": 200.0, "flat_auto_fr": 200.0, "flat_auto_shift": 5.0, "yconv": 1, "flatten": 1, "flatten_strength": 100.0, "xfrom": 300.0, "auto_max_frame": 2000.0, "auto_signal": 48000.0, "flat_auto_tol": 0.1, "autoclip": 1, "xrel_range": 0.0, "flat_auto_to": 4000.0, "intensity_adj": 1.0, "xrel": 7852.0, "rmhot": 1, "flat_auto_slit": 4.999999999999997, "auto_ini_exp": 300.0, "auto_off": 0, "xto": 2860.0, "flat_auto_ref": "", "flat_auto_rank": 1, "autobackg": 0, "xrel_adj": 0.0, "auto_black_lvl": 1, "base_wnd": 100.0, "sub_baseline": 0, "xconv": 2, "auto_max_exp": 1000.0, "auto_total_exp": 10000.0, "auto_exp": 0, "rmripple": 0, "black_lvl": 8251.9125, "shutter_clip_adj": 0.0, "auto_bckg": 0, "flat_auto_thr": 0.9, "subbackg": 1}
316.8218498245369 15208.41311586685
317.89969571804795 15011.04211547382
318.977263876126 14952.350513011716
320.05455438786703 14784.816170628847
321.1315673423287 14718.137642632515
322.2083028285215 14676.421049868266
323.2847609354267 14506.994136605344
324.3609417519747 14506.313967883476
325.43684536705587 14321.62539137543
326.5124718695279 14278.377445440288
327.58782134820103 14117.585937685866
328.66289389184385 14146.566830368494
329.7376895891921 13930.36467224884
330.8122085289342 13970.271743002702
331.88645079971866 13845.454877549186
332.9604164901575 13800.506370747225
334.03410568881554 13663.800146190688
335.1075184842266 13765.443858228686
336.18065496487543 13588.86265118036
337.2535152192122 13519.25815073958
338.32609933564163 13567.021340872898
339.39840740253203 13479.377983931874
340.4704395082099 13461.113935378078
341.5421957409617 13360.468284217157
342.6136761890357 13424.607658545327
343.6848809406365 13221.514868989438
344.75581008392874 13245.763841605449
345.82646370703696 13210.034326023557
346.8968418980512 13168.030602801813
347.96694474501055 13202.048023478637
349.0367723359268 13179.94116489659
350.106324758759 13119.012967864614
351.1756021014353 13006.960050613936
352.2446044518383 13048.405833347902
353.31333189781435 13171.17392241414
354.38178452716966 13077.210837877148
355.449962427665 13119.184987002014
356.51786568702846 13021.390788238883
357.58549439294256 13153.189584817665
358.6528486330535 13222.82213156875
359.71992849496564 13019.27642348767
360.7867340662433 13179.570387059604
361.8532654344144 13163.820165487787
362.9195226869597 13245.498560671545
363.9855059113288 13208.127522738967
365.05121519492604 13150.487490724341
366.11665062511565 13343.094679701888
367.1818122892273 13299.439442331379
368.2467002745434 13402.64736884213
369.31131466831175 13398.032811368364
370.375655557742 13422.46696197391
371.4397230299983 13439.493181064789
372.5035171722102 13448.11995197288
373.5670380714637 13426.151906892905
374.6302858148101 13471.30611531956
375.6932604892554 13493.378848493263
376.7559621817709 13411.699495468536
377.81839097928605 13354.447457677763
378.8805469686886 13427.105657228927
379.94243023683157 13531.49705551395
381.0040408705263 13320.740546565052
382.0653789565458 13298.943880796342
383.1264445816196 13298.130930839889
384.1872378324406 13333.298990488222
385.2477587956637 13256.015273659712
386.3080075579037 13179.375158861705
387.3679842057336 13095.499775433416
388.4276888256918 13126.187106575253
389.48712150426945 13072.825876070568
390.54628232792857 12981.990688194188
391.6051713830857 12949.372123145507
392.66378875611736 12956.426835335249
393.7221345333637 12965.166794777191
394.7802088011249 12879.442756120665
395.838011645661 12881.674739629827
396.89554315319765 12716.09097332932
397.9528034099112 12687.098131812852
399.00979250194723 12659.146521659899
400.06651051541485 12559.84289784309
401.1229575363741 12536.094189280077
402.17913365085224 12541.446737409473
403.23503894483656 12540.907378366834
404.2906735042761 12428.042897207735
405.3460374150818 12292.39038249072
406.401130763119 12341.264533174191
407.455953634224 12322.829751633624
408.5105061141876 12264.919194725715
409.56478828876243 12168.847209707523
410.6188002436629 12087.988950639836
411.6725420645689 12077.8795253099
412.72601383711117 12087.543791250828
413.77921564689314 12135.10787568834
414.8321475794728 11940.276417984645
415.88480972036814 11889.515320554483
416.93720215506437 11930.042458530426
417.9893249690049 11834.581190471396
419.04117824759123 11777.289176705495
420.09276207619223 11748.449688319697
421.144076540133 11752.36678460376
422.1951217247042 11725.091438976702
423.24589771515275 11719.489131856744
424.2964045966928 11668.724851650011
425.34664245449494 11676.603335533957
426.3966113736933 11602.752398578237
427.4463114393875 11572.385340962379
428.49574273662984 11578.344543624506
429.5449053504417 11442.803153851375
430.5937993658026 11544.97419885074
431.6424248676558 11492.379044525522
432.6907819409007 11447.036692320211
433.73887067040596 11487.507437602804
434.7866911409965 11533.352494247956
435.8342434374608 11431.231308477145
436.88152764455117 11310.806041180891
437.9285438469724 11312.008416260633
438.9752921294057 11225.22600121406
440.02177257648145 11373.309285715295
441.06798527279716 11240.065549026072
442.1139303029122 11353.380969255322
443.1596077513459 11451.96888307592
444.2050177025794 11252.82890414924
445.25016024105753 11264.481614003485
446.2950354511886 11239.165199469307
447.33964341733736 11280.163770652807
448.383984223834 11195.511777205551
449.4280579549686 11156.647153430515
450.471864694995 11222.127589181307
451.5154045281306 11158.690571699719
452.5586775385509 11175.723747641054
453.60168381039693 11157.786200561848
454.64442342776783 11278.597040974772
455.6868964747264 11228.407043544335
456.7291030353008 11132.139589670305
457.77104319347563 11243.369856527406
458.8127170332027 11147.69718940868
459.854124638392 11179.373233295351
460.895266092919 11246.32185470509
461.93614148061897 11263.440487485303
462.97675088529104 11250.070653755763
464.01709439069236 11262.754147863492
465.0571720805492 11173.486637107515
466.0969840385442 11250.413436510167
467.1365303483253 11327.901464165418
468.17581109350067 11301.881170016251
469.2148263576437 11267.956299422955
470.2535762242878 11354.591366971394
471.29206077693016 11416.803310489113
472.33028009902773 11486.718907503762
473.3682342740012 11625.231434948844
474.40592338523857 11553.011251503023
475.4433475160804 11720.982511288403
476.4805067498364 11794.773427601222
477.51740116978 11927.713589107838
478.5540308591426 12161.757673980817
479.59039590112116 12388.676567059007
480.6264963788726 12550.032665158851
481.6623323755193 12847.555294693291
482.6979039741436 13115.982632768242
483.7332112577915 13701.960412388707
484.76825430947247 13954.440247532602
485.80303321215797 14313.824436816267
486.837548048783 14654.588097656171
487.8717989022425 15017.633773474585
488.90578585539697 15216.024565743259
489.9395089910686 15485.63395552324
490.97296839203955 15496.951541781324
492.00616414106116 15430.386394428744
493.0390963208429 15424.805954067047
494.0717650140559 15282.513257584087
495.10417030333883 15074.540408751851
496.1363122712901 14767.158094995397
497.16819100046814 14313.220574370815
498.1998065734024 14039.08855506464
499.2311590725767 13727.36592873181
500.26224858044407 13384.60810477245
501.2930751794156 13050.921439691654
502.3236389518679 12794.8210376806
503.35393998014115 12516.528729151094
504.38397834653733 12271.630546660792
505.4137541333221 12222.532520304852
506.4432674227228 11955.960557176984
507.4725182969323 11839.162468821294
508.5015068381035 11691.87516237082
509.53023312835467 11711.262210549188
510.55869724976765 11596.333401067659
511.58689928438434 11436.86508361689
512.6148393142121 11373.476317927669
513.6425174212218 11435.638106939074
514.6699336873462 11458.53499120069
515.6970881944835 11452.232842646183
516.7239810244901 11412.893757959515
517.7506122591931 11382.018111847708
518.7769819803761 11468.11052876686
519.8030902697901 11450.134941276188
520.8289372091476 11473.532324193615
521.8545228801249 11554.203352563247
522.8798473643619 11469.210327356852
523.9049107434621 11456.756025737399
524.9297130989908 11508.23238516435
525.9542545124805 11453.58829736465
526.9785350654201 11444.590965914958
528.0025548392696 11447.482633270807
529.0263139154504 11383.144776394793
530.0498123753423 11346.13422355585
531.073050300296 11280.743428682577
532.0960277716204 11186.119288880845
533.1187448705896 11230.132177830232
534.1412016784416 11238.722780835322
535.1633982763833 11104.961152387268
536.1853347455726 11112.082887649594
537.2070111671401 11004.560405155427
538.2284276221817 10985.990932460207
539.2495841917516 10831.530850878025
540.2704809568677 10745.441001946445
541.2911179985167 10769.0441209795
542.3114953976419 10670.935970027484
543.3316132351592 10534.349713298438
544.3514715919409 10453.338484110147
545.3710705488247 10560.942599030312
546.3904101866156 10474.71734508438
547.4094905860784 10450.325058495002
548.4283118279418 10373.327664162378
549.4468739929034 10481.388290828338
550.4651771616191 10432.841905703212
551.4832214147063 10290.427361053009
552.501006832761 10403.695561426763
553.5185334963226 10309.616706972774
554.5358014859103 10372.038890445623
555.5528108820035 10326.851032650779
556.5695617650363 10305.093556020754
557.5860542154242 10345.696658916042
558.6022883135283 10349.25065868558
559.6182641396881 10207.121078935426
560.6339817741991 10305.483878326915
561.6494412973225 10264.25994637125
562.6646427892883 10391.81729259807
563.6795863302796 10317.215905946054
564.694272000459 10285.896340722884
565.7086998799423 10393.950267897353
566.7228700488104 10322.332381752492
567.7367825871115 10346.276261793104
568.7504375748576 10317.797132747703
569.7638350920224 10401.575492866908
570.7769752185486 10363.737173016842
571.7898580343353 10471.002116654308
572.802483619258 10427.848545566225
573.8148520531431 10641.079473281197
574.8269634157932 10628.623197660061
575.8388177869692 10702.176604695313
576.8504152463938 10913.079949986166
577.8617558737587 11115.90660901304
578.8728397487175 11084.359185014433
579.883666950891 11326.88316678258
580.8942375598654 11597.008233175668
581.9045516551851 11791.358792308085
582.9146093163617 12091.990291868493
583.924410622878 12097.585357503662
584.9339556541727 12223.428710719
585.9432444896538 12419.77245729317
586.9522772086875 12335.515265660908
587.9610538906127 12441.873207784713
588.9695746147318 12399.43784069984
589.9778394603054 12368.615781332162
590.985848506567 12185.57839628519
591.9936018327098 12062.81171324504
593.0010995178891 11720.71566334945
594.0083416412344 11725.067968563199
595.0153282818283 11447.987859842142
596.0220595187293 11216.979950072964
597.0285354309508 11233.885313435503
598.0347560974806 11064.861647354655
599.0407215972609 10957.573665370834
600.0464320092051 10939.016607401501
601.0518874121954 10857.077376482672
602.0570878850685 10715.614453183414
603.062033506636 10641.926732847518
604.0667243556636 10714.152717064193
605.0711605108936 10615.106917116716
606.0753420510264 10787.791124531865
607.0792690547278 10761.878289240249
608.082941600629 10694.05476719958
609.0863597673306 10746.824556550753
610.0895236333909 10874.069849042315
611.0924332773357 11030.4873776126
612.0950887776617 11074.344808013962
613.0974902128219 11167.623468269681
614.0996376612384 11342.722356395916
615.1015312013005 11460.777866948903
616.1031709113595 11713.456796112901
617.1045568697336 11748.825514552704
618.1056891547069 11987.60922678362
619.1065678445229 12289.094757346456
620.1071930173985 12741.212363862254
621.1075647515099 12883.325351274507
622.1076831250048 13193.799482809252
623.1075482159849 13558.18533517625
624.1071601025305 13839.223749859297
625.1065188626781 14158.645827837856
626.105624574433 14669.147107487088
627.1044773157682 14956.84311875969
628.1030771646128 15284.732886571725
629.1014241988742 15675.485354100227
630.0995184964158 15988.949424029302
631.0973601350688 16154.331010210159
632.0949491926294 16504.99191528319
633.0922857468631 16436.269209819766
634.089369875499 16484.333767522992
635.0862016562278 16498.665935600242
636.0827811667077 16323.387430827375
637.0791084845641 16376.136630115008
638.0751836873878 15962.666617872019
639.0710068527369 15914.336038252432
640.0665780581294 15461.15874190695
641.0618973810506 15040.414131947746
642.0569648989604 14870.241170495146
643.0517806892676 14377.595299465034
644.0463448293649 14019.914075463235
645.040657396592 13741.528178403352
646.0347184682723 13334.718099613217
647.0285281216875 13011.347566863107
648.0220864340772 12667.307236750692
649.0153934826558 12384.563831907366
650.0084493446047 12153.46323205885
651.0012540970674 11890.64611425118
651.9938078171526 11711.335427239934
652.9861105819346 11568.173244362959
653.9781624684565 11461.031922151049
654.9699635537254 11119.901089030742
655.9615139147136 11140.853198538276
656.9528136283589 10974.281743474185
657.9438627715699 10910.76397780656
658.9346614212154 10720.561060926513
659.925209654135 10539.634232022176
660.9155075471263 10604.894501439372
661.9055551769616 10489.665586820287
662.895352620375 10537.779415804627
663.8848999540678 10383.442674087386
664.8741972547068 10281.281647647855
665.863244598926 10262.235999855086
666.8520420633213 10309.386777820804
667.8405897244611 10106.808111410199
668.8288876588758 10098.608861911065
669.8169359430613 10096.507339349575
670.8047346534822 10094.782891708177
671.7922838665672 10007.407105121394
672.7795836587156 10081.536915476643
673.766634106285 10189.148659743685
674.7534352856092 10049.791962892077
675.7399872729766 9935.720351835704
676.7262901446538 9988.852097932127
677.712343976862 10032.56419157256
678.6981488457986 10145.98149228017
679.6837048276229 10025.243476752048
680.6690119984596 10100.587447622933
681.6540704344043 10018.210677743042
682.6388802115107 10063.190282144335
683.6234414058108 10011.73403575343
684.6077540932874 9919.948010756812
685.591818349907 9975.563760865023
686.575634251587 9905.195902159468
687.5592018742263 9839.70037947282
688.5425212936734 9706.333478938892
689.5255925857564 9900.819037268706
690.5084158262707 9751.89410425315
691.4909910909646 9665.470720837959
692.4733184555644 9668.188536629174
693.4553979957618 9665.391953022832
694.4372297872123 9567.548189904053
695.4188139055404 9551.164264042052
696.4001504263324 9512.060386493904
697.3812394251509 9553.699345771547
698.3620809775111 9446.025697888897
699.3426751589104 9436.269007531357
700.3230220448004 9380.682519184089
701.3031217106054 9485.102327309414
702.2829742317172 9536.416779188647
703.2625796834873 9227.723165889922
704.2419381412474 9251.441455079257
705.22104968028 9327.620645764879
706.1999143758458 9377.071478174421
707.178532303169 9307.01351478714
708.1569035374378 9313.510621840358
709.1350281538107 9374.086324413727
710.1129062274158 9348.250480636347
711.0905378333373 9467.14202884186
712.0679230466376 9520.232440808772
713.0450619423427 9596.279393179491
714.0219545954424 9734.503318612766
714.9986010808989 9689.254687731951
715.9750014736292 9752.134263547814
716.9511558485392 9934.049509507608
717.9270642804786 9997.048285236326
718.9027268442787 10032.883488628988
719.8781436147328 10039.225702303947
720.8533146666014 10043.736497846385
721.828240074612 10122.527247841612
722.8029199134635 10097.361996434975
723.7773542578125 10018.341922141983
724.751543182294 9974.918125628486
725.7254867615029 9931.603801622541
726.6991850700015 9737.5383651437
727.6726381823228 9808.704930724174
728.6458461729599 9721.463436223987
729.6188091163858 9656.952253470065
730.5915270870246 9726.60895492094
731.5640001592856 9602.093017525709
732.536228407529 9636.395927229218
733.5082119060917 9659.48742086847
734.4799507292755 9597.885296570832
735.4514449513481 9636.133614612754
736.4226946465496 9761.169960640174
737.3936998890786 9814.980183074842
738.3644607531078 9669.375903226875
739.3349773127793 9722.49462832173
740.3052496421951 9690.50632730798
741.27527781543 9578.130436836083
742.2450619065221 9531.381593776394
743.2146019894826 9588.603113168832
744.183898138288 9604.195693733322
745.1529504268801 9474.934326644503
746.1217589291682 9341.01276024836
747.0903237190341 9350.160724906029
748.058644870318 9374.707262787737
749.0267224568397 9370.50233702992
749.994556552374 9323.968754236126
750.9621472306771 9286.568845338934
751.9294945654583 9336.417853259034
752.8965986304011 9363.158037305766
753.8634594991636 9276.639952441157
754.8300772453586 9407.545018902807
755.7964519425768 9376.96923576968
756.762583664371 9398.491344510428
757.7284724842611 9381.801368146747
758.6941184757416 9350.73535464354
759.6595217122667 9492.397305800047
760.6246822672638 9395.444211174341
761.5896002141235 9238.492192622043
762.5542756262093 9344.42826669656
763.5187085768503 9368.725180094132
764.4828991393406 9338.167327077817
765.4468473869474 9316.339253694998
766.4105533929032 9304.679903004837
767.3740172304078 9201.340741705631
768.3372389726283 9215.571545522482
769.3002186926988 9116.883659198033
770.2629564637282 9144.252746601307
771.2254523587872 8952.495145486884
772.1877064509154 9000.45035005229
773.1497188131179 8824.873209084455
774.1114895183728 8738.371231393854
775.0730186396268 8670.521314802048
776.0343062497905 8621.948527235978
776.9953524217381 8588.315995106197
777.9561572283274 8605.952892010984
778.9167207423689 8605.197130550312
779.8770430366476 8529.5553853696
780.8371241839159 8553.599085690828
781.7969642568951 8547.229001001097
782.7565633282757 8715.758816773441
783.7159214707099 8545.159168108254
784.6750387568281 8628.686544095297
785.6339152592227 8555.850721215156
786.5925510504512 8494.688753966751
787.5509462030477 8628.835148831842
788.5091007895098 8558.996430167708
789.4670148823006 8572.53759012066
790.4246885538596 8618.204403827085
791.3821218765861 8590.310315748524
792.3393149228505 8542.37138950756
793.2962677649975 8608.786312037217
794.2529804753303 8579.714806519962
795.20945312613 8744.196283837131
796.1656857896378 8635.485368371035
797.1216785380675 8690.703176294212
798.0774314435985 8843.770147170892
799.0329445783846 8984.220011717065
799.9882180145414 9126.915825653117
800.9432518241574 9104.493776687243
801.89804607929 9303.684498495844
802.852600851962 9457.368239112217
803.8069162141637 9459.955412637273
804.760992237856 9637.669846484472
805.714828994971 9679.925522619287
806.6684265574077 9764.077655361212
807.6217849970271 9775.655072557354
808.574904385674 9634.462104360147
809.527784795142 9782.033708028122
810.4804262972102 9798.160835469662
811.4328289636178 9613.039874062533
812.3849928660748 9450.555375052698
813.3369180762638 9374.318199255422
814.2886046658241 9327.22703723199
815.2400527063783 9111.564972317332
816.1912622695108 9005.876582265568
817.1422334267718 8933.608898407865
818.0929662496856 8804.390018497663
819.0434608097457 8616.498567945633
819.9937171784059 8588.366600253159
820.9437354271013 8477.95072951943
821.8935156272255 8491.277038678621
822.8430578501484 8334.603694297833
823.7923621672016 8125.672597715277
824.7414286496896 8224.677935029356
825.6902573688876 8274.042784838048
826.6388483960363 8193.313091746031
827.5872018023492 8074.001941860061
828.5353176590033 8150.936728140479
829.4831960371503 8078.636417318588
830.4308370079016 7989.376793853073
831.3782406423525 8066.488470147631
832.3254070115545 8129.509829148874
833.2723361865319 7969.995783704449
834.2190282382799 7935.62601305344
835.1654832377644 8029.226456720346
836.1117012559116 7919.543985200085
837.0576823636256 8054.722799485799
838.003426631778 7926.819164897371
838.9489341312074 7909.664851736779
839.8942049327197 8043.76025468786
840.8392391070975 8074.179866145852
841.7840367250865 7984.814387856779
842.7285978573982 7892.371643722795
843.672922574724 8060.075771787766
844.6170109477152 7979.44947552071
845.560863046996 7999.783562042197
846.5044789431595 7919.639467728678
847.4478587067697 7892.389882040862
848.3910024083561 8140.5567149732915
849.333910118421 7958.61132104524
850.2765819074339 7948.120307897298
851.2190178458332 7999.745397635833
852.161218004032 7922.142176756513
853.1031824524016 7966.536177450554
854.0449112612987 7966.063844874744
854.9864045010327 8025.63152827963
855.9276622418947 7933.417411899463
856.8686845541379 8032.156858283456
857.8094715079915 7973.320669678773
858.7500231736467 8110.705219521738
859.690339621271 8008.880662172793
860.6304209209939 8001.024341547976
861.5702671429244 7981.569882574839
862.5098783571284 8127.582906581086
863.4492546336569 8179.146128789475
864.3883960425155 8105.853522908103
865.3273026536863 8163.531616018869
866.2659745371238 8110.366012825092
867.2044117627465 8327.199056731806
868.1426144004472 8245.470600397193
869.0805825200823 8356.512324515796
870.0183161914847 8335.143250880612
870.9558154844526 8495.591065659446
871.8930804687552 8446.719320920572
872.8301112141307 8549.128869541588
873.7669077902865 8659.372152190019
874.7034702669062 8861.877278138305
875.6397987136315 8777.460694302636
876.5758932000863 8859.82626386743
877.5117537958522 9015.829059200205
878.4473805704911 8995.279958365703
879.3827735935283 9055.815809621545
880.3179329344603 9151.34167777646
881.2528586627541 9230.783168557391
882.1875508478479 9345.264276989035
883.1220095591489 9272.100518468513
884.0562348660296 9177.910258028827
884.9902268378391 9233.753316738497
885.9239855438955 9177.894887116347
886.8575110534839 9036.602236755281
887.7908034358588 9180.021704850125
888.7238627602474 9064.30074827388
889.6566890958475 9065.905064901383
890.5892825118208 8825.822563343578
891.5216430773125 8811.741895997531
892.4537708614189 8838.297155443117
893.3856659332196 8663.066155457072
894.3173283617652 8481.563350242981
895.2487582160684 8437.987700650625
896.179955565116 8405.635483313139
897.110920477864 8204.318286538932
898.0416530232451 8185.157783623066
898.9721532701478 8098.02567499619
899.9024212874428 8199.821242897988
900.8324571439662 7995.570510258591
901.7622609085302 7968.736979624906
902.6918326499072 7863.616001169046
903.6211724368477 7906.34841446191
904.5502803380696 7928.049967372283
905.4791564222614 7903.159217611299
906.4078007580792 7733.55859267965
907.3362134141571 7728.004629583437
908.2643944590909 7851.781763619108
909.1923439614493 7652.1991154485195
910.1200619897754 7657.589136776175
911.0475486125779 7765.500152164686
911.9748038983344 7682.519521055113
912.9018279155007 7653.739504772483
913.8286207324982 7545.866357436872
914.7551824177117 7680.518501045151
915.6815130395116 7656.2405669953705
916.6076126662283 7487.198566746798
917.533481366163 7589.0816790870085
918.4591192075914 7544.706162312852
919.3845262587565 7683.706201195911
920.3097025878706 7526.615221866805
921.2346482631237 7604.611484504951
922.1593633526682 7513.600814090476
923.0838479246304 7605.914775526614
924.0081020471061 7625.633832435613
924.9321257881656 7446.081285618345
925.8559192158464 7588.972255466617
926.7794823981512 7489.7767159530795
927.7028154030686 7517.87488702974
928.6259182985414 7480.451043426974
929.5487911524906 7645.238347370479
930.4714340328119 7604.9592394888605
931.3938470073608 7512.045776578028
932.3160301439748 7497.572312081589
933.2379835104548 7512.6374159639745
934.1597071745709 7581.780847138616
935.0812012040769 7492.689849209283
936.002465666681 7533.015695467175
936.9235006300696 7540.928025060413
937.8443061619055 7502.087812547377
938.7648823298077 7347.570674504704
939.6852292013809 7383.807782672334
940.6053468441951 7457.194123311592
941.5252353257874 7331.878343083519
942.4448947136698 7367.337246424559
943.364325075323 7320.528023128526
944.2835264782043 7317.738692256598
945.2024989897309 7319.076783208131
946.1212426773054 7346.281635457191
947.0397576082851 7389.893290240191
947.9580438500125 7398.463361855598
948.8761014697939 7410.734210675959
949.7939305349064 7469.088468835757
950.7115311125999 7315.019914140299
951.6289032700952 7357.464672941847
952.5460470745875 7407.100569853011
953.4629625932339 7304.270363027659
954.3796498931715 7379.35446597392
955.2961090415029 7370.642855900655
956.2123401053068 7338.02817760481
957.1283431516276 7327.229746186834
958.0441182474842 7275.4938606693395
958.9596654598663 7424.507343742202
959.8749848557309 7379.171101406874
960.7900765020167 7259.210716928306
961.7049404656209 7266.331777962463
962.6195768134185 7344.131009601493
963.5339856122537 7396.435175698285
964.4481669289453 7374.994788151152
965.3621208302793 7276.105145519739
966.2758473830145 7230.117233182299
967.1893466538822 7428.54564419676
968.1026187095813 7272.374066444541
969.0156636167867 7304.042808780277
969.9284814421426 7346.710966614181
970.8410722522622 7270.504007740254
971.753436113735 7261.1090470801955
972.6655730931161 7311.02278696708
973.5774832569368 7353.6865027793465
974.4891666716958 7312.649921569619
975.4006234038698 7194.040682750058
976.3118535198955 7263.1660557945015
977.2228570861935 7449.368030645048
978.1336341691494 7429.559282903878
979.0441848351202 7193.8323588350995
979.9545091504333 7399.426556696539
980.864607181391 7384.5662479858565
981.7744789942699 7341.605814491731
982.6841246553086 7392.50547910886
983.5935442307236 7457.587506112082
984.5027377867027 7423.85170022981
985.4117053894024 7520.831446224098
986.3204471049557 7452.250531549269
987.2289629994648 7542.8017790688045
988.1372531390007 7553.441077628224
989.0453175896091 7593.235750100932
989.9531564173067 7604.996486113378
990.860769688079 7505.091717257598
991.7681574678918 7561.897809238193
992.6753198226706 7623.250848417473
993.582256818323 7622.000450093093
994.4889685207218 7583.866501320503
995.3954549957143 7846.00547466893
996.301716309119 7827.245078473819
997.2077525267232 7739.591963909115
998.1135637142943 7815.482850079663
999.0191499375615 7962.538553405179
999.924511262232 7928.246524919569
1000.8296477539861 7895.016118255886
1001.7345594784656 7860.414475142226
1002.6392465012996 7884.38054658148
1003.5437088880753 8017.733241425934
1004.4479467043584 7991.387809026826
1005.3519600156869 7755.525208127065
1006.2557488875718 8026.813624315953
1007.1593133854858 7981.738419332202
1008.0626535748888 7895.6849788706995
1008.9657695212009 7839.696221017088
1009.8686612898182 7996.942052806759
1010.7713289461135 8112.419985054835
1011.6737725554212 7935.237513148425
1012.5759921830577 7890.676467031124
1013.4779878943027 7908.675487864285
1014.379759754418 7949.011957959339
1015.2813078286254 7766.259361793358
1016.18263218213 7700.296705129539
1017.0837328801026 7720.185127932798
1017.9846099876886 7772.061442844757
1018.8852635700023 7638.52720350999
1019.7856936921362 7509.784592369276
1020.6859004191447 7580.4625118316035
1021.5858838160675 7462.305860775938
1022.4856439479063 7397.950867316607
1023.3851808796389 7349.148441848118
1024.2844946762143 7507.946593750688
1025.183585402554 7355.772738241879
1026.082453123554 7207.799936412001
1026.9810979040776 7316.668732408897
1027.8795198089647 7237.880868126593
1028.777718903024 7242.957582418729
1029.6756952510368 7187.9695048697
1030.5734489177648 7153.311605488552
1031.4709799679313 7158.499937575552
1032.3682884662358 7320.079140979216
1033.2653744773506 7027.896260385105
1034.1622380659192 7055.801470015709
1035.058879296559 7199.95771976001
1035.9552982338591 7129.52105517023
1036.8514949423825 7153.6434612350595
1037.7474694866614 7115.749841417559
1038.6432219312028 6997.349064567998
1039.5387523404825 7171.165441097748
1040.4340607789582 7167.505542874758
1041.3291473110476 7112.499218602777
1042.2240120011465 7158.477023195674
1043.1186549136273 7304.230072336967
1044.0130761128294 7208.292498937784
1044.9072756630649 7178.789071665073
1045.8012536286205 7317.445907310757
1046.6950100737577 7278.991545872447
1047.588545062701 7387.833954689243
1048.481858659663 7281.095336498287
1049.3749509288118 7393.301061903641
1050.2678219343034 7371.354101712399
1051.1604717402515 7379.919770038837
1052.0529004107575 7315.14470267273
1052.9451080098825 7505.668327406694
1053.8370946016694 7477.4558535683955
1054.7288602501267 7508.621342151554
1055.6204050192446 7503.083497914839
1056.511728972977 7555.030892676239
1057.402832175254 7451.460435262923
1058.2937146899785 7544.373344993871
1059.1843765810263 7476.548756435959
1060.0748179122456 7666.922232529998
1060.9650387474576 7610.108461047819
1061.855039150456 7637.719603554513
1062.7448191850071 7577.883899129922
1063.6343789148505 7590.217271052927
1064.5237184037014 7827.977159168727
1065.412837715241 7762.521247173143
1066.3017369131267 7687.261373620209
1067.190416060992 7727.3030883751835
1068.0788752224398 7783.955388848437
1068.9671144610438 7674.78916337938
1069.8551338403558 7742.230142835241
1070.7429334239023 7809.7820654250845
1071.6305132751695 7563.473186266747
1072.517873457633 7722.469057217926
1073.4050140347335 7652.23105911707
1074.2919350698776 7555.951497218493
1075.1786366264623 7550.031631387824
1076.0651187678395 7488.789351908796
1076.95138155735 7339.0275043132615
1077.8374250582929 7372.125562606107
1078.7232493339507 7333.0438044858965
1079.608854447577 7260.6527130012155
1080.4942404623907 7229.7351640397565
1081.3794074415982 7194.013653199147
1082.2643554483657 7300.161329008786
1083.149084545841 7079.41975720552
1084.033594797138 7044.535494821551
1084.9178862653516 7023.360102804737
1085.8019590135427 7070.240029080667
1086.6858131047484 6810.397565775058
1087.5694486019802 7058.9183681972045
1088.4528655682225 6939.679840971587
1089.3360640664287 7003.070410226668
1090.2190441595321 6916.7493200056615
1091.1018059104317 7038.948821169726
1091.98434938201 6928.760385063282
1092.866674637111 6938.107736918787
1093.748781738559 6910.512766899366
1094.6306707491512 6833.026806520781
1095.5123417316554 6888.264796895921
1096.3937947488157 6864.231703207182
1097.2750298633455 6828.390603899121
1098.156047137938 6815.93033533748
1099.0368466352556 6831.646419302063
1099.9174284179317 6935.009972151066
1100.7977925485757 6702.401682931393
1101.6779390897755 6823.78050333953
1102.5578681040806 6793.537556216523
1103.4375796540226 6910.49870549578
1104.3170738021054 6837.460687279296
1105.1963506108077 6638.828007786086
1106.0754101425773 6728.939316832462
1106.9542524598382 6855.984952442328
1107.8328776249855 6769.426607136806
1108.7112857003904 6755.216063194361
1109.5894767483987 6815.63297874179
1110.4674508313292 7010.813764198565
1111.3452080114657 6910.102357581619
1112.2227483510815 7049.328460425667
1113.1000719124077 7105.241848814221
1113.9771787576592 7191.3737089214865
1114.854068949022 7149.814813834744
1115.7307425486542 7249.927515763555
1116.6071996186893 7353.2295946792365
1117.483440221229 7546.896280456815
1118.3594644183577 7466.458790119807
1119.235272272128 7580.240829202213
1120.1108638445658 7747.276284892432
1120.9862391976712 8017.955618560084
1121.8613983934229 8095.384009133459
1122.7363414937627 8053.57922682568
1123.6110685606182 8313.680910177023
1124.485579655884 8436.052452659067
1125.359874841426 8615.444020037317
1126.2339541790916 8540.482573052079
1127.1078177306936 8879.140529167833
1127.9814655580267 8798.834385767519
1128.854897722851 8846.92516437787
1129.7281142869106 8973.944858335051
1130.6011153119125 9112.412731703715
1131.473900859548 9123.908985260501
1132.3464709914697 9032.154955627668
1133.2188257693178 9005.907810367578
1134.0909652546961 8882.197534356974
1134.96288950919 8754.665678182486
1135.8345985943506 8877.588004025185
1136.7060925717087 8665.454885449286
1137.57737150277 8589.979361760317
1138.4484354490069 8612.413464605288
1139.3192844718778 8374.483790110686
1140.1899186327992 8177.742397702617
1141.060337993178 8206.50008135167
1141.930542614382 8022.799922442124
1142.8005325577597 7834.795497316301
1143.670307884635 7740.111034116072
1144.5398686563003 7674.746918012803
1145.409214934025 7597.55106225817
1146.2783467790541 7251.622772501241
1147.1472642526023 7361.505835910607
1148.0159674158622 7296.562777296106
1148.8844563300026 7129.30367939345
1149.7527310561618 6976.936752931915
1150.6207916554504 6930.475951409632
1151.4886381889592 6825.457988506203
1152.3562707177498 6852.8854262202
1153.2236893028585 6790.87521069721
1154.090894005296 6679.619987595908
1154.9578848860474 6694.9138144344515
1155.8246620060709 6606.815979335176
1156.6912254262988 6474.772592261526
1157.5575752076438 6537.774498027647
1158.42371141098 6592.4455977648595
1159.2896340971656 6600.527883369488
1160.1553433270346 6494.7498411488905
1161.0208391613887 6543.044084478762
1161.8861216610057 6487.725637975028
1162.75119088664 6501.040116117396
1163.6160468990201 6410.090900829494
1164.4806897588442 6361.233656121527
1165.3451195267917 6425.5577610576065
1166.2093362635114 6423.733223347137
1167.0733400296285 6374.736394653528
1167.9371308857444 6353.437390748656
1168.8007088924278 6357.657547842425
1169.6640741102328 6337.91436812041
1170.5272265996773 6272.17586334912
1171.390166421259 6218.124367017518
1172.252893635452 6419.977770111806
1173.1154083026995 6461.6813954560575
1173.977710483421 6402.626807699191
1174.8398002380145 6323.536333321954
1175.7016776268483 6434.652456634719
1176.563342710264 6343.2282489292165
1177.4247955485826 6269.170814479974
1178.2860362020947 6422.398121320761
1179.147064731069 6262.99087117245
1180.0078811957483 6411.315963570611
1180.8684856563486 6469.957034093498
1181.7288781730604 6542.8254058262555
1182.589058806052 6572.497165941606
1183.4490276154593 6695.135809131898
1184.3087846614017 6493.932441710853
1185.1683300039676 6697.262625922422
1186.027663703222 6785.45411385146
1186.8867858192025 6746.263189387915
1187.7456964119228 6863.713769426504
1188.6043955413716 6906.877990591881
1189.4628832675116 7006.273647225976
1190.3211596502842 7018.814945243117
1191.179224749596 7096.019568962259
1192.0370786253388 7041.975144437152
1192.8947213373758 7266.761400869856
1193.7521529455407 7439.0613029390925
1194.6093735096438 7252.779963106463
1195.466383089477 7365.465930938405
1196.3231817447977 7435.852168219846
1197.1797695353398 7560.47551135689
1198.0361465208189 7396.945327017929
1198.8923127609214 7459.086705150674
1199.7482683153048 7587.984529631426
1200.6040132436028 7672.962895239785
1201.459547605431 7499.398474948726
1202.3148714603722 7622.682977733099
1203.1699848679855 7582.086661833416
1204.0248878878065 7620.607788457202
1204.8795805793507 7350.032931581352
1205.7340630020935 7608.810498133915
1206.5883352155033 7427.232272768488
1207.4423972790064 7346.882567370002
1208.2962492520237 7192.689950672185
1209.1498911939307 7209.005367549302
1210.0033231640937 7121.130615340732
1210.8565452218427 7095.509279526481
1211.7095574264913 6832.4676963196525
1212.5623598373222 6877.4614243230535
1213.4149525135963 6771.654961856696
1214.2673355145507 6837.0551934992445
1215.1195088993936 6697.073827074297
1215.9714727273113 6642.371417774593
1216.8232270574663 6810.1714648822945
1217.6747719489904 6482.383050568215
1218.5261074609934 6462.068819746451
1219.3772336525653 6558.201561510861
1220.2281505827668 6529.581916669251
1221.0788583106296 6507.087878279505
1221.9293568951707 6368.899232602239
1222.7796463953746 6286.31060765269
1223.629726870202 6322.2460013919845
1224.4795983785934 6387.865867878754
1225.3292609794553 6258.389847333277
1226.1787147316809 6216.4212745597015
1227.0279596941327 6269.4573972684475
1227.8769959256424 6362.031140295959
1228.7258234850306 6284.41373097896
1229.5744424310833 6122.759105019497
1230.422852822563 6334.453876729766
1231.2710547182105 6375.2344398612095
1232.119048176739 6323.637923790263
1232.9668332568417 6148.938937504938
1233.8144100171812 6308.065823566494
1234.6617785163999 6288.467407558642
1235.508938813111 6060.3558844275585
1236.3558909659114 6139.5971244534
1237.2026350333617 6414.713988777585
1238.049171074008 6291.113898894967
1238.8954991463652 6107.896462727377
1239.741619308932 6247.312027399066
1240.587531620169 5148.869346402466
1241.4332361385277 6334.586105501303
1242.2787329224248 6180.322460746266
1243.1240220302534 6109.999471337094
1243.9691035203869 6148.346071538332
1244.813977451171 6448.293224801534
1245.6586438809263 6303.985071816382
1246.5031028679496 6133.252016898008
1247.3473544705157 6346.7731626210925
1248.1913987468706 6342.12539153145
1249.0352357552383 6159.244453703874
1249.8788655538228 6308.6228737606225
1250.7222882007918 6476.557741760648
1251.565503754302 6301.320431188564
1252.4085122724755 6134.135876477397
1253.2513138134182 6363.828536885628
1254.0939084352049 6342.768345638155
1254.9362961958905 6334.62927380873
1255.7784771535007 6252.064039824593
1256.6204513660432 6271.434610157479
1257.4622188915 6409.298714083409
1258.3037797878242 6267.65820742521
1259.1451341129468 6223.52524264101
1259.9862819247755 6320.630189945225
1260.8272232811978 6268.416816049872
1261.6679582400666 6366.435583266719
1262.5084868592203 6162.674660253327
1263.34880919647 6194.9080066671
1264.1889253095997 6206.976962370385
1265.0288352563712 6218.626693746521
1265.8685390945266 6029.151445192828
1266.7080368817751 6306.859743384321
1267.5473286758115 6272.954980343152
1268.386414534294 6260.778231389232
1269.2252945148703 5970.095995975835
1270.0639686751547 6081.447051723329
1270.9024370727402 6072.602915775029
1271.7406997651997 6036.1502981470585
1272.5787568100714 6006.488506126114
1273.4166082648808 5997.457574856526
1274.2542541871244 6041.241414135257
1275.091694634275 6209.201760846875
1275.9289296637817 5907.843679229062
1276.7659593330663 6068.503968719608
1277.6027836995308 5981.119752212983
1278.4394028205552 6054.8639011562045
1279.2758167534867 5942.510999664293
1280.112025555658 6022.766487998762
1280.9480292843746 5975.9369910196365
1281.7838279969128 5857.075392973475
1282.6194217505326 5899.884055104206
1283.4548106024686 5779.74985114386
1284.289994609926 5929.269448454531
1285.1249738300921 6046.958955601438
1285.959748320127 5873.627711967963
1286.7943181371702 5944.302245989507
1287.6286833383328 5876.335892942832
1288.4628439807038 5950.211104101443
1289.2968001213521 5864.017490351784
1290.1305518173194 5889.408865581766
1290.9640991256183 5956.97769002586
1291.7974421032523 5863.418524543292
1292.630580807183 5859.596155472565
1293.463515294361 6005.346476262615
1294.29624562171 6044.397529489826
1295.12877184613 5927.662930002063
1295.961094024493 5889.681037086349
1296.79321221365 5983.539096304279
1297.6251264704333 5989.540232857885
1298.4568368516466 6212.35299960781
1299.2883434140658 6031.801625850113
1300.1196462144526 6010.620711054087
1300.9507453095375 6101.631514384584
1301.7816407560313 6090.0094505300385
1302.6123326106172 6128.629059816898
1303.4428209299622 5976.182881381932
1304.2731057707024 6275.37835017958
1305.1031871894502 6160.63893920815
1305.933065242798 6305.211921168963
1306.7627399873181 6228.092942355546
1307.5922114795467 6524.325348317293
1308.4214797760123 6441.012683416301
1309.2505449332057 6274.2130225782785
1310.0794070076026 6335.12399449439
1310.9080660556538 6500.340469730222
1311.736522133786 6464.73908852087
1312.5647752983987 6377.64777754835
1313.3928256058734 6256.5982364601605
1314.2206731125661 6507.268714860546
1315.048317874809 6419.264868444932
1315.8757599489109 6422.393988126839
1316.7029993911547 6537.527984587781
1317.5300362578055 6642.28136897597
1318.356870605101 6414.857925613616
1319.183502489257 6480.4237263624655
1320.0099319664623 6593.777834447845
1320.836159092889 6692.8181046279915
1321.66218392468 6628.012065140838
1322.4880065179532 6452.729537228234
1323.3136269288134 6621.027240002744
1324.1390452133292 6746.59066751185
1324.9642614275563 6882.649445669049
1325.7892756275214 6726.208039848968
1326.6140878692295 6660.094061599857
1327.4386982086617 6967.040914990006
1328.2631067017755 6668.291881159619
1329.0873134045069 6761.626717276429
1329.911318372764 6649.192731364381
1330.735121662441 6692.313132364409
1331.558723329399 6658.894787879454
1332.3821234294774 6639.009148829628
1333.2053220185007 6735.831002936883
1334.0283191522612 6599.809720787959
1334.851114886529 6645.856840466428
1335.6737092770582 6473.260026828413
1336.4961023795695 6467.602211470572
1337.3182942497697 6296.5376164970585
1338.1402849433325 6538.130593126201
1338.962074515921 6359.519938143036
1339.7836630231632 6356.5311669915745
1340.6050505206676 6734.798740856209
1341.426237064028 6461.80267406348
1342.2472227088037 6404.327637692446
1343.0680075105338 6316.265781749886
1343.888591524741 6359.461949964549
1344.7089748069138 6530.077113345494
1345.5291574125276 6361.545932879066
1346.3491393970307 6224.888921240197
1347.168920815846 6431.551758076923
1347.9885017243778 6381.91435886379
1348.8078821780036 6354.477944917806
1349.6270622320844 6292.056913817156
1350.4460419419447 6259.135572936781
1351.2648213629054 6366.222234613361
1352.0834005502438 6190.928544569447
1352.90177955923 6157.847106674157
1353.7199584451064 6425.493667361088
1354.5379372630887 6391.214717011037
1355.355716068374 6291.721824389319
1356.1732949161305 6177.631094116053
1356.9906738615155 6326.456395569478
1357.8078529596478 6241.453899245756
1358.6248322656375 6459.763578658326
1359.441611834567 6349.907499694406
1360.2581917214866 6389.266998943354
1361.0745719814367 6270.8929778339825
1361.890752669433 6239.184668460305
1362.7067338404577 6129.807643617358
1363.5225155494845 6277.6123081646365
1364.3380978514506 6386.93834626095
1365.1534808012839 6172.696499526471
1365.9686644538815 5942.559767078152
1366.783648864117 6378.1273523971995
1367.5984340868417 6373.769794448073
1368.413020176893 6238.183896738876
1369.2274071890715 6266.191666749065
1370.0415951781652 6311.517546498411
1370.8555841989346 6176.953075861405
1371.6693743061223 6054.19567739798
1372.48296555444 5961.94977700117
1373.2963579985844 6221.997085254636
1374.1095516932255 6097.585063673084
1374.9225466930166 5950.633281390212
1375.7353430525782 6114.013974466799
1376.5479408265164 6010.250452512223
1377.36034006941 6077.84767583674
1378.1725408358216 6123.130769453104
1378.9845431802805 6002.207713233138
1379.796347157304 6350.861939240859
1380.6079528213813 6119.653827492088
1381.4193602269788 5976.534901610102
1382.230569428546 5962.9262856421365
1383.0415804805016 6063.522481114723
1383.852393437246 6080.504614393654
1384.6630083531563 6092.683009567334
1385.4734252825892 5942.590169174664
1386.2836442798798 6067.469200953361
1387.0936653993322 6080.5175335315735
1387.9034886952395 5998.222994943981
1388.713114221864 6061.602178696323
1389.5225420334482 6035.524169490288
1390.331772184214 6086.906979822193
1391.1408047283585 6010.469764959556
1391.9496397200564 6056.838098275516
1392.758277213461 6139.856692471574
1393.5667172627054 6248.75349087145
1394.3749599218918 6065.4465008378675
1395.1830052451114 6020.732232865236
1395.9908532864265 6007.247148757238
1396.7985040998774 6212.112942158395
1397.6059577394808 5868.165613204399
1398.4132142592352 6061.803868099726
1399.2202737131156 6004.042758326339
1400.027136155073 6212.9055633655025
1400.8338016390353 6000.357550032984
1401.6402702189134 6045.595710189496
1402.446541948586 6120.82188072013
1403.2526168819204 5966.650708048515
1404.058495072757 5938.858979674884
1404.8641765749107 6042.495275704204
1405.6696614421799 6073.0575128944365
1406.4749497283356 6256.274863645887
1407.280041487129 5927.512520437551
1408.084936772295 5796.67466503612
1408.8896356375335 6016.8522533704045
1409.6941381365323 5968.74082986828
1410.498444322955 5850.462514641202
1411.3025542504402 5757.266035736589
1412.106467972606 5897.719286281818
1412.9101855430508 5862.878462172281
1413.7137070153458 5642.837497085184
1414.5170324430437 5747.541533399481
1415.320161879672 5829.790025782824
1416.1230953787435 5888.322930963679
1416.925832993742 5649.878615053733
1417.7283747781275 5515.138556384741
1418.5307207853439 5599.44559315781
1419.3328710688093 5471.949623813647
1420.134825681922 5408.552365824458
1420.9365846780584 5493.227306223148
1421.7381481105713 5485.715434459694
1422.539516032788 5534.059117032728
1423.3406884980232 5245.9113045062895
1424.1416655595604 5371.905697616448
1424.942447270665 5358.409597194415
1425.7430336845828 5361.023084789081
1426.5434248545298 5188.77421556056
1427.3436208337116 5283.214233091799
1428.143621675301 5376.640298292174
1428.9434274324558 5525.66046419234
1429.7430381583108 5071.10276745627
1430.5424539059713 5231.936353918847
1431.3416747285337 5479.711047902374
1432.1407006790632 5309.553970308497
1432.9395318106053 5199.282962325987
1433.7381681761835 5147.349520150698
1434.5366098288014 5285.343289583243
1435.3348568214424 5219.525306549948
1436.1329092070573 5150.014421448831
1436.9307670385879 5209.868413642483
1437.7284303689503 5275.464160578513
1438.5258992510335 5346.913376483908
1439.3231737377118 5245.546995782465
1440.1202538818306 5172.579579571392
1440.9171397362225 5144.045577183741
1441.7138313536925 5211.289336804372
1442.5103287870243 5036.491888475792
1443.3066320889775 5015.982840784742
1444.1027413122956 5370.763527672152
1444.8986565096966 5235.927913043508
1445.694377733882 5188.7602502950085
1446.4899050375207 5089.644756061884
1447.2852384732687 5086.449646237284
1448.0803780937622 5242.632342017869
1448.8753239516063 5059.729339977164
1449.6700760993954 4895.8727039592895
1450.464634589689 5082.19383561826
1451.2589994750397 5311.31760835806
1452.0531708079689 5022.3726283167925
1452.8471486409799 4968.338008461016
1453.6409330265524 5209.208498749794
1454.4345240171442 4921.685653340616
1455.2279216651987 4960.998125395253
1456.0211260231263 5027.0083791462
1456.8141371433194 5331.732405491228
1457.6069550781594 5147.905231812708
1458.3995798799897 4843.8392533068245
1459.1920116011424 4964.734229524749
1459.98425029393 4969.654364601295
1460.7762960106338 4994.282850109505
1461.5681488035225 5099.128156835555
1462.3598087248392 5054.418348140713
1463.1512758268036 5181.368607052404
1463.942550161617 4941.235647706913
1464.7336317814625 4887.96344920953
1465.524520738496 5035.381478159137
1466.3152170848552 4925.461996995122
1467.1057208726506 4959.71688362127
1467.8960321539817 4899.78666075995
1468.6861509809169 4886.416301960703
1469.4760774055085 4813.08031122319
1470.265811479785 4896.386390601391
1471.055353255755 4807.83779816847
1471.844702785409 4756.0153029422245
1472.6338601207044 4809.72192608474
1473.4228253135934 5005.633139220698
1474.2115984159936 4754.627839937063
1475.0001794798063 4660.525445398161
1475.7885685569145 4879.9562839914015
1476.576765699172 4818.137353636002
1477.3647709584238 4776.928060729149
1478.1525843864802 5027.21855070998
1478.9402060351367 4962.25161457803
1479.7276359561693 4851.49170875587
1480.514874201328 4919.1748162355
1481.3019208223468 4772.315288261221
1482.0887758709323 4772.30316745157
1482.8754393987747 5067.206222908269
1483.6619114575406 4792.324974235586
1484.4481920988783 4864.024658259448
1485.2342813744108 4873.190840635334
1486.0201793357446 5135.466264753838
1486.8058860344572 4877.775287399318
1487.591401522117 4931.881675226826
1488.3767258502594 4986.753968528556
1489.1618590704056 4996.617248425722
1489.9468012340494 4838.339052903606
1490.7315523926754 5069.342776064385
1491.5161125977356 5160.141695118579
1492.3004819006637 5100.891352068409
1493.084660352877 4935.990747648068
1493.8686480057622 5082.62117339274
1494.6524449106964 5200.130012032462
1495.4360511190262 5251.479419258728
1496.219466682087 5100.42814492376
1497.0026916511779 5128.46316621072
1497.7857260775945 5078.7972542644075
1498.5685700125996 5224.09585069539
1499.3512235074395 4897.875491833424
1500.133686613337 5007.355698071518
1500.9159593814966 5038.550471174872
1501.698041863101 5382.9758857929355
1502.4799341093094 4958.162507381922
1503.2616361712662 4867.506746129438
1504.043148100087 5099.180185200411
1504.8244699468742 5060.842373205114
1505.6056017626997 4911.971795784868
1506.3865435986281 4866.756029301394
1507.1672955056893 5012.910897925043
1507.9478575348967 4961.9989167255
1508.7282297372512 5121.971279436782
1509.5084121637192 5052.13786244305
1510.2884048652577 4957.642800455521
1511.0682078927948 4958.29365261818
1511.8478212972423 4948.095971820073
1512.6272451294917 4865.059425796397
1513.4064794404076 5004.954360037569
1514.1855242808433 5036.388562718205
1514.9643797016215 4985.4993813071615
1515.743045753552 4984.985489439538
1516.5215224874191 5022.906101550154
1517.2998099539836 4814.5533007880995
1518.077908203999 5031.465985047469
1518.8558172881785 4929.059486329773
1519.633537257234 5026.287096043112
1520.4110681618404 4872.503287021633
1521.1884100526604 4956.273225805806
1521.9655629803365 4990.147872537413
1522.7425269954856 5192.300954108521
1523.5193021487103 5221.456970229498
1524.2958884905856 4901.344625639594
1525.0722860716687 4878.0084404382515
1525.848494942502 4926.343766414212
1526.624515153595 4997.990331607166
1527.4003467554485 5118.227349184836
1528.175989798534 5156.822477061446
1528.9514443333064 5116.669686051062
1529.726710410203 5269.109335280771
1530.5017880796331 5000.296849993225
1531.276677391992 5034.349089809382
1532.0513783976457 5184.323344457823
1532.825891146953 5132.505345430772
1533.6002156902414 5179.338273655535
1534.3743520778207 5088.985323496792
1535.1483003599806 5194.559605004482
1535.9220605869923 5151.9063163481605
1536.6956328091019 5204.1464538554665
1537.4690170765407 5089.491223651572
1538.242213439511 5254.594734187647
1539.015221948208 5198.674935865174
1539.78804265279 5268.862855029225
1540.560675603405 5140.266286808029
1541.3331208501804 5362.735507657718
1542.1053784432224 5371.108608660645
1542.8774484326168 5355.532065265672
1543.649330868422 5284.2422186671065
1544.4210258006842 5290.761286331243
1545.1925332794308 5314.274532950519
1545.9638533546604 5300.020424306625
1546.7349860763552 5231.119757955138
1547.5059314944829 5524.769102675456
1548.27668965898 5430.354883454642
1549.0472606197673 5450.634991477249
1549.817644426752 5259.526198646612
1550.5878411298072 5505.127338165856
1551.3578507787988 5383.921857303582
1552.1276734235635 5271.241835819719
1552.8973091139233 5359.25117241989
1553.6667578996767 5426.000575018161
1554.436019830604 5442.374612851781
1555.20509495646 5260.3477175079
1555.9739833269869 5359.052593081411
1556.7426849919011 5396.854862543309
1557.511200000903 5529.26408781573
1558.2795284036674 5539.23480291629
1559.0476702498509 5367.071753670543
1559.8156255890954 5641.835797687361
1560.5833944710157 5748.949628251927
1561.3509769452048 5344.676293063674
1562.1183730612447 5408.086988523288
1562.8855828686865 5500.717301033142
1563.6526064170703 5672.9143425644925
1564.4194437559127 5589.536105334473
1565.1860949347047 5478.717716179128
1565.9525600029283 5712.652680091001
1566.7188390100328 5828.6320390164765
1567.4849320054564 5375.470819168902
1568.250839038612 5468.307257266633
1569.0165601588997 5370.4889870699935
1569.7820954156887 5515.420748027422
1570.5474448583373 5311.487126907743
1571.31260853618 5397.605733182569
1572.0775864985299 5282.454283822431
1572.8423787946813 5470.40676137464
1573.6069854739108 5359.98690202805
1574.371406585471 5451.613852282799
1575.1356421785986 5451.649018035737
1575.899692302506 5265.566381486943
1576.6635570063845 5401.115115344126
1577.4272363394157 5341.234708572934
1578.190730350747 5210.831366576551
1578.9540390895163 5434.715450880333
1579.7171626048384 5080.9514685981
1580.480100945806 5173.783744361589
1581.2428541614918 5224.529459950805
1582.0054223009538 5290.328635204218
1582.767805413223 5255.661048605506
1583.5300035473156 5256.942170219007
1584.292016752228 5291.77999651967
1585.0538450769309 5271.422138127365
1585.8154885703807 5051.926069101145
1586.5769472815136 5129.555759067482
1587.3382212592405 5250.628832290412
1588.099310552463 5463.125984952831
1588.8602152100484 5395.768410695169
1589.6209352808564 5350.03104211194
1590.3814708137234 5122.916814217523
1591.14182185746 5207.825981575198
1591.9019884608679 5209.248102677193
1592.6619706727215 5094.746007989241
1593.4217685417734 5240.285386532677
1594.1813821167616 5403.7443261895805
1594.9408114464022 5105.606103292661
1595.7000565793933 5207.068896737903
1596.459117564409 5304.044073141626
1597.2179944501113 5195.667731067363
1597.9766872851324 5058.220941385838
1598.735196118092 5324.469973927002
1599.4935209975883 5343.053193209378
1600.2516619721973 5352.027162718302
1601.0096190904787 5161.588719393307
1601.7673924009723 5174.762194931322
1602.524981952196 5132.776676071668
1603.2823877926476 5144.422427958539
1604.0396099708087 5081.933658031479
1604.7966485351371 5053.035735953264
1605.5535035340745 5201.813109216054
1606.3101750160404 5393.931809288382
1607.0666630294363 5022.870537017434
1607.822967622642 5086.627710123791
1608.5790888440224 5113.5519124033435
1609.3350267419137 5212.478090860641
1610.0907813646445 5140.650233834475
1610.8463527605145 5089.855129957474
1611.601740977805 5175.321850644834
1612.356946064785 5116.058701812998
1613.1119680696902 5023.24915623759
1613.8668070407512 5152.189801831849
1614.6214630261748 4970.994383277905
1615.375936074137 5201.345997848469
1616.1302262328118 5011.948867379247
1616.8843335503425 5228.1637477934555
1617.638258074854 5021.553686495468
1618.391999854457 5036.218187404744
1619.1455589372363 5316.816288064099
1619.8989353712623 5180.103114077287
1620.65212920458 4927.5638872021955
1621.4051404852235 5000.7941896963375
1622.1579692611976 5072.148885376288
1622.9106155804966 4945.698681647713
1623.663079491087 5063.49650231681
1624.4153610409248 5224.996369928885
1625.1674602779385 5075.869918945909
1625.9193772500403 4975.544850107434
1626.6711120051277 5239.222417665727
1627.4226645910676 5075.453346777684
1628.174035055721 4944.018081162259
1628.9252234469168 5107.508463614931
1629.676229812474 5125.751783561844
1630.4270542001905 5269.533897178341
1631.1776966578382 5174.657523491767
1631.9281572331747 5100.371675654749
1632.678435973945 5376.463526346998
1633.4285329278573 5299.4023517837495
1634.1784481426203 5024.912234559129
1634.9281816659113 5235.835077329966
1635.677733545388 5424.52758169329
1636.4271038286934 5305.049650164268
1637.176292563452 5455.940172575352
1637.9252997972635 5421.420950912419
1638.674125577716 5625.920143395307
1639.4227699523672 5829.133543901093
1640.171232968767 5375.737688512217
1640.9195146744423 5619.310119569342
1641.6676151168977 5749.280561209655
1642.4155343436178 5888.814028451089
1643.1632724020765 5726.023587908182
1643.9108293397167 5742.059374098355
1644.658205203974 5649.291707705322
1645.4054000422566 6365.8410541479325
1646.1524139019566 5786.623620399959
1646.8992468304423 5784.0891094958115
1647.6458988750728 5856.001695019328
1648.3923700831765 5954.332270804832
1649.1386605020743 5830.640020151836
1649.8847701790564 6124.772100852939
1650.6306991614038 6080.225682301168
1651.3764474963682 6102.621578581342
1652.1220152311944 5746.6407962029225
1652.867402413096 6110.762034085453
1653.6126090892776 6105.235454309224
1654.3576353069184 6181.824883913489
1655.1024811131829 6012.596934678308
1655.8471465552066 6025.589775202165
1656.5916316801213 6260.453524572805
1657.3359365350298 6012.1808470996675
1658.0800611670165 5904.830300065076
1658.824005623148 5975.920966734863
1659.5677699504722 5881.576614978494
1660.3113541960192 6066.181075554667
1661.054758406799 5910.138126379614
1661.7979826297997 5770.409887842219
1662.5410269119966 5663.1846200607015
1663.283891300338 5736.510563754333
1664.0265758417645 5726.453719725984
1664.7690805831826 5731.571826492136
1665.5114055714948 5693.92511338541
1666.2535508535748 5970.084340362523
1666.9955164762814 5547.029496943905
1667.7373024864555 5572.344791624179
1668.478908930916 5600.085193335356
1669.220335856462 5510.283197908407
1669.9615833098778 5394.501389617789
1670.7026513379296 5318.97519750985
1671.44353998736 5427.682312070528
1672.1842493048916 5333.823952392507
1672.9247793372379 5189.602393452979
1673.6651301310812 5338.017806398492
1674.4053017330934 5308.721499482788
1675.1452941899242 5323.324267124249
1675.885107548207 4982.647459565145
1676.6247418545518 4901.167957446794
1677.3641971555535 5025.778684176715
1678.1034734977893 5184.739273676756
1678.8425709278108 5118.854966165737
1679.5814894921605 5226.382642420857
1680.320229237359 4916.647538882104
1681.0587902098978 4976.099030701755
1681.7971724562685 4897.21504642955
1682.5353760229264 4749.6699420326295
1683.2734009563173 4919.859998420763
1684.0112473028657 4600.43325807795
1684.7489151089794 4752.0741269694945
1685.4864044210462 4706.117848662931
1686.2237152854377 4489.722470739656
1686.960847748498 4673.290883035423
1687.6978018565642 4371.594560637542
1688.434577655944 4361.628298830575
1689.1711751929379 4280.72215800406
1689.9075945138156 4448.744855064625
1690.6438356648396 4328.584912178618
1691.3798986922448 3995.7284983214595
1692.1157836422499 4212.403235397606
1692.851490561059 4123.91735358916
1693.587019494853 4156.712571010885
1694.3223704897991 4051.3767707057514
1695.0575435920364 3847.8447067058355
1695.792538847696 4232.461278937952
1696.527356302886 3977.34909315489
1697.2619960036936 3782.6114595866748
1697.9964579961907 3834.1810297290285
1698.730742326432 3717.605680936932
1699.4648490404488 3707.8678467623818
1700.1987781842563 3824.1785258547657
1700.9325298038548 3882.0744242082196
1701.6661039452174 3994.378816097663
1702.3995006543082 3797.3001471280295
1703.1327199770658 3880.605966627457
1703.865761959416 3657.810573279637
1704.598626647261 3984.1778996261164
1705.3313140864866 3518.6559965327956
1706.0638243229587 3640.2765020895117
1706.7961574025303 3785.0283687265423
1707.528313371029 3666.5713690713246
1708.260292274268 3566.2306231345465
1708.9920941580403 3654.7014493698493
1709.7237190681226 3707.5348040369063
1710.4551670502697 3605.51406656137
1711.18643815022 3482.4590791515666
1711.9175324136959 3796.3207633135908
1712.6484498863938 3541.297349455511
1713.379190614005 3413.7396910736506
1714.109754642188 3515.6254838119867
1714.8401420165883 3457.47791658318
1715.570352782839 3699.854754449598
1716.3003869865497 3526.8011295234837
1717.0302446733076 3407.8730765845403
1717.7599258886876 3516.078750398974
1718.4894306782444 3786.332028985717
1719.2187590875183 3320.578733709288
1719.9479111620203 3709.1121575487036
1720.6768869472544 3396.5498651372823
1721.4056864887025 3675.75713298591
1722.1343098318284 3636.2211295347456
1722.8627570220742 3437.6171048779956
1723.591028104871 3309.950604536831
1724.3191231256242 3259.352296904884
1725.0470421297232 3467.1460484250383
1725.7747851625427 3488.3900003509457
1726.5023522694337 3432.5807166679697
1727.2297434957363 3525.619095751649
1727.9569588867635 3259.0665924217637
1728.6839984878152 3538.94481004693
1729.4108623441734 3186.2568246545884
1730.1375505011038 3443.4775434071635
1730.8640630038426 3279.914084387003
1731.5903998976264 3224.687952625248
1732.316561227657 3402.937554834364
1733.0425470391274 3158.23817205224
1733.7683573772065 3416.2249041743125
1734.4939922870508 3323.863152494096
1735.2194518137949 3327.021305794562
1735.9447360025606 3375.693266638972
1736.669844898439 3352.566345615063
1737.3947785465189 3134.5607487996995
1738.1195369918605 3160.256761260194
1738.8441202795093 3405.860851277027
1739.5685284544943 3377.749339003549
1740.292761561821 3334.8450675522863
1741.0168196464838 3284.066719802066
1741.7407027534518 3319.7525434230497
1742.464410927687 3251.2167839544386
1743.187944214118 3265.553559684603
1743.9113026576688 3379.1290147266263
1744.634486303241 3151.16030223094
1745.3574951957125 3295.2532209788296
1746.0803293799509 3477.5255170433156
1746.8029889008048 3311.318481237728
1747.5254738031017 3303.0076582089887
1748.2477841316504 3185.89032256506
1748.969919931249 3313.5038014783286
1749.6918812466665 3317.59883641923
1750.4136681226646 3397.595862213624
1751.1352806039777 3353.012572280989
1751.856718735331 3123.7760501756734
1752.5779825614281 3131.0673694244792
1753.2990721269507 3326.665784054488
1754.0199874765676 3261.947373699889
1754.7407286549314 3097.2662678737915
1755.4612957066693 3113.0637732623622
1756.1816886763954 3157.5106412720843
1756.9019076087097 3298.604090706266
1757.6219525481865 3269.010113047791
1758.3418235393856 3247.600080292234
1759.061520626854 3329.24700838742
1759.7810438551096 3399.7843207811566
1760.5003932686614 3044.647610059
1761.2195689119999 3373.054429035999
1761.938570829594 3193.4573664271143
1762.657399065898 3141.0412408683983
1763.376053665348 3042.4323904549424
1764.0945346723602 3073.640467310749
1764.812842131334 3323.042052644523
1765.5309760866512 3054.9933778551554
1766.2489365826787 3044.354668819259
1766.9667236637597 3213.693790506801
1767.684337374223 2962.645369599042
1768.401777758383 3103.253706203961
1769.1190448605284 3075.736486508475
1769.836138724937 3042.7102007129147
1770.5530593958665 3072.3295102132315
1771.2698069175603 3392.6040968398165
1771.9863813342326 3266.838894743786
1772.702782690094 3092.1026929673817
1773.4190110293293 3210.7052428537722
1774.1350663961111 3241.563699463578
1774.8509488345844 3037.6096808726675
1775.5666583888924 3122.951890706484
1776.2821951031437 3261.79468880421
1776.9975590214362 3072.9213434259755
1777.7127501878585 3163.0800815124758
1778.4277686464684 3166.200263543127
1779.1426144413108 3222.402748648132
1779.8572876164162 3250.0272796217946
1780.571788215797 2909.4169608103266
1781.2861162834415 3096.254611036787
1782.0002718633277 3099.336799105587
1782.7142549994132 3280.356083259795
1783.4280657356376 3279.4647933924593
1784.141704115922 3110.5820079637333
1784.855170184177 3066.325107913232
1785.5684639842839 3121.1737339609817
1786.2815855601148 2825.0703834586275
1786.9945349555237 3205.7483598315343
1787.707312214343 2971.7138264891178
1788.4199173803918 3210.7744444878495
1789.132350497468 2954.9361729263205
1789.8446116093583 2957.067411244759
1790.556700759822 2931.7820281732993
1791.2686179926077 3049.7706329728458
1791.9803633514493 3069.509451663647
1792.6919368800554 2941.646466096511
1793.4033386221236 3117.147577565443
1794.1145686213295 3203.867927895144
1794.8256269213307 3182.7180657250665
1795.536513565774 3053.3755967854777
1796.247228598284 2793.390128870668
1796.9577720624693 2951.4102802967946
1797.6681440019165 3156.545263877363
1798.3783444602013 3046.1997268075474
1799.0883734808776 3072.1588052882876
1799.7982311074884 2990.0608075286855
1800.5079173835475 3182.2338189655275
1801.2174323525633 3068.3488243609595
1801.9267760580187 2982.19687525266
1802.635948543386 3030.486497903623
1803.3449498521113 2947.2538406348704
1804.0537800276325 3029.3435723912326
1804.7624391133668 3053.5668438936573
1805.47092715271 2796.1698726890363
1806.1792441890484 2869.2879813128375
1806.8873902657433 3032.174726043802
1807.5953654261448 3126.4589919806735
1808.3031697135812 2867.017307039773
1809.0108031713662 2894.8444672057276
1809.71826584279 2867.738672068047
1810.425557771141 3040.2859502533934
1811.1326789996747 3171.238067819493
1811.839629571632 2965.45537176406
1812.5464095302468 2941.9137999252607
1813.2530189187182 2919.0557115628517
1813.959457780249 3017.110563032368
1814.6657261580076 3057.599515674815
1815.371824095153 3068.9047548812223
1816.0777516348262 3105.355170722432
1816.78350882015 2720.558952800684
1817.4890956942272 2853.26375948839
1818.1945123001533 2838.062656749031
1818.8997586809928 2894.9140021904063
1819.6048348798067 2838.7265732389474
1820.3097409396287 2938.350706722146
1821.0144769034796 3204.0445089630366
1821.7190428143622 2954.604804264133
1822.423438715261 3064.908145042426
1823.1276646491478 2852.656607800925
1823.8317206589727 2908.926795569461
1824.5356067876692 2967.6377050830497
1825.2393230781581 3006.134499574819
1825.942869573335 2788.231412878938
1826.646246316086 2779.5827268703442
1827.3494533492758 2884.479010512751
1828.052490715756 3023.961011022905
1828.7553584583547 2962.5001129675334
1829.458056619891 2914.5563389905583
1830.1605852431585 2872.583907884476
1830.8629443709433 2747.327369046167
1831.5651340460063 2921.214989545325
1832.2671543110919 2668.038373402086
1832.9690052089318 2927.565416130958
1833.6706867822395 2811.2165332019763
1834.3721990737104 2961.011566511234
1835.0735421260233 3018.448342743656
1835.774715981841 2838.757142129479
1836.4757206838058 2975.279816901216
1837.1765562745459 2945.8315136710144
1837.8772227966747 2712.3129353297472
1838.5777202927839 2823.6213729544716
1839.2780488054523 2779.0127467392863
1839.9782083772352 2821.8942630301403
1840.6781990506806 3061.5612103011226
1841.378020868313 2881.4665009791743
1842.0776738726418 2888.607357531668
1842.777158106157 2690.9426603547204
1843.4764736113375 2765.607435162776
1844.1756204306403 2875.505145408907
1844.8745986065078 2915.8213608549886
1845.5734081813607 2728.0292688239815
1846.2720491976124 2770.475623446343
1846.970521697649 2761.076636572472
1847.6688257238511 2933.6174456164363
1848.3669613185684 2728.959948922372
1849.0649285241452 2669.619988179288
1849.7627273829057 2934.7883051384574
1850.460357937156 2781.0764932581546
1851.1578202291857 2583.219117115067
1851.8551143012664 2751.9904637819263
1852.5522401956569 2875.6328242564414
1853.2491979545957 2948.213944528633
1853.9459876203055 2710.468679306789
1854.6426092349902 2691.8637963866377
1855.3390628408451 2674.4643280850637
1856.0353484800362 2979.9670306141265
1856.7314661947203 2930.3846591370348
1857.4274160270397 2624.1936738944482
1858.123198019115 2711.8822974464833
1858.8188122130487 2589.4104269226377
1859.5142586509319 2714.433153445224
1860.209537374838 2696.612502212682
1860.9046484268183 2711.696256623111
1861.599591848917 2922.9601252336442
1862.294367683151 2751.3876211616016
1862.988975971528 2596.030429135157
1863.6834167560355 2683.148994431344
1864.3776900786452 2864.3969452639944
1865.0717959813119 2689.5630761665
1865.7657345059724 2582.518718873268
1866.4595056945564 2822.641883099808
1867.1531095889586 2919.1511262326662
1867.846546231076 2523.906529979681
1868.5398156627743 2854.9159934252125
1869.2329179259123 2694.54978350297
1869.9258530623283 3016.66841796013
1870.618621113843 2709.661674323679
1871.3112221222636 2572.3205835118665
1872.0036561293764 2655.1312421535936
1872.695923176956 2682.633648838757
1873.3880233067594 2851.7689033500214
1874.0799565605212 2573.108255538691
1874.7717229799673 2716.040677122397
1875.4633226068036 2865.4188337687137
1876.1547554827175 2853.61842152493
1876.8460216493859 2635.17244547441
1877.5371211484617 2794.6370483122305
1878.2280540215852 2838.4668642615447
1878.9188203103804 2475.1229154863677
1879.6094200564548 2726.00237028338
1880.299853301396 2654.5138896256003
1880.9901200867826 3022.965465604567
1881.6802204541673 2765.061022382669
1882.3701544450942 2830.172586803213
1883.059922101087 2563.6579717361546
1883.7495234636517 2840.4123174701335
1884.4389585742792 2617.9629179984254
1885.1282274744517 2538.634858582335
1885.8173302056166 3063.7148223634595
1886.506266809225 2755.2643314713964
1887.195037326701 2557.14210563918
1887.8836417994517 2695.626548598105
1888.5720802688702 2847.781937204112
1889.260352776333 2738.9541973448504
1889.9484593632042 2824.3416122783447
1890.63640007082 2615.084009720906
1891.3241749405151 2596.5773417219916
1892.0117840135954 2710.0307393675835
1892.6992273313572 2659.286373994885
1893.3865049350788 2585.9606266646742
1894.0736168660223 2870.6058040735156
1894.7605631654333 2616.1661296798475
1895.4473438745408 2589.2265706794415
1896.133959034556 2909.3124730381423
1896.820408686679 2718.927720508337
1897.506692872088 2903.83166136246
1898.192811631945 2657.958485124256
1898.8787650073991 2597.1412363673394
1899.5645530395832 2921.662108586512
1900.2501757696118 2844.8813323917266
1900.9356332385796 2544.4583866654198
1901.620925487574 2987.13386134045
1902.3060525576602 2674.971760117079
1902.9910144898859 2757.5002907501184
1903.6758113252872 2560.3280571040477
1904.3604431048789 2691.4160785324266
1905.0449098696663 2653.3780385525206
1905.7292116606295 2630.7807468153906
1906.4133485187394 2718.617461438896
1907.0973204849488 2377.8468600977476
1907.7811276001976 2460.008719959749
1908.4647699053967 2595.393346311419
1909.1482474414588 2196.3234157662155
1909.8315602492694 2629.815397825884
1910.5147083696957 2759.863648519603
1911.1976918436012 2665.631819528285
1911.880510711815 2480.9323051517654
1912.5631650151681 2776.550804007923
1913.2456547944657 2555.533770975944
1913.927980090495 2617.2834004662786
1914.6101409440362 2549.9224237205262
1915.2921373958416 2699.5179907655684
1915.9739694866603 2686.715991179778
1916.655637257214 2750.704619138423
1917.3371407482136 2685.2237910704075
1918.0184800003572 2820.628312470738
1918.6996550543154 2716.076076034264
1919.3806659507554 2637.2324358753203
1920.0615127303208 2618.4790409907264
1920.7421954336423 2795.5328207591574
1921.4227141013343 2722.7149366819385
1922.103068773993 2649.7733586916524
1922.783259492202 2679.112450707763
1923.4632862965227 2622.017909372982
1924.1431492275078 2578.9524782578405
1924.8228483256917 2538.7609833312204
1925.5023836315922 2554.596604491253
1926.1817551857057 2329.7495206228023
1926.8609630285227 2776.2775879236806
1927.5400072005123 2677.6703468779037
1928.218887742125 2598.6824114797682
1928.8976046938005 2463.509205388663
1929.5761580959588 2614.2124430414074
1930.2545479890086 2571.1070592596907
1930.9327744133352 2358.8738757579285
1931.6108374093164 2585.593622049154
1932.2887370173066 2811.9100188359816
1932.9664732776473 2432.28545149235
1933.6440462306673 2569.097449788916
1934.3214559166754 2456.584380447761
1934.9987023759659 2630.4438785274624
1935.675785648813 2597.1904956252956
1936.3527057754836 2415.9513222151845
1937.029462796223 2823.781015204763
1937.70605675126 2346.9854574706364
1938.3824876808085 2389.527411357103
1939.058755625072 2507.4475274298006
1939.7348606242267 2531.2907718702295
1940.4108027184448 2557.1164995311424
1941.0865819478713 2697.668016612402
1941.7621983526478 2553.4370984767074
1942.4376519728921 2428.0051955907043
1943.1129428487038 2526.6171349302117
1943.7880710201734 2659.947619289759
1944.4630365273733 2724.3048653726096
1945.1378394103576 2400.0852866696937
1945.8124797091714 2354.36220413782
1946.4869574638324 2308.4660059296566
1947.161272714353 2497.8136742933666
1947.8354255007234 2581.2319737966072
1948.5094158629272 2469.5196297809066
1949.1832438409183 2609.1065556618755
1949.8569094746435 2647.269906285721
1950.530412804037 2707.7839261722847
1951.2037538690092 2707.2887885916502
1951.8769327094578 2366.9629631087005
1952.5499493652678 2512.7904105849307
1953.222803876306 2692.7920764704645
1953.895496282421 2580.020354326495
1954.5680266234522 2640.299198468555
1955.2403949392155 2539.746186246908
1955.9126012695142 2333.66395700596
1956.5846456541403 2429.796445367799
1957.2565281328643 2394.2650131160312
1957.9282487454457 2547.3403453659225
1958.5998075316202 2589.26742486674
1959.27120453112 2419.998827302915
1959.9424397836501 2474.8072279866315
1960.613513328908 2685.57470441259
1961.2844252065697 2779.9336127629444
1961.9551754563017 2432.614645894307
1962.6257641177453 2414.7481086548787
1963.29619123054 2239.450561923747
1963.966456834296 2351.039660805205
1964.6365609686181 2308.146966329543
1965.306503673086 2637.381798586948
1965.976284987275 2340.2341971061824
1966.645904950734 2524.784669193263
1967.315363603002 2207.4014024629114
1967.9846609836077 2445.153442179201
1968.6537971320486 2281.2303951110266
1969.3227720878222 2448.864907195823
1969.9915858904042 2357.7773624717406
1970.660238579252 2610.522297767348
1971.3287301938108 2475.1505482433286
1971.997060773514 2400.221093118581
1972.665230357772 2342.322637748935
1973.3332389859843 2355.914536957135
1974.0010866975335 2279.549737737723
1974.6687735317864 2487.8556615516895
1975.3362995280932 2472.148568399614
1976.003664725793 2536.7900263165143
1976.6708691642052 2221.5048431789164
1977.3379128826364 2542.4226833821403
1978.004795920373 2495.1923346194626
1978.6715183166925 2731.7310817994594
1979.3380801108524 2279.743113235818
1980.0044813420973 2402.7890056607744
1980.6707220496555 2232.700127342384
1981.3368022727373 2383.15440581074
1982.0027220505417 2516.046991097914
1982.66848142225 2150.1175203893918
1983.3340804270283 2329.4372734050385
1983.999519104027 2334.7726831691843
1984.6647974923835 2524.7866867184107
1985.329915631215 2477.0964517178472
1985.99487355963 2363.8810389189716
1986.6596713167146 2590.5055597841097
1987.3243089415428 2335.9504440574783
1987.9887864731754 2432.7305404138024
1988.6531039506553 2194.6516426887683
1989.3172614130071 2655.007677373497
1989.9812588992481 2359.1498165718995
1990.645096448372 2142.731759532949
1991.3087740993633 2282.3835811801955
1991.9722918911848 2280.431697305549
1992.635649862792 2437.7703110648886
1993.2988480531185 2466.4979272681635
1993.9618865010852 2794.190375269131
1994.6247652455968 2288.3472782974486
1995.287484325545 2219.5350221153763
1995.9500437798033 2261.828974292096
1996.6124436472292 2377.8184897866104
1997.2746839666706 2423.6084558895486
1997.936764776954 2195.25972482529
1998.598686116895 2294.215155756706
1999.2604480252903 2462.082795446784
1999.9220505409212 2549.110599471441
2000.5834937025593 2264.007099933395
2001.2447775489582 2306.4566536745383
2001.9059021188514 2466.2429086972684
2002.5668674509616 2500.314791728505
2003.2276735839987 2196.823558335636
2003.8883205566508 2384.2439841554624
2004.5488084075987 2358.995204540197
2005.2091371755014 2315.1187322916903
2005.8693068990033 2089.169116984968
2006.5293176167397 2401.5199824024958
2007.1891693673224 2252.3473758955397
2007.848862189354 2240.0478595110126
2008.5083961214223 2277.7714753155806
2009.1677712020955 2174.3277343061827
2009.8269874699254 2203.0012417372845
2010.4860449634598 2209.468380012621
2011.1449437212177 2216.082718517003
2011.8036837817108 2517.0780544732356
2012.4622651834325 2413.953930778369
2013.1206879648653 2388.2027896282843
2013.7789521644736 2461.128492970506
2014.4370578207036 2137.85966350884
2015.0950049719922 2272.7477464153935
2015.7527936567585 2416.42239382203
2016.4104239134067 2169.625000885347
2017.067895780323 2502.752703036474
2017.725209295886 2022.1837337148252
2018.3823644984514 2447.140181572012
2019.0393614263648 2292.213355318726
2019.6962001179545 2378.272527624746
2020.3528806115355 2492.2487438530516
2021.0094029454067 2454.040526950249
2021.6657671578487 2243.830121081759
2022.321973287133 2426.670337089413
2022.9780213715148 2236.3589699574377
2023.6339114492293 2295.53316839224
2024.2896435585026 2304.533675839776
2024.9452177375442 2364.258269772063
2025.600634024544 2440.4529992225143
2026.2558924576842 2433.8196426570294
2026.9109930751292 2513.7243187717263
2027.565935915025 2308.946382618175
2028.2207210155066 2487.641630530878
2028.8753484146964 2599.478636966314
2029.529818150695 1986.336411667727
2030.1841302615903 2299.2574750984995
2030.8382847854573 2325.6677127743774
2031.4922817603601 2350.8131861611846
2032.1461212243357 2310.0298598617
2032.7998032154192 2181.127819788444
2033.4533277716218 2306.3369764427985
2034.1066949309443 2233.7650432381447
2034.7599047313688 2126.77705246289
2035.4129572108704 2321.0236559887426
2036.0658524074006 2209.3371022185756
2036.7185903589016 2416.031790152984
2037.3711711032956 2304.3766462667254
2038.023594678496 2356.1073068531177
2038.675861122394 2272.2382224901
2039.3279704728757 2474.9704935302416
2039.9799227678031 2186.5914476781154
2040.6317180450278 2238.130146745313
2041.2833563423865 2285.4262077608946
2041.9348376977014 2481.8163318267866
2042.5861621487784 2370.221484269051
2043.2373297334088 2288.284423864784
2043.8883404893695 2374.4455206595358
2044.5391944544208 2420.3473966708907
2045.1898916663158 2411.314576793161
2045.8404321627804 2412.10444231874
2046.4908159815368 2242.5081468041612
2047.1410431602853 1997.4496530900724
2047.7911137367173 2304.550512715654
2048.441027748504 2512.0496926070537
2049.090785233302 2048.7351441684013
2049.7403862287592 2152.915665594326
2050.389830772503 2452.603522717546
2051.0391189021466 2126.853624266045
2051.688250655294 2211.173238517236
2052.337226069527 2211.3750354881186
2052.986045182417 2397.4683016300887
2053.634708031521 2000.5526637254952
2054.283214654375 2284.048417002582
2054.931565088511 2002.8321524677024
2055.579759371436 2152.518637327225
2056.2277975406523 2110.214661776713
2056.8756796336384 2380.9595347442623
2057.5234056878617 1930.8371881214266
2058.1709757407752 2201.220437173922
2058.8183898298194 2405.8174598171545
2059.465647992416 2315.7036575111424
2060.1127502659747 2356.8144438523873
2060.759696687888 2081.69913927809
2061.4064872955405 2321.0602222468965
2062.053122126292 2335.0164355579773
2062.699601217497 2060.0215864975594
2063.345924606485 2144.5104409461446
2063.992092330587 2188.3388719431414
2064.638104427102 2328.754875063171
2065.283960933324 2427.334280461485
2065.92966188653 2271.6156834690537
2066.5752073239855 2307.8122120659127
2067.2205972829397 2083.7390268038357
2067.86583180062 2406.5031991120077
2068.5109109142522 2248.3078021495107
2069.15583466104 2140.0755219926677
2069.8006030781708 2031.744696737775
2070.445216202821 2120.412664161886
2071.089674072153 2306.0326888810473
2071.7339767233116 2470.155283699459
2072.3781241934303 2247.67724284843
2073.0221165196253 2183.699898097878
2073.6659537390024 2320.7369814631243
2074.3096358886505 2318.6014731508735
2074.953163005637 2133.6148612695733
2075.596535127028 2017.1033717490743
2076.2397522898664 2180.9602320051044
2076.882814531182 2189.2390092802098
2077.5257218879924 2361.4438967864107
2078.1684743973 2108.3043125704726
2078.8110720960885 2083.2141702667664
2079.453515021336 2456.550128748505
2080.095803209997 2275.248881918843
2080.7379366990135 2235.0835278438
2081.37991552532 2283.389788934098
2082.0217397258275 2436.444292479998
2082.6634093374414 2020.8683748670258
2083.3049243970418 2123.3717419119366
2083.9462849415067 2198.4718835013
2084.587491007689 2150.4091446323496
2085.2285426324324 2214.4289174468495
2085.869439852564 2048.738466327713
2086.510182704902 2058.6139744452494
2087.1507712262483 2237.5084705563163
2087.791205453381 2069.1241183675756
2088.4314854230743 2170.5601290670684
2089.0716111720867 2195.5463529958574
2089.7115827371617 2055.6809006676335
2090.351400155023 2054.5490393716173
2090.991063462385 2053.519527354322
2091.6305726959527 1968.1752371214723
2092.2699278924047 2360.7145480240342
2092.9091290884153 1990.9542785150431
2093.548176320641 2057.3723260278794
2094.187069625721 2211.6681599621616
2094.8258090402887 1921.390034770179
2095.464394600951 2262.2423614566665
2096.102826344313 2149.7443932161887
2096.741104306955 2395.2960608483118
2097.379228525453 2125.129540242162
2098.017199036358 1996.811084098082
2098.6550158762147 2264.202991789387
2099.2926790815527 2326.8544914489867
2099.9301886888825 2151.004820078907
2100.5675447347076 2094.1746537261533
2101.2047472555114 2344.9701913281674
2101.841796287761 2082.0340539777467
2102.47869186792 2102.0521918534387
2103.1154340324265 2021.1991321601345
2103.752022817709 2169.622910822573
2104.388458260184 2082.7471565584447
2105.024740396251 2102.9300126174376
2105.660869262292 1990.7895666021784
2106.296844894685 2196.065436729
2106.93266732978 2080.2750300265043
2107.5683366039284 2031.2917434226397
2108.2038527534532 2120.0554144107255
2108.8392158146726 2157.484356298553
2109.4744258238843 2056.8864190922454
2110.1094828173755 2002.9761815297807
2110.744386831422 2370.53666891651
2111.3791379022787 2195.151165987846
2112.01373606619 2270.5220713675976
2112.648181359389 2231.200510173834
2113.28247381809 2326.136265162272
2113.916613478492 2318.175646953753
2114.550600376786 2236.0310922596655
2115.1844345491445 1926.3052939025206
2115.818116031729 2076.86449444299
2116.451644860679 2098.5261391826907
2117.085021072133 1964.0725060012198
2117.718244702204 2111.1398938652537
2118.3513157869984 1998.2216324553533
2118.984234362604 1998.695922559431
2119.617000465092 2019.8897085294416
2120.249614130529 2397.356443990041
2120.8820753949585 2107.6244528493157
2121.5143842944162 2067.6657089048895
2122.14654086492 2177.5220090908624
2122.7785451424734 2351.6866618662807
2123.4103971630702 1822.9300935635288
2124.042096962681 2093.615113543432
2124.6736445772767 2187.6068657468413
2125.305040042802 1788.045118254558
2125.936283395191 2166.363500107508
2126.567374670365 2191.4884955642824
2127.198313904233 1972.2765330738464
2127.8291011326855 1954.5993055390543
2128.4597363916037 1936.6528195205851
2129.0902197168507 2109.9192923555584
2129.720551144279 1937.3749469525417
2130.3507307097225 2207.694097126457
2130.980758449008 2163.011844385925
2131.6106343979427 2055.8253141162045
2132.2403585923203 2348.8054689523483
2132.8699310679276 2100.3908402704233
2133.499351860526 2211.2802659028685
2134.1286210058715 2049.962727740617
2134.7577385397053 1849.7964955382936
2135.3867044977487 2322.2752614986302
2136.0155189157176 2336.2319851356983
2136.644181829308 2088.661067250776
2137.2726932742025 2224.3057570850688
2137.901053286074 2305.1003208912707
2138.5292619005777 1897.871740959898
2139.1573191533535 2012.6006696214422
2139.7852250800315 2181.6471116914445
2140.4129797162295 2174.8476027193024
2141.0405830975433 1859.4373751560374
2141.6680352595613 1934.3401754147471
2142.2953362378576 2009.4084993734791
2142.9224860679915 1951.987121417635
2143.549484785508 2056.330089469966
2144.1763324259373 1967.1904509237788
2144.803029024799 2007.060748606683
2145.429574617594 2022.8093380491914
2146.0559692398165 2043.523876136686
2146.682212926942 2200.011237935584
2147.308305714432 1993.0348173201078
2147.9342476377333 2260.054276788821
2148.5600387322847 2391.173256397153
2149.185679033506 2365.880454644592
2149.8111685768017 2079.4989942347875
2150.4365073975678 1801.8225355741554
2151.061695531187 1943.7675324566655
2151.686733013021 2263.724321438643
2152.311619878423 2153.5234432664047
2152.9363561627342 2043.122502686237
2153.560941901278 1808.1218036040882
2154.1853771293663 2091.949780936188
2154.809661882293 2062.8168456145736
2155.433796195348 2268.4198240898927
2156.0577801037944 1979.204549465634
2156.681613642895 2089.3615925926742
2157.3052968478896 1835.4876872589593
2157.928829754006 2096.069185053645
2158.552212396462 2094.3332621797863
2159.1754448104566 2085.0181681551735
2159.7985270311783 1874.8875121155475
2160.4214590938027 1584.7459683415816
2161.0442410334927 1764.0431773847472
2161.6668728853874 1981.2285383826352
2162.289354684628 1844.6971946577128
2162.911686466332 2006.8184829275901
2163.533868265602 1991.783311995753
2164.1559001175337 2348.6314740931593
2164.7777820572046 2072.95956708448
2165.399514119681 2047.3252728956227
2166.021096340013 1890.4095199228716
2166.6425287532384 2101.2503605525994
2167.263811394385 1893.5290983166276
2167.8849442984574 2205.311930261993
2168.505927500455 1968.9913313620477
2169.126761035366 1928.180057230331
2169.7474449381552 1879.6180130397424
2170.367979243778 1806.2004383741812
2170.9883639871823 2123.2133980488293
2171.608599203293 1876.7927007390626
2172.2286849270276 2326.175479070285
2172.8486211932886 2339.7995976463517
2173.4684080369625 2088.5254371336564
2174.0880454929265 1748.1430454139856
2174.7075335960417 1879.770742552893
2175.3268723811543 2109.59934703479
2175.9460618831 1703.0709297478402
2176.565102136701 1992.9966083095321
2177.1839931767627 2340.8137500434013
2177.802735038078 2056.7600510556726
2178.421327755432 1847.8266525891281
2179.0397713635866 1858.246336847002
2179.658065897298 1922.01169750493
2180.276211391305 1989.8508089190072
2180.8942078803357 1988.1806441992157
2181.5120553991 1948.9183470689063
2182.129753982299 1731.1816492031758
2182.7473036646206 2010.9962604048367
2183.3647044807367 2116.784184255609
2183.9819564653044 1856.9154086036174
2184.599059652968 2028.9279606733412
2185.216014078367 1963.9923966137183
2185.832819776113 1717.8893006255537
2186.4494767808137 1942.9656000092677
2187.065985127063 1767.743272679015
2187.682344849436 1793.8579175974312
2188.298555982501 2157.512473139551
2188.9146185608097 2102.29811363948
2189.530532618901 2166.467543748422
2190.1462981912937 2005.0987173435165
2190.761915312507 2104.7387699571536
2191.377384017036 1920.0497310485068
2191.9927043393654 1900.030732689354
2192.6078763139667 2081.962338051101
2193.2228999753006 1785.6541102903343
2193.837775357808 1982.2753378541136
2194.452502495922 1785.8782018027566
2195.0670814240602 1998.6478549639644
2195.6815121766285 1674.32085269608
2196.2957947880186 1702.7715319060248
2196.9099292926057 1731.2855713001868
2197.523915724758 1975.1335415807807
2198.137754118825 1951.0706112995042
2198.7514445091456 2307.4597006890576
2199.3649869300443 2339.081468808777
2199.9783814158327 2370.8753291598423
2200.5916280008096 2160.750540469818
2201.2047267192593 2052.644634417127
2201.8176776054515 1973.4156982251989
2202.430480693649 1960.6573008752744
2203.0431360180955 2199.537640069257
2203.6556436130195 2157.8844264549753
2204.268003512645 1717.505377741417
2204.8802157511727 1933.4886145462874
2205.492280362796 1901.3316981492105
2206.1041973816937 1869.1273843052138
2206.715966842032 2003.6687803127138
2207.3275887779655 2104.7996141075855
2207.93906322363 2196.1581539475524
2208.550390213153 2062.2163431580775
2209.1615697806465 2105.1649243449547
2209.7726019602105 1812.2362241371666
2210.3834867859277 1782.446248596468
2210.9942242918787 1734.0194734202644
2211.6048145121167 1740.4683398453471
2212.2152574806914 1848.597202189148
2212.825553231638 1956.84007201826
2213.435701798975 2387.823720265092
2214.045703216707 2096.277113699857
2214.655557518832 1657.3161002348102
2215.2652647393297 1766.5413161415167
2215.874824912169 1566.854140906606
2216.4842380713 1979.2838653592662
2217.09350425067 1752.6964282920696
2217.7026234842033 2179.387350540985
2218.311595805819 2012.4145680036356
2218.9204212494133 1857.7762337875386
2219.52909984888 2115.7777415557675
2220.137631638092 1682.9957080358963
2220.7460166509154 2167.429854335515
2221.354254921198 1689.164797587861
2221.9623464827764 2174.398258327798
2222.5702913694713 1981.0472767998192
2223.178089615096 2089.2916568456644
2223.7857412534486 2052.379815994147
2224.39324631831 1606.276378592749
2225.000604843457 1860.044533062366
2225.607816862641 1868.858340433017
2226.214882409611 1964.2312838572445
2226.8218015180973 2087.0783803946497
2227.4285742218217 1849.822226503598
2228.0352005544864 1997.0811065771686
2228.6416805497847 1786.7866209774988
2229.248014241399 1913.758035155251
2229.8542016629945 1777.0735738699132
2230.460242848223 1949.1685917185976
2231.0661378307304 1779.7961995667986
2231.671886644139 2028.427483028697
2232.277489322065 1776.904833883197
2232.8829458981127 1564.338877833067
2233.48825640587 1945.025764354005
2234.0934208789095 2225.780795606468
2234.6984393507955 2032.0845101433774
2235.3033118550793 1810.4805797124113
2235.9080384252975 1928.5005137836033
2236.5126190949723 1794.21891579617
2237.1170538976166 1617.4112359951728
2237.721342866729 1773.7240365058308
2238.32548603579 1731.2750622646643
2238.9294834382763 1952.3587704547117
2239.533335107646 2057.9766981877146
2240.1370410773434 1857.1617267028043
2240.740601380803 1725.0228816506926
2241.3440160514474 1964.3981080828132
2241.9472851226783 2015.9837715956915
2242.550408627896 1851.3638775795498
2243.1533866004793 2093.004101648402
2243.756219073799 1788.195780694894
2244.3589060812064 1779.4365423510376
2244.961447656049 1751.4940455703568
2245.5638438316564 1761.9710305194378
2246.166094641343 2029.945035089572
2246.7682001184166 1732.7723160935634
2247.3701602961664 1764.1330836213133
2247.971975207871 1982.5226024788597
2248.5736448867974 1974.0509181113648
2249.175169366197 1724.639296590729
2249.7765486793123 1836.2570290990855
2250.3777828593684 1831.7814873742852
2250.9788719395783 1867.4139340093038
2251.579815953146 2032.7346130816372
2252.1806149332606 1987.7745050087276
2252.781268913097 1942.7047771279563
2253.381777925817 1794.470003306109
2253.9821420045737 1942.0660865474024
2254.5823611825035 2030.042242194269
2255.1824354927303 1878.6720571744222
2255.782364968365 1781.081429880352
2256.38214964251 1683.4112282885203
2256.9817895482483 1597.6574097858932
2257.5812847186553 1839.0946750679432
2258.180635186791 1806.0312310743125
2258.779840985704 1938.3820622256183
2259.37890214843 1855.7920371726145
2259.97781870799 2099.9670196766792
2260.5765906973957 1859.110640567492
2261.175218149645 1983.0082975352052
2261.773701097718 2013.4481489046204
2262.3720395745895 1538.986098896179
2262.970233613216 1715.744657520164
2263.568283246548 1848.8105281694232
2264.1661885075137 1666.8373914282354
2264.763949429038 1520.9391135497674
2265.3615660440246 1543.9949991605954
2265.959038385374 1567.0899643561095
2266.5563664859637 2040.7911584146063
2267.153550378669 1736.7112358513045
2267.7505900963424 2060.822921296943
2268.3474856718312 1800.6847673380628
2268.9442371379664 1802.446146349721
2269.5408445275643 1717.2989440777922
2270.1373078734377 1962.0789335570194
2270.7336272083758 1702.5996895282394
2271.32980256516 1957.0618671229604
2271.925833976562 1966.749801103396
2272.5217214753357 2122.1800880006513
2273.117465094223 1608.2144431336471
2273.7130648659586 1765.0743806359776
2274.308520823257 1817.5838969748352
2274.903832998827 1837.841296544097
2275.4990014253563 1788.7357792412568
2276.094026135528 1822.845867134239
2276.6889071620117 1813.7022485165694
2277.2836445374614 1861.6677048270078
2277.878238294519 1788.9133430101515
2278.472688465812 1606.7834789591739
2279.066995083962 1424.3243669780745
2279.6611581815705 1667.304075541264
2280.255177791232 1786.5104542313425
2280.8490539455233 1840.7385559445709
2281.442786677013 1895.1677337857095
2282.0363760182554 1980.9438102996871
2282.6298220017943 1753.9450516339434
2283.223124660155 1739.4260558425783
2283.816284025859 1724.9694307538398
2284.4093001314086 1887.9257033114968
2285.002173009292 1625.7280306184828
2285.5949026919952 1928.399877641506
2286.1874892119777 1817.7132596184135
2286.7799326016993 1943.7683277117226
2287.3722328936 1838.9394501441766
2287.964390120109 1870.6374677064068
2288.556404313642 1902.2596929089461
2289.1482755066027 2050.438938902256
2289.7400037313873 1763.4555673239015
2290.3315890203703 1867.4420294283195
2290.9230314059205 1878.4040707063002
2291.5143309203904 1601.6929161539565
2292.1054875961236 1884.7652982397685
2292.6965014654506 2241.32129751464
2293.287372560684 1666.4399098214205
2293.878100914131 2279.2421394988805
2294.468686558086 1695.4205873652022
2295.059129524827 1780.0028186513562
2295.649429846617 1710.2961482508993
2296.239587555716 1640.389853790814
2296.8296026843636 1736.2021625654804
2297.419475264791 1765.0240562107865
2298.0092053292137 1793.7901008722474
2298.598792909839 1972.8908277103565
2299.1882380388597 1955.1991570685227
2299.777540748455 2078.3571041474434
2300.3667010707904 1941.799520385985
2300.9557190380256 1949.3540206587415
2301.544594682302 2075.622520381958
2302.1333280357503 1606.1501019952173
2302.721919130485 1860.9256028170482
2303.3103679986198 2045.3597683576222
2303.898674672242 1984.0471574969783
2304.486839183437 1902.7471966908124
2305.0748615642697 1821.5299871216407
2305.6627418468015 1894.4243871252238
2306.2504800630704 1660.6877633687272
2306.8380762451143 1968.2366913367944
2307.425530424949 1907.3571156792993
2308.012842634582 1846.3229489550017
2308.6000129060103 2007.4513396794646
2309.187041271214 1809.9141777113575
2309.773927762164 2049.4803113094904
2310.3606724108213 1786.4798859090952
2310.9472752491274 1672.8883923896308
2311.5337363090184 1770.451079571562
2312.120055622414 1868.2693413094607
2312.706233221221 1723.3182967370144
2313.2922691373424 1704.152086415433
2313.8781634026564 2065.5187773008497
2314.463916049037 1801.9393070563533
2315.049527108342 1988.2835813251513
2315.6349966124235 2150.335422693514
2316.2203245931123 1885.8043764410327
2316.8055110822315 1564.5086815144432
2317.3905561115935 1746.3366357234531
2317.9754597129977 1615.9692072103967
2318.560221918229 1638.4808477965223
2319.1448427590603 1661.0793113392585
2319.729322267256 1802.4578664674386
2320.313660474563 1653.477247103026
2320.8978574127195 1950.1197267380248
2321.481913113452 1942.7520490373213
2322.0658276084705 1835.3386159024515
2322.6496009294806 1717.6430965627521
2323.233233108165 2074.792764307581
2323.8167241762058 1943.6724559705333
2324.4000741652617 1719.8293691599138
2324.983283106987 1969.0170573933156
2325.5663510330232 2005.0310065148878
2326.1492779749933 1747.908508889279
2326.7320639645204 1680.4906753075793
2327.3147090332004 1648.1574528165536
2327.897213212629 1766.6763107346214
2328.4795765343843 1885.2238631657724
2329.0617990300307 1658.205857607173
2329.643880731124 1669.3955517870193
2330.22582166921 1680.6840846849877
2330.807621875816 2015.604999909774
2331.3892813824623 1563.0004598303306
2331.9708002206517 1625.508103739065
2332.5521784218818 1971.8655118714814
2333.133416017634 1722.283030323028
2333.7145130393765 1589.6544257144951
2334.295469518571 1995.1473371734032
2334.876285486658 1975.1529407578716
2335.456960975076 1967.9498645156068
2336.037496015242 1960.7647738641658
2336.6178906385667 1856.9105242223627
2337.198144876451 1747.7125566925952
2337.778258760278 1911.0097349363837
2338.3582323214214 1860.8723560582032
2338.938065591243 1810.5717225516903
2339.517758601087 2053.5756444317567
2340.0973113822965 1952.407413333936
2340.676723966193 1778.5075771227778
2341.255996384094 1868.38973059557
2341.835128667295 1861.6485439153723
2342.4141208470883 1934.4788121162899
2342.992972954751 1842.9272253958316
2343.5716850215467 1874.265364124636
2344.1502570787306 1721.6544291178484
2344.7286891575386 1579.0874242834368
2345.3069812892045 1721.2831797095641
2345.885133504944 1863.5884787900097
2346.4631458359618 1870.1605188513809
2347.04101831345 1604.8192264283944
2347.6187509685915 1710.4264087093081
2348.196343832553 1699.2493502216141
2348.7737969364935 1829.4528330341655
2349.351110311558 1476.0316603350152
2349.9282839888765 1641.297147197613
2350.5053179995757 1560.2492500826675
2351.0822123747585 1382.891820650395
2351.658967145526 1505.7615113721229
2352.2355823429643 1628.925820296189
2352.812057998144 1804.1706081888121
2353.3883941421263 1651.3521164103743
2353.9645908059647 1798.994066074942
2354.540648020693 1749.8609804093353
2355.116565817336 1446.90305949861
2355.6923442269126 1826.0339016183007
2356.2679832804224 1861.5957074070652
2356.8434830088518 1828.2326032606252
2357.41884344318 1745.1690602033366
2357.994064614377 1941.7697304336475
