#exp_cfg={"servo_angle": 0.0, "laser_lim": 100.0, "servo_angle_to": 18.0, "laser_wup": 0.0, "bt_dev": "EnSpectr-25AE3", "laser_wdn_max": 0.0, "frames": 10.0, "servo_used": 0, "servo_calib_use": 0, "laser_wdn_min": 0.0, "servo_pix_from": 90.0, "cooler_tout": 300.0, "servo_angle_from": 0.0, "servo_calib": "[-1.9174921013161362e-09, 3.9322238269163779e-05, -0.27385609119055809, 653.59552119713567]", "laser_autoctl": 0, "servo_pix_to": 3682.0, "laser_pw": 100.0, "cooler_on": 0, "laser_volt": 4.0, "cooler_autoctl": 0, "cooler_curr": 70.0, "cooler_startup": 10.0, "laser_fixed_pw": 0, "gain": 1.3, "offset": 2.53059635486, "servo_calib_degree": 3.0, "laser_curr": 55.0, "shutter": 8200.0, "servo_calib_step": 1.0, "laser_fixed_curr": 0, "exp": 2000.0, "ccd_volt": 4.7, "bt_addr": "00:06:66:62:5A:E3", "servo_delay": 500.0, "laser_autooff": 1}
#proc_cfg={"flat_auto_wnd": 200.0, "flat_auto_fr": 200.0, "flat_auto_shift": 5.0, "yconv": 1, "flatten": 1, "flatten_strength": 100.0, "xfrom": 300.0, "auto_max_frame": 2000.0, "auto_signal": 48000.0, "flat_auto_tol": 0.1, "autoclip": 1, "xrel_range": 0.0, "flat_auto_to": 4000.0, "intensity_adj": 1.0, "xrel": 7852.0, "rmhot": 1, "flat_auto_slit": 4.999999999999997, "auto_ini_exp": 300.0, "auto_off": 0, "xto": 2860.0, "flat_auto_ref": "", "flat_auto_rank": 1, "autobackg": 0, "xrel_adj": 0.0, "auto_black_lvl": 1, "base_wnd": 100.0, "sub_baseline": 0, "xconv": 2, "auto_max_exp": 1000.0, "auto_total_exp": 10000.0, "auto_exp": 0, "rmripple": 0, "black_lvl": 8276.975, "shutter_clip_adj": 0.0, "auto_bckg": 0, "flat_auto_thr": 0.9, "subbackg": 1}
316.8218498245369 11178.25930992697
317.89969571804795 11028.741234321353
318.977263876126 10975.584185626023
320.05455438786703 10839.690069537375
321.1315673423287 10831.018495146427
322.2083028285215 10929.565373144114
323.2847609354267 10745.724997208405
324.3609417519747 10745.970899541646
325.43684536705587 10755.540462611989
326.5124718695279 10692.952794914938
327.58782134820103 10679.021444823033
328.66289389184385 10672.321852887831
329.7376895891921 10534.43129505444
330.8122085289342 10558.896039679541
331.88645079971866 10539.558041775636
332.9604164901575 10467.442947465423
334.03410568881554 10421.401365965117
335.1075184842266 10518.744835699656
336.18065496487543 10312.4063364975
337.2535152192122 10412.21663489013
338.32609933564163 10433.52982715367
339.39840740253203 10443.370508804537
340.4704395082099 10305.23066527134
341.5421957409617 10222.938015068052
342.6136761890357 10340.513480898142
343.6848809406365 10187.946740796388
344.75581008392874 10064.922641383504
345.82646370703696 10080.166547937308
346.8968418980512 10089.033378321003
347.96694474501055 10108.115914105927
349.0367723359268 10064.849903905322
350.106324758759 10010.334992874992
351.1756021014353 9915.300423636492
352.2446044518383 9877.47640497974
353.31333189781435 10024.035291424927
354.38178452716966 9900.97416510414
355.449962427665 9907.593970597172
356.51786568702846 9879.120716975389
357.58549439294256 9964.474421508872
358.6528486330535 10017.934890286753
359.71992849496564 9825.609039069244
360.7867340662433 9919.048725272507
361.8532654344144 9895.031361990481
362.9195226869597 9887.289966555592
363.9855059113288 9832.73886896834
365.05121519492604 9759.39399591643
366.11665062511565 9857.103166265986
367.1818122892273 9830.52359891038
368.2467002745434 9923.618689424771
369.31131466831175 9858.750052306708
370.375655557742 9867.667851436436
371.4397230299983 9911.942657435919
372.5035171722102 9806.469955599274
373.5670380714637 9853.392441068649
374.6302858148101 9974.549101561513
375.6932604892554 9894.193596478606
376.7559621817709 9910.74196019107
377.81839097928605 9775.599323620041
378.8805469686886 9758.530629987927
379.94243023683157 9897.124510683356
381.0040408705263 9873.403856648616
382.0653789565458 9681.832291758528
383.1264445816196 9647.947329681043
384.1872378324406 9712.690611736187
385.2477587956637 9713.408171407946
386.3080075579037 9665.704337066594
387.3679842057336 9507.676014715904
388.4276888256918 9629.869589022404
389.48712150426945 9612.685567402461
390.54628232792857 9537.506894385
391.6051713830857 9474.567170469443
392.66378875611736 9546.44248904435
393.7221345333637 9469.010390415342
394.7802088011249 9420.222753675112
395.838011645661 9430.641230349966
396.89554315319765 9365.7823773766
397.9528034099112 9325.255458427273
399.00979250194723 9252.18526061146
400.06651051541485 9286.260426985591
401.1229575363741 9327.876467118225
402.17913365085224 9265.735655151842
403.23503894483656 9285.175650075831
404.2906735042761 9223.174453053514
405.3460374150818 9110.067829242313
406.401130763119 9175.203777040257
407.455953634224 9221.156025306456
408.5105061141876 9089.95758511998
409.56478828876243 9020.355503108523
410.6188002436629 9098.432478985838
411.6725420645689 9022.55322757388
412.72601383711117 9077.446365912316
413.77921564689314 9133.99855577502
414.8321475794728 9037.60114662369
415.88480972036814 8977.578356699425
416.93720215506437 8931.30811958749
417.9893249690049 9011.198001473384
419.04117824759123 8836.379332204177
420.09276207619223 8844.857597626315
421.144076540133 8845.830913634785
422.1951217247042 8833.262346005566
423.24589771515275 8853.048454460093
424.2964045966928 8828.538586785855
425.34664245449494 8892.011672784622
426.3966113736933 8844.774989197616
427.4463114393875 8822.560711228205
428.49574273662984 8825.701615568962
429.5449053504417 8736.918754835573
430.5937993658026 8795.585220161494
431.6424248676558 8784.423580149865
432.6907819409007 8784.578452937563
433.73887067040596 8857.581166123367
434.7866911409965 8786.29013952184
435.8342434374608 8774.841564966951
436.88152764455117 8786.375994101898
437.9285438469724 8742.509888257719
438.9752921294057 8715.850802071727
440.02177257648145 8730.15188163904
441.06798527279716 8635.969198507704
442.1139303029122 8846.550248931315
443.1596077513459 8961.010904301376
444.2050177025794 8719.712664125564
445.25016024105753 8777.092245416552
446.2950354511886 8659.90682239395
447.33964341733736 8734.582980307378
448.383984223834 8661.881092889033
449.4280579549686 8560.71928631078
450.471864694995 8623.65095778713
451.5154045281306 8636.212618840651
452.5586775385509 8556.671066550487
453.60168381039693 8575.737185491156
454.64442342776783 8702.215938981983
455.6868964747264 8598.015054538933
456.7291030353008 8544.620668657884
457.77104319347563 8572.310619468266
458.8127170332027 8488.469448297488
459.854124638392 8544.370653699661
460.895266092919 8536.028944185304
461.93614148061897 8597.529307941333
462.97675088529104 8590.79652586192
464.01709439069236 8539.93771619085
465.0571720805492 8526.508554616403
466.0969840385442 8541.438006585702
467.1365303483253 8705.910870158357
468.17581109350067 8519.300338140945
469.2148263576437 8450.623066213226
470.2535762242878 8538.550004226661
471.29206077693016 8610.556998881328
472.33028009902773 8661.93694413685
473.3682342740012 8570.98436068835
474.40592338523857 8536.03022022951
475.4433475160804 8601.398285799976
476.4805067498364 8567.97014625991
477.51740116978 8539.205778316547
478.5540308591426 8643.918031564222
479.59039590112116 8719.85170836987
480.6264963788726 8593.25619382551
481.6623323755193 8767.479993602936
482.6979039741436 8752.037421804933
483.7332112577915 8849.635520970132
484.76825430947247 9066.330014565021
485.80303321215797 8975.376730128752
486.837548048783 9037.856007281796
487.8717989022425 9168.331259052644
488.90578585539697 9209.324603394756
489.9395089910686 9353.264496151298
490.97296839203955 9182.772439704622
492.00616414106116 9168.983719232714
493.0390963208429 9152.803969027565
494.0717650140559 9245.18691080953
495.10417030333883 9101.071908084888
496.1363122712901 9151.2635031963
497.16819100046814 9024.408720357556
498.1998065734024 8900.910784618509
499.2311590725767 8865.17572634678
500.26224858044407 8785.05443237607
501.2930751794156 8666.207351549794
502.3236389518679 8731.376282050198
503.35393998014115 8544.014095988692
504.38397834653733 8576.645630118535
505.4137541333221 8492.789278248269
506.4432674227228 8386.977216898178
507.4725182969323 8351.25975284071
508.5015068381035 8343.289049981806
509.53023312835467 8329.004151274954
510.55869724976765 8317.094770640331
511.58689928438434 8226.490068141587
512.6148393142121 8273.438245141355
513.6425174212218 8310.926015978943
514.6699336873462 8234.746697378267
515.6970881944835 8286.147371555013
516.7239810244901 8230.639690081105
517.7506122591931 8325.319217488224
518.7769819803761 8309.992841499985
519.8030902697901 8324.163646947189
520.8289372091476 8304.28239739681
521.8545228801249 8411.024483982945
522.8798473643619 8319.788203545986
523.9049107434621 8260.926305700004
524.9297130989908 8372.599859004888
525.9542545124805 8315.505707610415
526.9785350654201 8265.118531767355
528.0025548392696 8327.375550947649
529.0263139154504 8208.133404578904
530.0498123753423 8309.385091104083
531.073050300296 8289.158882845022
532.0960277716204 8155.456788371661
533.1187448705896 8191.770557444407
534.1412016784416 8169.774056106592
535.1633982763833 8104.973872797405
536.1853347455726 8108.26493353028
537.2070111671401 8157.973384947129
538.2284276221817 8071.284068373823
539.2495841917516 8101.108094077461
540.2704809568677 7953.617703255724
541.2911179985167 7923.980963150095
542.3114953976419 7918.443224353177
543.3316132351592 7814.397623883466
544.3514715919409 7732.299553871458
545.3710705488247 7831.9056877904195
546.3904101866156 7786.621911384491
547.4094905860784 7796.803644380814
548.4283118279418 7724.9892679372115
549.4468739929034 7792.659415875312
550.4651771616191 7739.351160040815
551.4832214147063 7707.868919292295
552.501006832761 7699.780492937997
553.5185334963226 7728.202931913875
554.5358014859103 7788.3900982786245
555.5528108820035 7680.586756137995
556.5695617650363 7654.521014913395
557.5860542154242 7631.802839612597
558.6022883135283 7640.506767068638
559.6182641396881 7537.4455607894315
560.6339817741991 7635.010885848898
561.6494412973225 7700.396103931857
562.6646427892883 7674.819932376546
563.6795863302796 7576.934462686625
564.694272000459 7565.571809123714
565.7086998799423 7666.471397301493
566.7228700488104 7599.907949345205
567.7367825871115 7588.091625976238
568.7504375748576 7587.457348574897
569.7638350920224 7569.829937483088
570.7769752185486 7578.330961486523
571.7898580343353 7615.921468387933
572.802483619258 7479.486952532914
573.8148520531431 7721.79335106569
574.8269634157932 7690.907919890722
575.8388177869692 7544.098816015127
576.8504152463938 7598.531937737365
577.8617558737587 7778.429240197014
578.8728397487175 7581.835150201306
579.883666950891 7630.828441766485
580.8942375598654 7759.109025243255
581.9045516551851 7826.0513726317195
582.9146093163617 8041.131713598423
583.924410622878 7806.225353156362
584.9339556541727 7843.477277048611
585.9432444896538 7965.971998912096
586.9522772086875 7860.51980672969
587.9610538906127 7962.086918990314
588.9695746147318 7947.360180217962
589.9778394603054 8006.819842347392
590.985848506567 7845.521602422818
591.9936018327098 7915.495407460423
593.0010995178891 7638.80225210808
594.0083416412344 7772.875799786547
595.0153282818283 7589.348361832226
596.0220595187293 7595.488514316382
597.0285354309508 7510.339901404465
598.0347560974806 7495.932087947908
599.0407215972609 7432.195962111944
600.0464320092051 7408.765372279813
601.0518874121954 7399.403088940715
602.0570878850685 7449.038099292984
603.062033506636 7393.279488508345
604.0667243556636 7339.538659715971
605.0711605108936 7304.7019366929935
606.0753420510264 7514.310515424237
607.0792690547278 7325.676006772199
608.082941600629 7268.129999405037
609.0863597673306 7331.881057921113
610.0895236333909 7376.526598851533
611.0924332773357 7523.956734302778
612.0950887776617 7382.285372647416
613.0974902128219 7428.489191180679
614.0996376612384 7570.550612755693
615.1015312013005 7548.2410711764705
616.1031709113595 7604.774237768077
617.1045568697336 7601.698022565874
618.1056891547069 7669.911408874429
619.1065678445229 7754.906207596736
620.1071930173985 7951.85498411935
621.1075647515099 7886.487288569832
622.1076831250048 7896.282237841928
623.1075482159849 8053.138544282864
624.1071601025305 8105.6945169963055
625.1065188626781 8195.675243744889
626.105624574433 8407.758061988978
627.1044773157682 8446.5736802988
628.1030771646128 8397.311719867557
629.1014241988742 8563.006767845694
630.0995184964158 8711.05200884805
631.0973601350688 8738.516313016542
632.0949491926294 8929.09849092818
633.0922857468631 8658.84676467648
634.089369875499 8772.359228827445
635.0862016562278 8769.618408446664
636.0827811667077 8595.275782531538
637.0791084845641 8593.409184398835
638.0751836873878 8424.750413706688
639.0710068527369 8546.392833096019
640.0665780581294 8326.354897941052
641.0618973810506 8323.8253322442
642.0569648989604 8271.740793488541
643.0517806892676 8013.749301820746
644.0463448293649 8050.058992600444
645.040657396592 7905.332939884649
646.0347184682723 7798.3199658389685
647.0285281216875 7676.662431697347
648.0220864340772 7594.043998079646
649.0153934826558 7458.716488603655
650.0084493446047 7435.421757729031
651.0012540970674 7414.621223455392
651.9938078171526 7280.727285674581
652.9861105819346 7190.709794870236
653.9781624684565 7314.507851946228
654.9699635537254 7059.724542281355
655.9615139147136 7134.888809358405
656.9528136283589 7004.129399153222
657.9438627715699 7139.395718883863
658.9346614212154 7092.207854771694
659.925209654135 6873.258783039537
660.9155075471263 6892.4455782559035
661.9055551769616 6914.744440000644
662.895352620375 7063.718549664774
663.8848999540678 6886.812935371216
664.8741972547068 6797.845615879314
665.863244598926 6791.088354256237
666.8520420633213 6879.003049395271
667.8405897244611 6698.646730865681
668.8288876588758 6670.429056230367
669.8169359430613 6815.860813314879
670.8047346534822 6789.746484534419
671.7922838665672 6644.006058520803
672.7795836587156 6764.408330471083
673.766634106285 6941.044940441297
674.7534352856092 6619.755795947211
675.7399872729766 6630.202794169911
676.7262901446538 6704.524390063106
677.712343976862 6724.000151052368
678.6981488457986 6756.951561841308
679.6837048276229 6620.602594674276
680.6690119984596 6756.771220825792
681.6540704344043 6713.209375828257
682.6388802115107 6643.159355527988
683.6234414058108 6710.849307355604
684.6077540932874 6614.306657202351
685.591818349907 6583.996886523409
686.575634251587 6636.7628157493145
687.5592018742263 6585.774343882268
688.5425212936734 6458.1246460860475
689.5255925857564 6685.625298009753
690.5084158262707 6607.530183916004
691.4909910909646 6519.711075438561
692.4733184555644 6492.023793776389
693.4553979957618 6548.007531019917
694.4372297872123 6517.842435378308
695.4188139055404 6458.327140354802
696.4001504263324 6363.599714573083
697.3812394251509 6572.68936633122
698.3620809775111 6490.028171406205
699.3426751589104 6410.558818635456
700.3230220448004 6344.543338312808
701.3031217106054 6396.634740710942
702.2829742317172 6577.610777229638
703.2625796834873 6345.922165602418
704.2419381412474 6307.754421392426
705.22104968028 6384.753056786848
706.1999143758458 6330.380788544063
707.178532303169 6348.668120015864
708.1569035374378 6379.823618970847
709.1350281538107 6432.48034343504
710.1129062274158 6370.566380735256
711.0905378333373 6402.850646251464
712.0679230466376 6381.532634626039
713.0450619423427 6400.406137336401
714.0219545954424 6537.558215189078
714.9986010808989 6375.132963193043
715.9750014736292 6390.040442861893
716.9511558485392 6496.963066723541
717.9270642804786 6585.1149258077785
718.9027268442787 6539.218617627705
719.8781436147328 6562.422015559476
720.8533146666014 6505.98638956087
721.828240074612 6547.881647257745
722.8029199134635 6567.330753177441
723.7773542578125 6520.6285816136615
724.751543182294 6502.267168818
725.7254867615029 6579.073391514942
726.6991850700015 6360.068551391142
727.6726381823228 6384.276475458086
728.6458461729599 6440.397812159118
729.6188091163858 6440.040856670382
730.5915270870246 6368.350586956855
731.5640001592856 6290.828222615073
732.536228407529 6292.950621351089
733.5082119060917 6279.640074790312
734.4799507292755 6182.235525085771
735.4514449513481 6196.920782007294
736.4226946465496 6263.777424505904
737.3936998890786 6313.62072540018
738.3644607531078 6181.08361770665
739.3349773127793 6165.912694059903
740.3052496421951 6202.0648996012815
741.27527781543 6119.9626905648165
742.2450619065221 6086.914276480967
743.2146019894826 6080.214251433611
744.183898138288 6162.95183344411
745.1529504268801 6046.911627565832
746.1217589291682 6025.053142547973
747.0903237190341 6058.928882541068
748.058644870318 6016.985128820728
749.0267224568397 6065.366397431453
749.994556552374 5962.392921846053
750.9621472306771 6066.128004887834
751.9294945654583 6025.257352157284
752.8965986304011 6006.022013501097
753.8634594991636 5988.129448813289
754.8300772453586 6032.261620572737
755.7964519425768 5999.078788477231
756.762583664371 6106.324090171498
757.7284724842611 6059.968306285269
758.6941184757416 6016.470008053113
759.6595217122667 6047.632814782819
760.6246822672638 6000.129016253407
761.5896002141235 5933.04417580347
762.5542756262093 5998.314888002849
763.5187085768503 6097.125505285392
764.4828991393406 5942.304091135894
765.4468473869474 5997.693003246072
766.4105533929032 6015.436753456692
767.3740172304078 5900.26655459846
768.3372389726283 6033.2105523298615
769.3002186926988 5873.5692174129745
770.2629564637282 5881.744475440837
771.2254523587872 5905.361693670111
772.1877064509154 5822.101737650276
773.1497188131179 5742.796833940012
774.1114895183728 5750.377671727755
775.0730186396268 5709.261882473108
776.0343062497905 5764.9253251482805
776.9953524217381 5720.373203269211
777.9561572283274 5774.801830183783
778.9167207423689 5718.51872911786
779.8770430366476 5610.73609843134
780.8371241839159 5710.430369887341
781.7969642568951 5669.331601347019
782.7565633282757 5902.0522073559
783.7159214707099 5646.7856890961675
784.6750387568281 5677.463405529235
785.6339152592227 5700.556014934042
786.5925510504512 5603.273711329681
787.5509462030477 5729.406306145864
788.5091007895098 5645.664810818314
789.4670148823006 5645.572808038923
790.4246885538596 5609.721376986403
791.3821218765861 5699.011856290947
792.3393149228505 5569.934122132506
793.2962677649975 5624.205436862385
794.2529804753303 5664.945132969658
795.20945312613 5654.3308695380165
796.1656857896378 5590.742358496239
797.1216785380675 5558.027974125126
798.0774314435985 5626.002706901911
799.0329445783846 5782.956929239769
799.9882180145414 5690.242136276643
800.9432518241574 5729.0625893982315
801.89804607929 5764.521855173299
802.852600851962 5824.369768225344
803.8069162141637 5736.43776512073
804.760992237856 5889.604942898895
805.714828994971 5872.091553714667
806.6684265574077 5949.673444600028
807.6217849970271 5823.3595179770755
808.574904385674 5807.260705869005
809.527784795142 5977.042727739393
810.4804262972102 6007.868655897211
811.4328289636178 5810.6232171531465
812.3849928660748 5647.329638852621
813.3369180762638 5735.105878152387
814.2886046658241 5802.096086070121
815.2400527063783 5657.7586956631085
816.1912622695108 5636.99230094519
817.1422334267718 5782.517609646975
818.0929662496856 5621.974181891945
819.0434608097457 5439.0470426968795
819.9937171784059 5545.381463999746
820.9437354271013 5471.064272377001
821.8935156272255 5585.384270945647
822.8430578501484 5445.666330684665
823.7923621672016 5325.510323673378
824.7414286496896 5410.562963527805
825.6902573688876 5375.484070403819
826.6388483960363 5436.813987956214
827.5872018023492 5366.064201879294
828.5353176590033 5424.63681055284
829.4831960371503 5283.655778794163
830.4308370079016 5274.094850023778
831.3782406423525 5369.433173754005
832.3254070115545 5386.336473335504
833.2723361865319 5287.391554731019
834.2190282382799 5182.601575577215
835.1654832377644 5304.313256839803
836.1117012559116 5269.190477155363
837.0576823636256 5396.87044427663
838.003426631778 5199.107302241246
838.9489341312074 5170.1892598268105
839.8942049327197 5369.880777835241
840.8392391070975 5366.99770921001
841.7840367250865 5278.153420639632
842.7285978573982 5274.115488670199
843.672922574724 5337.284371952913
844.6170109477152 5255.698706709679
845.560863046996 5266.715001351742
846.5044789431595 5264.800225138782
847.4478587067697 5256.119542169182
848.3910024083561 5382.684505167761
849.333910118421 5217.66397526885
850.2765819074339 5184.052521878064
851.2190178458332 5311.17550168422
852.161218004032 5362.204656695314
853.1031824524016 5298.552076515813
854.0449112612987 5189.188714469469
854.9864045010327 5304.907348059076
855.9276622418947 5204.493852202289
856.8686845541379 5224.8267131011235
857.8094715079915 5275.737031466442
858.7500231736467 5350.1261255167765
859.690339621271 5328.362067294633
860.6304209209939 5287.7767368888
861.5702671429244 5129.674981510361
862.5098783571284 5250.542353457777
863.4492546336569 5265.884779480386
864.3883960425155 5291.918291397034
865.3273026536863 5209.692793934617
866.2659745371238 5178.84282351413
867.2044117627465 5365.423976598239
868.1426144004472 5185.431975907285
869.0805825200823 5284.427861052031
870.0183161914847 5271.341069440368
870.9558154844526 5399.962972100834
871.8930804687552 5332.644717758943
872.8301112141307 5195.096952533694
873.7669077902865 5410.816742022059
874.7034702669062 5499.071804119377
875.6397987136315 5371.102990746837
876.5758932000863 5455.809576033782
877.5117537958522 5415.7007163145445
878.4473805704911 5361.895042875805
879.3827735935283 5411.040386030859
880.3179329344603 5542.8190590179665
881.2528586627541 5603.592966656624
882.1875508478479 5587.683268080806
883.1220095591489 5478.462068738268
884.0562348660296 5408.917962649588
884.9902268378391 5547.656505282942
885.9239855438955 5441.206642044041
886.8575110534839 5402.288667084741
887.7908034358588 5426.813962723609
888.7238627602474 5460.823709914692
889.6566890958475 5496.892805888673
890.5892825118208 5269.431217134597
891.5216430773125 5364.341723171273
892.4537708614189 5396.9684600470055
893.3856659332196 5248.604921645564
894.3173283617652 5203.311341104481
895.2487582160684 5291.458843484774
896.179955565116 5194.088641937772
897.110920477864 5152.3754749712025
898.0416530232451 5117.0110236492
898.9721532701478 5069.790054426141
899.9024212874428 5229.0041538288915
900.8324571439662 5057.7406322690385
901.7622609085302 5036.20251074383
902.6918326499072 4971.270934386097
903.6211724368477 5055.918328647077
904.5502803380696 5167.965131108163
905.4791564222614 5211.726158659608
906.4078007580792 5013.55711425859
907.3362134141571 4995.1787677725115
908.2643944590909 5111.094610535609
909.1923439614493 4999.908273798215
910.1200619897754 4932.082863617239
911.0475486125779 5191.084614108091
911.9748038983344 5028.614089192566
912.9018279155007 4940.5338173642
913.8286207324982 4902.101815512832
914.7551824177117 4964.99180581001
915.6815130395116 4968.849694371126
916.6076126662283 4870.8479009111215
917.533481366163 4916.74821427031
918.4591192075914 4984.046819638782
919.3845262587565 5018.6861874943115
920.3097025878706 4877.043032847302
921.2346482631237 4912.412214732224
922.1593633526682 4936.279126231084
923.0838479246304 5024.649789433179
924.0081020471061 5061.91357999267
924.9321257881656 4832.329020620078
925.8559192158464 4917.409500079839
926.7794823981512 4872.050086553052
927.7028154030686 4800.854137965789
928.6259182985414 4812.155730763601
929.5487911524906 5001.059214124916
930.4714340328119 4930.887226762822
931.3938470073608 4740.224521473581
932.3160301439748 4813.776410852674
933.2379835104548 4895.61586447078
934.1597071745709 4905.08394836174
935.0812012040769 4872.103593442493
936.002465666681 4972.674298631491
936.9235006300696 4955.934433211456
937.8443061619055 4951.934353399628
938.7648823298077 4800.01787451418
939.6852292013809 4785.945381740856
940.6053468441951 4841.6837159303395
941.5252353257874 4760.576883261054
942.4448947136698 4827.841227471477
943.364325075323 4791.565199712893
944.2835264782043 4827.825772673309
945.2024989897309 4823.787871930158
946.1212426773054 4750.029041647839
947.0397576082851 4838.515462344038
947.9580438500125 4953.787266016238
948.8761014697939 4931.387221006093
949.7939305349064 4896.235605163818
950.7115311125999 4809.962229317717
951.6289032700952 4724.799757118787
952.5460470745875 4878.05321033276
953.4629625932339 4730.466768931054
954.3796498931715 4834.330958368096
955.2961090415029 4777.511037756125
956.2123401053068 4785.710794211058
957.1283431516276 4819.436290194242
958.0441182474842 4744.177568326607
958.9596654598663 4852.529188391256
959.8749848557309 4761.7629293545615
960.7900765020167 4704.615346514043
961.7049404656209 4748.370529951881
962.6195768134185 4774.199155597018
963.5339856122537 4838.205631222225
964.4481669289453 4840.606325604294
965.3621208302793 4800.998815588954
966.2758473830145 4731.760865388327
967.1893466538822 4864.91349360454
968.1026187095813 4781.836788774609
969.0156636167867 4741.324919663442
969.9284814421426 4812.050099228664
970.8410722522622 4785.579311931368
971.753436113735 4755.687984960334
972.6655730931161 4682.86879147322
973.5774832569368 4840.676832669475
974.4891666716958 4746.563114622444
975.4006234038698 4655.51621072009
976.3118535198955 4670.019832503915
977.2228570861935 4849.451889804759
978.1336341691494 4861.031420986534
979.0441848351202 4649.361937298674
979.9545091504333 4845.017406054462
980.864607181391 4782.269158573042
981.7744789942699 4828.706590534186
982.6841246553086 4707.539894801664
983.5935442307236 4822.303938314921
984.5027377867027 4847.822763009472
985.4117053894024 4905.819897897778
986.3204471049557 4719.183380230412
987.2289629994648 4888.415500669192
988.1372531390007 4949.557593190292
989.0453175896091 4873.7320595020265
989.9531564173067 4865.490576954792
990.860769688079 4798.943629310378
991.7681574678918 4810.753356453288
992.6753198226706 4889.40164162083
993.582256818323 4869.917814491541
994.4889685207218 4761.230573785514
995.3954549957143 5018.488495363142
996.301716309119 5047.20888990314
997.2077525267232 4906.970955898056
998.1135637142943 4926.279045702593
999.0191499375615 5049.525765311364
999.924511262232 5061.09824046574
1000.8296477539861 4983.2630144057275
1001.7345594784656 4921.834438991521
1002.6392465012996 4970.482019386568
1003.5437088880753 5094.74410678031
1004.4479467043584 4972.595740853236
1005.3519600156869 4708.6145822515155
1006.2557488875718 4975.3771255086585
1007.1593133854858 4989.834274846324
1008.0626535748888 4795.142198262689
1008.9657695212009 4736.3941931529935
1009.8686612898182 4948.67967477816
1010.7713289461135 4935.1866499073485
1011.6737725554212 4798.780446216022
1012.5759921830577 4745.645674901284
1013.4779878943027 4853.595017582077
1014.379759754418 4872.6265480307575
1015.2813078286254 4742.907317310762
1016.18263218213 4735.22641261458
1017.0837328801026 4728.2975895259215
1017.9846099876886 4777.801717949426
1018.8852635700023 4677.813488440793
1019.7856936921362 4572.782467055002
1020.6859004191447 4755.157653070231
1021.5858838160675 4573.296232214021
1022.4856439479063 4576.065870476073
1023.3851808796389 4519.636353434629
1024.2844946762143 4737.818244106816
1025.183585402554 4733.809760320384
1026.082453123554 4463.314950476092
1026.9810979040776 4560.832228235404
1027.8795198089647 4468.852708531518
1028.777718903024 4580.2687834067565
1029.6756952510368 4553.23899084995
1030.5734489177648 4570.524518320948
1031.4709799679313 4452.135491618148
1032.3682884662358 4681.832437055242
1033.2653744773506 4419.352087149398
1034.1622380659192 4409.4860961219165
1035.058879296559 4536.396195711617
1035.9552982338591 4658.104520500727
1036.8514949423825 4513.618182299806
1037.7474694866614 4498.948859452877
1038.6432219312028 4412.50875354928
1039.5387523404825 4668.719991976045
1040.4340607789582 4517.965218137035
1041.3291473110476 4565.136843437208
1042.2240120011465 4718.30006825883
1043.1186549136273 4751.333788232678
1044.0130761128294 4604.231739902038
1044.9072756630649 4572.704102322799
1045.8012536286205 4709.016563911124
1046.6950100737577 4757.077470755228
1047.588545062701 4775.4843421518535
1048.481858659663 4754.614155583638
1049.3749509288118 4887.827599968322
1050.2678219343034 4698.644146163342
1051.1604717402515 4689.476393774245
1052.0529004107575 4675.610094482523
1052.9451080098825 4710.357819385287
1053.8370946016694 4718.568657028523
1054.7288602501267 4671.733173390834
1055.6204050192446 4652.771995146988
1056.511728972977 4669.042343328189
1057.402832175254 4648.14258816041
1058.2937146899785 4569.930769079645
1059.1843765810263 4572.003602148257
1060.0748179122456 4659.568519125397
1060.9650387474576 4579.480041828648
1061.855039150456 4556.024244389504
1062.7448191850071 4506.578545937177
1063.6343789148505 4571.511340123952
1064.5237184037014 4595.763754930436
1065.412837715241 4399.1903110918
1066.3017369131267 4523.644155329712
1067.190416060992 4445.287052252794
1068.0788752224398 4408.08164615517
1068.9671144610438 4370.276891103131
1069.8551338403558 4540.564768108352
1070.7429334239023 4504.298476818307
1071.6305132751695 4357.632182869614
1072.517873457633 4470.667041222232
1073.4050140347335 4389.19086624603
1074.2919350698776 4400.295811176222
1075.1786366264623 4484.237081328663
1076.0651187678395 4358.163970060408
1076.95138155735 4269.793181356514
1077.8374250582929 4354.159456929154
1078.7232493339507 4341.804189389062
1079.608854447577 4278.549800864885
1080.4942404623907 4304.612527584641
1081.3794074415982 4334.79094627822
1082.2643554483657 4321.455889319981
1083.149084545841 4256.297527326047
1084.033594797138 4194.647939732535
1084.9178862653516 4202.961426798078
1085.8019590135427 4436.352802432286
1086.6858131047484 4153.3580274119995
1087.5694486019802 4237.208263487004
1088.4528655682225 4250.877255754369
1089.3360640664287 4346.526909131711
1090.2190441595321 4207.697149675326
1091.1018059104317 4280.505268870405
1091.98434938201 4307.74174006294
1092.866674637111 4344.076548227853
1093.748781738559 4217.818390459425
1094.6306707491512 4135.269131829625
1095.5123417316554 4220.038249774005
1096.3937947488157 4121.199069942678
1097.2750298633455 4175.409421538525
1098.156047137938 4131.539583638101
1099.0368466352556 4226.853090016148
1099.9174284179317 4292.1022148378415
1100.7977925485757 4037.4479444806725
1101.6779390897755 4065.956827350011
1102.5578681040806 4225.411765107516
1103.4375796540226 4172.954164012308
1104.3170738021054 4150.609751612908
1105.1963506108077 4057.107291718333
1106.0754101425773 4068.0244810513054
1106.9542524598382 4150.125758056385
1107.8328776249855 4045.373160866674
1108.7112857003904 4076.2753171548657
1109.5894767483987 4088.391538146294
1110.4674508313292 4209.436204751126
1111.3452080114657 4021.912304559003
1112.2227483510815 4194.860955764714
1113.1000719124077 4148.623683670643
1113.9771787576592 4338.53335374351
1114.854068949022 4178.641986075885
1115.7307425486542 4251.9223814354345
1116.6071996186893 4302.351796364054
1117.483440221229 4560.244020169257
1118.3594644183577 4157.875178004564
1119.235272272128 4214.501739392378
1120.1108638445658 4391.021786203896
1120.9862391976712 4578.215267222332
1121.8613983934229 4392.676267994214
1122.7363414937627 4453.179323138592
1123.6110685606182 4433.12047351694
1124.485579655884 4559.2154493283915
1125.359874841426 4496.653698274591
1126.2339541790916 4551.640301426218
1127.1078177306936 4775.995029958193
1127.9814655580267 4544.304440998347
1128.854897722851 4571.588479433755
1129.7281142869106 4562.416128416227
1130.6011153119125 4601.365111193167
1131.473900859548 4810.531427561242
1132.3464709914697 4587.5880391120645
1133.2188257693178 4610.5506743594815
1134.0909652546961 4479.369252278242
1134.96288950919 4372.497897859959
1135.8345985943506 4603.55128663786
1136.7060925717087 4418.892919708269
1137.57737150277 4460.492090575773
1138.4484354490069 4594.540030842496
1139.3192844718778 4401.489481042426
1140.1899186327992 4191.919754645283
1141.060337993178 4398.706406277377
1141.930542614382 4292.167222816186
1142.8005325577597 4197.4747222540345
1143.670307884635 4148.594408239436
1144.5398686563003 4236.398334689334
1145.409214934025 4201.844640075147
1146.2783467790541 3997.33622717337
1147.1472642526023 4172.393755950636
1148.0159674158622 4210.055511893085
1148.8844563300026 4026.6647193549725
1149.7527310561618 3891.721258525236
1150.6207916554504 3962.349843739931
1151.4886381889592 3918.9169152546774
1152.3562707177498 4057.376867022005
1153.2236893028585 3846.355959908843
1154.090894005296 3846.5899906732207
1154.9578848860474 3875.9678201955576
1155.8246620060709 3884.032231919197
1156.6912254262988 3675.727431051289
1157.5575752076438 3775.0773996416488
1158.42371141098 3920.5512372823187
1159.2896340971656 3887.4904755449134
1160.1553433270346 3806.4270930186576
1161.0208391613887 3844.8060420267125
1161.8861216610057 3802.8525483784433
1162.75119088664 3884.4590587632783
1163.6160468990201 3776.2909843698108
1164.4806897588442 3806.705243261274
1165.3451195267917 3912.6748897518323
1166.2093362635114 3841.5285802872736
1167.0733400296285 3814.0053452444945
1167.9371308857444 3784.641695004004
1168.8007088924278 3743.4832282556745
1169.6640741102328 3755.4048078443557
1170.5272265996773 3701.2846889194925
1171.390166421259 3573.671836349165
1172.252893635452 3763.5662735111523
1173.1154083026995 3996.082749918159
1173.977710483421 3895.7066650140323
1174.8398002380145 3670.0365998182306
1175.7016776268483 3844.842282254216
1176.563342710264 3723.5340192381277
1177.4247955485826 3698.7839545910742
1178.2860362020947 3820.6879489312983
1179.147064731069 3614.313525545571
1180.0078811957483 3790.055347456081
1180.8684856563486 3708.272230914684
1181.7288781730604 3782.5960394631957
1182.589058806052 3847.8033033237907
1183.4490276154593 3913.09913121109
1184.3087846614017 3705.974738462324
1185.1683300039676 3819.8483122690386
1186.027663703222 4025.387589597468
1186.8867858192025 3775.323460367669
1187.7456964119228 3821.89510057152
1188.6043955413716 3906.0773310665854
1189.4628832675116 3963.347000663301
1190.3211596502842 4102.584079216735
1191.179224749596 3991.2208400776244
1192.0370786253388 3908.5954010791634
1192.8947213373758 4077.9670621560426
1193.7521529455407 4147.637777835804
1194.6093735096438 3907.831733326681
1195.466383089477 3958.8459828631217
1196.3231817447977 4035.6971908141795
1197.1797695353398 4085.438527414776
1198.0361465208189 3842.8695054384216
1198.8923127609214 3919.5872102705534
1199.7482683153048 4110.493578345535
1200.6040132436028 4185.5241785646995
1201.459547605431 3954.758426739456
1202.3148714603722 4025.832568326572
1203.1699848679855 3996.116313424935
1204.0248878878065 4084.712119635062
1204.8795805793507 3890.065944594179
1205.7340630020935 3988.9136769953534
1206.5883352155033 4102.241500142963
1207.4423972790064 4115.455067552253
1208.2962492520237 3897.5830429940993
1209.1498911939307 3872.1251176582678
1210.0033231640937 3928.498051535937
1210.8565452218427 3940.5645188149765
1211.7095574264913 3715.1782111867433
1212.5623598373222 3785.7960073421264
1213.4149525135963 3736.1298578626934
1214.2673355145507 3865.0030525851134
1215.1195088993936 3677.5137667558192
1215.9714727273113 3765.538805800506
1216.8232270574663 3916.5060585498954
1217.6747719489904 3551.6882603284844
1218.5261074609934 3632.4239154089714
1219.3772336525653 3782.1028461292167
1220.2281505827668 3881.948786686114
1221.0788583106296 3907.921740153414
1221.9293568951707 3627.921461016146
1222.7796463953746 3632.3238668434446
1223.629726870202 3766.750863916889
1224.4795983785934 3819.3983382839856
1225.3292609794553 3747.133479069219
1226.1787147316809 3566.039809219098
1227.0279596941327 3716.712426601035
1227.8769959256424 3641.427395711556
1228.7258234850306 3803.3638228259906
1229.5744424310833 3562.7998172173197
1230.422852822563 3730.6046140109693
1231.2710547182105 3915.225343957768
1232.119048176739 3686.3634374719354
1232.9668332568417 3585.857766951217
1233.8144100171812 3793.6691482122696
1234.6617785163999 3739.5647491535974
1235.508938813111 3550.1850768454133
1236.3558909659114 3631.8161201151074
1237.2026350333617 3754.234460818518
1238.049171074008 3889.1402994887394
1238.8954991463652 3658.146362705285
1239.741619308932 3649.86070695397
1240.587531620169 3731.5768807389118
1241.4332361385277 3812.505734396988
1242.2787329224248 3668.3305373062235
1243.1240220302534 3555.0323156138593
1243.9691035203869 3571.934195024585
1244.813977451171 3768.2116339036575
1245.6586438809263 3623.0414322021525
1246.5031028679496 3437.1070050152957
1247.3473544705157 3678.3801423215787
1248.1913987468706 3664.362409370902
1249.0352357552383 3493.6280107357525
1249.8788655538228 3495.728758349646
1250.7222882007918 3697.117509775002
1251.565503754302 3738.023498181758
1252.4085122724755 3468.496761264684
1253.2513138134182 3691.5619251901
1254.0939084352049 3570.4210930226045
1254.9362961958905 3587.582207681948
1255.7784771535007 3526.8444056332983
1256.6204513660432 3660.841356108084
1257.4622188915 3802.714949915923
1258.3037797878242 3620.4384900134182
1259.1451341129468 3543.6147388353775
1259.9862819247755 3612.217899369378
1260.8272232811978 3610.692545309414
1261.6679582400666 3816.147180067784
1262.5084868592203 3479.7306980286025
1263.34880919647 3469.8209135870084
1264.1889253095997 3558.113235040186
1265.0288352563712 3740.641111151198
1265.8685390945266 3488.170626454806
1266.7080368817751 3660.9192130293654
1267.5473286758115 3772.9870171504845
1268.386414534294 3602.8283921452103
1269.2252945148703 3414.579332001719
1270.0639686751547 3524.800004788234
1270.9024370727402 3537.2474369185206
1271.7406997651997 3462.608064395965
1272.5787568100714 3412.3514424864297
1273.4166082648808 3460.511844183612
1274.2542541871244 3544.3513588240044
1275.091694634275 3703.423738693701
1275.9289296637817 3380.7604023754247
1276.7659593330663 3578.194967057648
1277.6027836995308 3527.341753410396
1278.4394028205552 3695.410834400141
1279.2758167534867 3568.188902294234
1280.112025555658 3445.485578675216
1280.9480292843746 3534.576024928219
1281.7838279969128 3389.671308756383
1282.6194217505326 3480.293778705842
1283.4548106024686 3379.8365650082496
1284.289994609926 3505.2187095171803
1285.1249738300921 3543.1183500013803
1285.959748320127 3394.7278833788987
1286.7943181371702 3383.860570303716
1287.6286833383328 3512.373508206353
1288.4628439807038 3570.6834059283706
1289.2968001213521 3415.4943155991677
1290.1305518173194 3443.868959999146
1290.9640991256183 3528.208653630718
1291.7974421032523 3404.811274432458
1292.630580807183 3400.1488217255987
1293.463515294361 3509.1517637300835
1294.29624562171 3642.4737533588304
1295.12877184613 3452.9973570353927
1295.961094024493 3446.304296058185
1296.79321221365 3508.76429828647
1297.6251264704333 3513.477029105393
1298.4568368516466 3752.8241570431746
1299.2883434140658 3509.552611669773
1300.1196462144526 3336.7575560553873
1300.9507453095375 3542.9068335749735
1301.7816407560313 3568.1176968625355
1302.6123326106172 3482.9887085126093
1303.4428209299622 3399.6985826219343
1304.2731057707024 3760.7113412123063
1305.1031871894502 3464.5313939548164
1305.933065242798 3632.5304322837533
1306.7627399873181 3562.4348097505185
1307.5922114795467 3871.75217775536
1308.4214797760123 3713.5008449161105
1309.2505449332057 3586.9376087934847
1310.0794070076026 3600.470232909459
1310.9080660556538 3764.475890633782
1311.736522133786 3843.7563926999587
1312.5647752983987 3564.697522475713
1313.3928256058734 3489.86306555653
1314.2206731125661 3751.1117144513237
1315.048317874809 3695.3784791339253
1315.8757599489109 3553.382115506586
1316.7029993911547 3558.483917517869
1317.5300362578055 3684.2704073111063
1318.356870605101 3524.352983835344
1319.183502489257 3497.215049009674
1320.0099319664623 3689.186332374262
1320.836159092889 3628.381989299726
1321.66218392468 3719.623304338317
1322.4880065179532 3489.5470610390826
1323.3136269288134 3571.395236499657
1324.1390452133292 3747.488350083672
1324.9642614275563 3783.570401099582
1325.7892756275214 3568.714816035149
1326.6140878692295 3544.0026122484683
1327.4386982086617 4021.561744382115
1328.2631067017755 3586.512549193648
1329.0873134045069 3673.2386657928523
1329.911318372764 3631.5620772680923
1330.735121662441 3724.209177437053
1331.558723329399 3525.4723074260883
1332.3821234294774 3632.211643097419
1333.2053220185007 3654.4106039194353
1334.0283191522612 3505.266257706227
1334.851114886529 3709.084175761863
1335.6737092770582 3459.7025374339623
1336.4961023795695 3541.0395926012716
1337.3182942497697 3431.7986139397
1338.1402849433325 3653.3972878587037
1338.962074515921 3395.456114353121
1339.7836630231632 3396.957054565687
1340.6050505206676 3796.6872253039364
1341.426237064028 3642.1978757750176
1342.2472227088037 3520.5415744385996
1343.0680075105338 3425.062640149463
1343.888591524741 3627.945431564691
1344.7089748069138 3706.8695808760776
1345.5291574125276 3553.2527460438187
1346.3491393970307 3437.7630899744763
1347.168920815846 3607.5125177737114
1347.9885017243778 3753.082015576851
1348.8078821780036 3472.1150494102485
1349.6270622320844 3493.394677802045
1350.4460419419447 3493.321220228051
1351.2648213629054 3638.0180039070897
1352.0834005502438 3350.2744768878706
1352.90177955923 3358.956101464088
1353.7199584451064 3635.495998141847
1354.5379372630887 3535.876811995163
1355.355716068374 3495.8112867995433
1356.1732949161305 3361.613472761288
1356.9906738615155 3516.389146248359
1357.8078529596478 3455.596596477111
1358.6248322656375 3605.200831323213
1359.441611834567 3387.5670221985297
1360.2581917214866 3563.3227732671817
1361.0745719814367 3523.7082095057435
1361.890752669433 3344.951733177736
1362.7067338404577 3364.034164115762
1363.5225155494845 3618.9756633645657
1364.3380978514506 3560.510877822247
1365.1534808012839 3296.162632040329
1365.9686644538815 3186.3029094887233
1366.783648864117 3607.9025017338295
1367.5984340868417 3580.0921080763787
1368.413020176893 3476.8009590244837
1369.2274071890715 3184.2399545949474
1370.0415951781652 3598.1862027502734
1370.8555841989346 3447.4734584572725
1371.6693743061223 3392.7006071020382
1372.48296555444 3232.365176224868
1373.2963579985844 3476.490323588155
1374.1095516932255 3483.221116245199
1374.9225466930166 3180.7481497487156
1375.7353430525782 3399.108127402277
1376.5479408265164 3288.980691857452
1377.36034006941 3409.4583660726034
1378.1725408358216 3514.074917905558
1378.9845431802805 3227.451885731768
1379.796347157304 3672.88511758031
1380.6079528213813 3424.0191348520616
1381.4193602269788 3234.303351187529
1382.230569428546 3206.207149930029
1383.0415804805016 3555.0669635230124
1383.852393437246 3486.867388311736
1384.6630083531563 3408.3912122322226
1385.4734252825892 3263.181812512843
1386.2836442798798 3382.7646668814828
1387.0936653993322 3468.0028745893324
1387.9034886952395 3328.343997115978
1388.713114221864 3426.961256163123
1389.5225420334482 3462.0580794509297
1390.331772184214 3366.7091698754803
1391.1408047283585 3120.259009669421
1391.9496397200564 3257.035905862526
1392.758277213461 3373.9212179219403
1393.5667172627054 3426.06641956614
1394.3749599218918 3272.9655219633305
1395.1830052451114 3187.2180559162653
1395.9908532864265 3253.231667032966
1396.7985040998774 3420.9011593617943
1397.6059577394808 3197.117758700114
1398.4132142592352 3202.5964039144565
1399.2202737131156 3218.4340218981715
1400.027136155073 3422.8596807468675
1400.8338016390353 3200.2674399973907
1401.6402702189134 3143.049814888961
1402.446541948586 3257.499743725245
1403.2526168819204 3172.157157794617
1404.058495072757 3069.0494760959623
1404.8641765749107 3191.667752864636
1405.6696614421799 3303.2102982209094
1406.4749497283356 3638.4154783803488
1407.280041487129 3129.232381502035
1408.084936772295 2998.994308236011
1408.8896356375335 3315.4941293629577
1409.6941381365323 3313.0534027729664
1410.498444322955 3042.8660681492643
1411.3025542504402 3097.766111219862
1412.106467972606 3229.6421942550724
1412.9101855430508 3301.4533626644093
1413.7137070153458 2939.2348001949026
1414.5170324430437 3114.402235973228
1415.320161879672 3230.392326212144
1416.1230953787435 3356.437444758515
1416.925832993742 2965.0093944796563
1417.7283747781275 2919.578220746003
1418.5307207853439 3247.6445877702695
1419.3328710688093 3213.318629441336
1420.134825681922 2865.038808659643
1420.9365846780584 2971.253616379248
1421.7381481105713 3260.8846861916386
1422.539516032788 3097.0629541868125
1423.3406884980232 2914.7078538756805
1424.1416655595604 2919.59486995267
1424.942447270665 2979.6836867502866
1425.7430336845828 3109.0468937619926
1426.5434248545298 2857.8406984317367
1427.3436208337116 3055.979942753264
1428.143621675301 3058.08766154644
1428.9434274324558 3183.396003895479
1429.7430381583108 2887.309747491255
1430.5424539059713 2955.468529420916
1431.3416747285337 3247.4468900779484
1432.1407006790632 3127.7588380894936
1432.9395318106053 3078.201886230567
1433.7381681761835 2795.691796710116
1434.5366098288014 3110.6768950043233
1435.3348568214424 3100.8374380197774
1436.1329092070573 2954.6082503801645
1436.9307670385879 3014.048302583642
1437.7284303689503 3144.3951745674995
1438.5258992510335 3226.825806352394
1439.3231737377118 3030.2464617688947
1440.1202538818306 2981.6849847349104
1440.9171397362225 3063.9795418646145
1441.7138313536925 3037.2167457799596
1442.5103287870243 2832.57905254869
1443.3066320889775 2867.203414043431
1444.1027413122956 3102.996707552765
1444.8986565096966 2962.2433154702785
1445.694377733882 2969.3722654350395
1446.4899050375207 2827.902855558996
1447.2852384732687 3013.6212757276726
1448.0803780937622 3155.3062621900585
1448.8753239516063 2799.9163942697514
1449.6700760993954 2771.7045480443644
1450.464634589689 2872.3143802604313
1451.2589994750397 3163.1334980090314
1452.0531708079689 2648.891939900898
1452.8471486409799 2814.683545964974
1453.6409330265524 3148.1225261264713
1454.4345240171442 2835.4519743266037
1455.2279216651987 2730.4805206737606
1456.0211260231263 2765.398864485824
1456.8141371433194 3003.0599438839135
1457.6069550781594 3090.4452851067967
1458.3995798799897 2670.6008965212363
1459.1920116011424 2702.8007197180414
1459.98425029393 2701.3623039620607
1460.7762960106338 2723.718382320846
1461.5681488035225 2759.4392248357626
1462.3598087248392 2814.3519372575793
1463.1512758268036 3121.4818216960007
1463.942550161617 2765.728149767378
1464.7336317814625 2760.5764771951244
1465.524520738496 2833.0381198604855
1466.3152170848552 2692.4423259130917
1467.1057208726506 2853.189512822652
1467.8960321539817 2792.474542960689
1468.6861509809169 2704.6676460361314
1469.4760774055085 2703.2754831913967
1470.265811479785 2719.8933081860237
1471.055353255755 2702.996334355973
1471.844702785409 2615.0700585530403
1472.6338601207044 2708.8939261599053
1473.4228253135934 2894.4289394202783
1474.2115984159936 2629.395173558879
1475.0001794798063 2555.763727378175
1475.7885685569145 2806.130098056418
1476.576765699172 2734.0073514523383
1477.3647709584238 2664.777076943011
1478.1525843864802 2929.4542072188665
1478.9402060351367 2798.7993743372317
1479.7276359561693 2874.873386013073
1480.514874201328 2566.035185929048
1481.3019208223468 2517.1686738968324
1482.0887758709323 2451.052366163677
1482.8754393987747 2905.0361662324353
1483.6619114575406 2496.6117240381327
1484.4481920988783 2661.8054208344333
1485.2342813744108 2747.9205920200243
1486.0201793357446 2921.889814223304
1486.8058860344572 2535.4132466413585
1487.591401522117 2614.1297192117113
1488.3767258502594 2587.356447485861
1489.1618590704056 2770.2274383585914
1489.9468012340494 2312.1003300171037
1490.7315523926754 2729.9406058644636
1491.5161125977356 2743.6301223330265
1492.3004819006637 2683.4416940895867
1493.084660352877 2403.8492795705815
1493.8686480057622 2740.347404591234
1494.6524449106964 2908.386151574887
1495.4360511190262 2896.933151639333
1496.219466682087 2703.9088850490507
1497.0026916511779 2667.2206459095087
1497.7857260775945 2736.9188279152104
1498.5685700125996 2773.1871254834864
1499.3512235074395 2505.412985617296
1500.133686613337 2554.1965092920937
1500.9159593814966 2579.7132689763325
1501.698041863101 2524.676672784145
1502.4799341093094 2469.6857508421026
1503.2616361712662 2493.7146783210155
1504.043148100087 2765.5666403537857
1504.8244699468742 2732.4465823221426
1505.6056017626997 2524.2302026190146
1506.3865435986281 2574.9158957824216
1507.1672955056893 2677.7002106528944
1507.9478575348967 2577.2333313264694
1508.7282297372512 2743.774187845511
1509.5084121637192 2615.8446218122203
1510.2884048652577 2620.7793343245794
1511.0682078927948 2567.8738673075345
1511.8478212972423 2565.572649485482
1512.6272451294917 2505.2917767857925
1513.4064794404076 2700.4163384186018
1514.1855242808433 2693.7365026121265
1514.9643797016215 2539.165400093804
1515.743045753552 2779.78029770969
1516.5215224874191 2714.5848633857486
1517.2998099539836 2409.61649019806
1518.077908203999 2648.4124654341726
1518.8558172881785 2464.129808657963
1519.633537257234 2638.9789111935947
1520.4110681618404 2626.258102662237
1521.1884100526604 2603.2449030237317
1521.9655629803365 2511.176116772243
1522.7425269954856 2721.762953287231
1523.5193021487103 2927.7502982304677
1524.2958884905856 2422.087741113014
1525.0722860716687 2544.0582288718156
1525.848494942502 2470.438781924543
1526.624515153595 2612.796045160936
1527.4003467554485 2510.785037210127
1528.175989798534 2743.0961529856263
1528.9514443333064 2594.847599715562
1529.726710410203 2687.7156090530184
1530.5017880796331 2469.555266003877
1531.276677391992 2564.8566974004552
1532.0513783976457 2778.055510813698
1532.825891146953 2581.5875760520166
1533.6002156902414 2654.7307693001467
1534.3743520778207 2644.5065315216593
1535.1483003599806 2615.1145202664347
1535.9220605869923 2700.832740924948
1536.6956328091019 2622.7161567561448
1537.4690170765407 2551.4636581530626
1538.242213439511 2680.521059156616
1539.015221948208 2598.930257980804
1539.78804265279 2450.8198341909856
1540.560675603405 2414.959031338245
1541.3331208501804 2690.6013146796004
1542.1053784432224 2750.509978200897
1542.8774484326168 2569.275559143615
1543.649330868422 2599.635385804202
1544.4210258006842 2667.4266189190157
1545.1925332794308 2591.1891578464993
1545.9638533546604 2614.3087317721393
1546.7349860763552 2491.999196363365
1547.5059314944829 2883.981011758941
1548.27668965898 2642.4332238842044
1549.0472606197673 2641.219566531633
1549.817644426752 2482.5224059317725
1550.5878411298072 2787.637800589771
1551.3578507787988 2734.9262163800267
1552.1276734235635 2446.748484132176
1552.8973091139233 2628.5110564998035
1553.6667578996767 2740.00952697213
1554.436019830604 2601.830586070271
1555.20509495646 2556.813589868733
1555.9739833269869 2513.4991343616653
1556.7426849919011 2493.3622082661605
1557.511200000903 2892.72959648079
1558.2795284036674 2674.8123713621294
1559.0476702498509 2463.4816958858346
1559.8156255890954 2790.374026315255
1560.5833944710157 2996.5510892741067
1561.3509769452048 2529.969317385642
1562.1183730612447 2574.5909055252023
1562.8855828686865 2667.8699595590306
1563.6526064170703 2918.1902193107608
1564.4194437559127 2720.401073498472
1565.1860949347047 2603.3292225232176
1565.9525600029283 2889.766238695673
1566.7188390100328 3033.4867133147027
1567.4849320054564 2535.917258718178
1568.250839038612 2594.687664859974
1569.0165601588997 2648.2681447603422
1569.7820954156887 2812.1669753814363
1570.5474448583373 2586.27129503534
1571.31260853618 2534.1464235088915
1572.0775864985299 2481.9208995722292
1572.8423787946813 2634.3599932432294
1573.6069854739108 2526.889506520206
1574.371406585471 2627.7003633322647
1575.1356421785986 2779.9364203901273
1575.899692302506 2567.751521834608
1576.6635570063845 2663.2634603681136
1577.4272363394157 2614.1703481471222
1578.190730350747 2457.4537048991237
1578.9540390895163 2733.4908003195583
1579.7171626048384 2404.8008174591005
1580.480100945806 2474.8128231308783
1581.2428541614918 2498.431195931783
1582.0054223009538 2782.7181628436324
1582.767805413223 2516.726457797892
1583.5300035473156 2563.678714377047
1584.292016752228 2863.525275167259
1585.0538450769309 2780.200531919042
1585.8154885703807 2425.7002659102027
1586.5769472815136 2476.901941268353
1587.3382212592405 2655.361431198492
1588.099310552463 2744.905085558716
1588.8602152100484 2562.265038548169
1589.6209352808564 2708.403707386611
1590.3814708137234 2572.1981454936663
1591.14182185746 2939.488807365374
1591.9019884608679 2536.091594042159
1592.6619706727215 2324.4014813727617
1593.4217685417734 2562.3931136127644
1594.1813821167616 2936.454813290823
1594.9408114464022 2533.240789584393
1595.7000565793933 2502.4457390684465
1596.459117564409 2729.1904560260396
1597.2179944501113 2483.7334616393982
1597.9766872851324 2483.3783836590223
1598.735196118092 2710.770105184396
1599.4935209975883 2626.0591754244138
1600.2516619721973 2781.955559119788
1601.0096190904787 2573.3938312790074
1601.7673924009723 2464.1171457392384
1602.524981952196 2649.016967699989
1603.2823877926476 2643.2706764965014
1604.0396099708087 2468.977518227325
1604.7966485351371 2394.1940003021346
1605.5535035340745 2482.4894340142123
1606.3101750160404 2792.9072156817065
1607.0666630294363 2361.50039099716
1607.822967622642 2396.962652863303
1608.5790888440224 2568.0304559557953
1609.3350267419137 2756.551181666492
1610.0907813646445 2639.444262461895
1610.8463527605145 2471.222458157362
1611.601740977805 2718.4108743511397
1612.356946064785 2551.898801328024
1613.1119680696902 2379.9118968069597
1613.8668070407512 2427.589596731168
1614.6214630261748 2506.169001807632
1615.375936074137 2764.4917856589104
1616.1302262328118 2609.1526164715656
1616.8843335503425 2612.6353016305384
1617.638258074854 2527.4483897434193
1618.391999854457 2598.5508164518205
1619.1455589372363 2645.546740044112
1619.8989353712623 2624.869889033288
1620.65212920458 2326.278786682238
1621.4051404852235 2427.018501676107
1622.1579692611976 2704.4789847623533
1622.9106155804966 2356.6094112012543
1623.663079491087 2496.2648175697013
1624.4153610409248 2626.220772395249
1625.1674602779385 2439.2434675715717
1625.9193772500403 2384.24989811562
1626.6711120051277 2783.568151042612
1627.4226645910676 2547.438576663774
1628.174035055721 2325.5555316032046
1628.9252234469168 2556.6989565013246
1629.676229812474 2453.5679515766906
1630.4270542001905 2849.7837473250597
1631.1776966578382 2633.3942770673225
1631.9281572331747 2453.603491401286
1632.678435973945 2755.7727124825788
1633.4285329278573 2603.3300764766673
1634.1784481426203 2305.7036669140903
1634.9281816659113 2571.8173192887602
1635.677733545388 2723.7494814309925
1636.4271038286934 2479.428840797923
1637.176292563452 2616.546406878265
1637.9252997972635 2446.4379366869766
1638.674125577716 2564.1899508301867
1639.4227699523672 2824.075667261584
1640.171232968767 2398.517425270733
1640.9195146744423 2519.6650209144873
1641.6676151168977 2797.6109013661503
1642.4155343436178 2843.586902025799
1643.1632724020765 2488.947250313172
1643.9108293397167 2613.3955222147024
1644.658205203974 2474.5176667161886
1645.4054000422566 2531.6869515694216
1646.1524139019566 2588.701625431121
1646.8992468304423 2319.9488992884135
1647.6458988750728 2479.5849970630293
1648.3923700831765 2460.5549078971844
1649.1386605020743 2473.426916228539
1649.8847701790564 2758.8409678909156
1650.6306991614038 2589.05733106597
1651.3764474963682 2754.2755588119207
1652.1220152311944 2315.9390580778468
1652.867402413096 2576.5511935528393
1653.6126090892776 2655.2346396132625
1654.3576353069184 2784.840459709204
1655.1024811131829 2591.471037518121
1655.8471465552066 2589.895735875429
1656.5916316801213 2785.607251375537
1657.3359365350298 2721.0675157347714
1658.0800611670165 2524.6000542330157
1658.824005623148 2706.781544254904
1659.5677699504722 2425.405951391996
1660.3113541960192 2663.530596703249
1661.054758406799 2526.7425462915407
1661.7979826297997 2398.666405698043
1662.5410269119966 2370.8154758426203
1663.283891300338 2709.2295419762518
1664.0265758417645 2431.660295656994
1664.7690805831826 2612.440063630623
1665.5114055714948 2648.499657267425
1666.2535508535748 2867.0738875951956
1666.9955164762814 2312.159008130196
1667.7373024864555 2499.2207271169536
1668.478908930916 2645.2226867431823
1669.220335856462 2387.870759845958
1669.9615833098778 2440.5991532764474
1670.7026513379296 2523.914418049518
1671.44353998736 2594.5467922786643
1672.1842493048916 2541.4843181552687
1672.9247793372379 2414.4127569846123
1673.6651301310812 2599.0081770450824
1674.4053017330934 2475.0804782491923
1675.1452941899242 2691.918190063133
1675.885107548207 2103.890780678242
1676.6247418545518 2262.160135945942
1677.3641971555535 2360.471526601551
1678.1034734977893 2526.256173907931
1678.8425709278108 2460.9456768912173
1679.5814894921605 2551.998509118734
1680.320229237359 2586.9333416486993
1681.0587902098978 2639.053686459066
1681.7971724562685 2389.4495866926172
1682.5353760229264 2341.218513612739
1683.2734009563173 2644.742984359649
1684.0112473028657 2320.303199231694
1684.7489151089794 2552.7808889497474
1685.4864044210462 2652.7189162780137
1686.2237152854377 2148.6080407281015
1686.960847748498 2553.9179073261566
1687.6978018565642 2194.734231593765
1688.434577655944 2275.6282176734444
1689.1711751929379 2105.7963543244477
1689.9075945138156 2426.439610390172
1690.6438356648396 2238.295258586293
1691.3798986922448 1966.841159460435
1692.1157836422499 2286.607102238339
1692.851490561059 2275.2867265228992
1693.587019494853 2411.023597083884
1694.3223704897991 2105.448512065864
1695.0575435920364 1934.3912206153623
1695.792538847696 2028.4888879700252
1696.527356302886 2122.6226961069765
1697.2619960036936 2003.0239013663765
1697.9964579961907 2063.9648456949476
1698.730742326432 1905.5147019526175
1699.4648490404488 1888.9578351875184
1700.1987781842563 2121.4561361451997
1700.9325298038548 2380.646539046382
1701.6661039452174 2393.7948844535576
1702.3995006543082 2175.1663141542062
1703.1327199770658 2252.9826909048893
1703.865761959416 1797.5620718315554
1704.598626647261 1875.05323569249
1705.3313140864866 1952.7696730172859
1706.0638243229587 2090.7201834493835
1706.7961574025303 2183.9768046856248
1707.528313371029 2151.934510076173
1708.260292274268 1917.40571469948
1708.9920941580403 2130.9892021742476
1709.7237190681226 2072.5659906420324
1710.4551670502697 2095.326648664749
1711.18643815022 1837.3744549492417
1711.9175324136959 1989.5434276578853
1712.6484498863938 2141.930533478056
1713.379190614005 1799.8479253440885
1714.109754642188 1967.399267146114
1714.8401420165883 1980.0927043658944
1715.570352782839 2090.7151161521715
1716.3003869865497 2201.6169424973896
1717.0302446733076 1876.6323372238464
1717.7599258886876 2071.428293865857
1718.4894306782444 2313.5405140095518
1719.2187590875183 1865.1852768820124
1719.9479111620203 2209.1252060238057
1720.6768869472544 1925.963146776678
1721.4056864887025 2284.7770672434667
1722.1343098318284 2361.695951378936
1722.8627570220742 2110.977897321062
1723.591028104871 1936.3762343076764
1724.3191231256242 1773.4400271565623
1725.0470421297232 2038.7346987919677
1725.7747851625427 2083.0546756480417
1726.5023522694337 2261.2822504457145
1727.2297434957363 2052.346207767182
1727.9569588867635 1923.7372479774517
1728.6839984878152 2121.509963902203
1729.4108623441734 1711.465393805053
1730.1375505011038 2139.120694915115
1730.8640630038426 1883.8834456215368
1731.5903998976264 1879.5594155235704
1732.316561227657 2083.6551777616514
1733.0425470391274 1843.5095642903284
1733.7683573772065 2039.9747064283576
1734.4939922870508 2032.5607649271049
1735.2194518137949 2033.4358696014376
1735.9447360025606 1980.8978717315526
1736.669844898439 2046.2522494872312
1737.3947785465189 1782.716151343096
1738.1195369918605 1744.5873615982734
1738.8441202795093 2017.3289724592742
1739.5685284544943 2066.222482279341
1740.292761561821 2101.2781609929525
1741.0168196464838 2106.409364246815
1741.7407027534518 2073.9532935424077
1742.464410927687 2054.5048499893396
1743.187944214118 1880.8690796650292
1743.9113026576688 1815.3634864749743
1744.634486303241 1888.9577293681791
1745.3574951957125 1978.9494919937333
1746.0803293799509 2069.9957531349705
1746.8029889008048 2046.5276227597594
1747.5254738031017 2083.2435465731137
1748.2477841316504 1901.6049728708265
1748.969919931249 1954.5176120600495
1749.6918812466665 2009.0750082901327
1750.4136681226646 2101.6904997356137
1751.1352806039777 1996.877707132163
1751.856718735331 1698.711132739088
1752.5779825614281 1706.7780916046613
1753.2990721269507 2001.8607086327684
1754.0199874765676 2010.3689024109426
1754.7407286549314 1735.949913572166
1755.4612957066693 1837.6736166282699
1756.1816886763954 1846.5060143041778
1756.9019076087097 1995.0592238897898
1757.6219525481865 2053.6609408313097
1758.3418235393856 1949.293858542206
1759.061520626854 2062.3446116617247
1759.7810438551096 2092.318111482833
1760.5003932686614 1787.5454614307291
1761.2195689119999 2052.643581951692
1761.938570829594 2000.2936990611627
1762.657399065898 1950.3630180189455
1763.376053665348 1828.2382700343903
1764.0945346723602 1669.1526867603684
1764.812842131334 2058.2849213258123
1765.5309760866512 1797.8307061187843
1766.2489365826787 1710.4023722988175
1766.9667236637597 1652.0806768410355
1767.684337374223 1593.7179478925168
1768.401777758383 1773.2172585523817
1769.1190448605284 1745.850006378888
1769.836138724937 1657.4816880008289
1770.5530593958665 1875.8632353558114
1771.2698069175603 2132.0573304395202
1771.9863813342326 2088.3407104095027
1772.702782690094 1738.086255676697
1773.4190110293293 2052.059654261721
1774.1350663961111 1915.231650398589
1774.8509488345844 1810.7071973550235
1775.5666583888924 1906.2996999090126
1776.2821951031437 2141.768515059136
1776.9975590214362 1854.5774212385618
1777.7127501878585 1926.2837132555069
1778.4277686464684 1910.8805573793356
1779.1426144413108 2168.837275937041
1779.8572876164162 2149.0393700335685
1780.571788215797 1742.388779530903
1781.2861162834415 1938.5429686904558
1782.0002718633277 1768.3348078920976
1782.7142549994132 1882.009002097872
1783.4280657356376 1905.5702808392095
1784.141704115922 1844.35727856021
1784.855170184177 1857.9904741493367
1785.5684639842839 1949.894069846937
1786.2815855601148 1982.0214753602413
1786.9945349555237 2014.1807008989952
1787.707312214343 1749.2934406161826
1788.4199173803918 1714.6618403245097
1789.132350497468 1680.1196562494486
1789.8446116093583 1728.8845039917105
1790.556700759822 1772.9983945957495
1791.2686179926077 1806.7026548215465
1791.9803633514493 1791.6375724268728
1792.6919368800554 1707.1978018026537
1793.4033386221236 1967.8815085594604
1794.1145686213295 1960.192405494942
1794.8256269213307 2078.4492295988343
1795.536513565774 1965.9666242542717
1796.247228598284 1575.3012922007974
1796.9577720624693 1778.8380642044642
1797.6681440019165 1907.185336504368
1798.3783444602013 1907.4406793525366
1799.0883734808776 1891.9760840298004
1799.7982311074884 1935.6994016189321
1800.5079173835475 1953.8178650414307
1801.2174323525633 1986.6977091014378
1801.9267760580187 1768.4550831629651
1802.635948543386 1953.936294644795
1803.3449498521113 1638.4715695888935
1804.0537800276325 1929.0945923713705
1804.7624391133668 1878.122914000854
1805.47092715271 1577.7355238020577
1806.1792441890484 1648.401463378056
1806.8873902657433 1885.9513942155104
1807.5953654261448 1749.4721657501093
1808.3031697135812 1803.0686745796254
1809.0108031713662 1799.372927312016
1809.71826584279 1635.0680884421843
1810.425557771141 1712.7330944918317
1811.1326789996747 1693.7773430702705
1811.839629571632 1674.7069191837995
1812.5464095302468 1832.3053619687205
1813.2530189187182 1713.0062757468236
1813.959457780249 1604.4032208597635
1814.6657261580076 1936.53709533037
1815.371824095153 1737.7147855911603
1816.0777516348262 1608.118231773276
1816.78350882015 1478.449918573755
1817.4890956942272 1621.3995316117216
1818.1945123001533 1736.0948739794007
1818.8997586809928 1804.054845253436
1819.6048348798067 1638.3331101911806
1820.3097409396287 1742.3354505329476
1821.0144769034796 2178.5259027745924
1821.7190428143622 2061.200951722473
1822.423438715261 1922.6701796262173
1823.1276646491478 1815.8374573012788
1823.8317206589727 1797.886751991044
1824.5356067876692 1821.0277340942794
1825.2393230781581 1809.678997228012
1825.942869573335 1494.012490709989
1826.646246316086 1642.3063414863932
1827.3494533492758 1891.5908891666313
1828.052490715756 1777.6502082148868
1828.7553584583547 1784.8514978494418
1829.458056619891 1907.4093010968547
1830.1605852431585 1743.0295923026974
1830.8629443709433 1564.2916627385662
1831.5651340460063 1726.7254251111572
1832.2671543110919 1617.1238686677523
1832.9690052089318 1853.3112141515066
1833.6706867822395 1489.026450499874
1834.3721990737104 1800.032380361982
1835.0735421260233 1929.1824313546883
1835.774715981841 1558.0086608188874
1836.4757206838058 1981.8255573934919
1837.1765562745459 1638.6529158724406
1837.8772227966747 1546.4173286219116
1838.5777202927839 1723.4199643300096
1839.2780488054523 1680.5020534514908
1839.9782083772352 1547.7544140904608
1840.6781990506806 1675.2272607224943
1841.378020868313 1803.140787967453
1842.0776738726418 1702.768229146463
1842.777158106157 1663.562482248294
1843.4764736113375 1628.6973450955672
1844.1756204306403 1893.344290614282
1844.8745986065078 1805.0348483380149
1845.5734081813607 1671.7507985337095
1846.2720491976124 1630.5445682102322
1846.970521697649 1641.7095507583115
1847.6688257238511 1815.9691259258038
1848.3669613185684 1670.1483244626502
1849.0649285241452 1396.8182823236373
1849.7627273829057 1734.602237616225
1850.460357937156 1790.2779323865464
1851.1578202291857 1453.4073090314178
1851.8551143012664 1755.1560902239817
1852.5522401956569 1648.184603712034
1853.2491979545957 1918.6934375873666
1853.9459876203055 1647.9313675113306
1854.6426092349902 1584.044847592609
1855.3390628408451 1722.050470391523
1856.0353484800362 1937.1807752075115
1856.7314661947203 1705.5103128014937
1857.4274160270397 1569.4506729512575
1858.123198019115 1634.6850542791785
1858.8188122130487 1458.5683281264146
1859.5142586509319 1674.509426037981
1860.209537374838 1661.0790634800258
1860.9046484268183 1724.8116582003647
1861.599591848917 1977.866248496784
1862.294367683151 1688.3083040751258
1862.988975971528 1643.4589103464418
1863.6834167560355 1807.3260974143075
1864.3776900786452 1893.92678856516
1865.0717959813119 1707.951236957432
1865.7657345059724 1598.4555546057104
1866.4595056945564 1731.3977664345534
1867.1531095889586 1882.9395232156044
1867.846546231076 1497.3354457543549
1868.5398156627743 1886.0758564893574
1869.2329179259123 1525.2829268512212
1869.9258530623283 1509.9496261836778
1870.618621113843 1494.5586428026686
1871.3112221222636 1501.9144554603051
1872.0036561293764 1580.3764489983657
1872.695923176956 1721.328666121549
1873.3880233067594 1848.4023300837512
1874.0799565605212 1479.1975145590723
1874.7717229799673 1692.645755967012
1875.4633226068036 1967.2926136653264
1876.1547554827175 1803.8817000305432
1876.8460216493859 1596.060671865724
1877.5371211484617 1645.9706830116388
1878.2280540215852 1869.3138289636747
1878.9188203103804 1511.3978989484453
1879.6094200564548 1651.6696261766137
1880.299853301396 1628.1166288483328
1880.9901200867826 1857.3772367134327
1881.6802204541673 1753.1014088724237
1882.3701544450942 1717.063559168418
1883.059922101087 1436.4131877450768
1883.7495234636517 1481.4658099733601
1884.4389585742792 1526.55604346627
1885.1282274744517 1613.120485109047
1885.8173302056166 1662.7884909995253
1886.506266809225 1712.5254026490434
1887.195037326701 1403.8752011712054
1887.8836417994517 1728.2878975640901
1888.5720802688702 1985.2495261300464
1889.260352776333 1877.568005832452
1889.9484593632042 1932.741766341432
1890.63640007082 1625.9908929768876
1891.3241749405151 1488.2910218414731
1892.0117840135954 1785.7422302881725
1892.6992273313572 1707.2752156349839
1893.3865049350788 1594.4987031093608
1894.0736168660223 2042.117057775305
1894.7605631654333 1762.7222058327802
1895.4473438745408 1880.7081988946152
1896.133959034556 1591.1403435663979
1896.820408686679 1725.6891948000186
1897.506692872088 1964.1791166484986
1898.192811631945 1697.8907579225113
1898.8787650073991 1586.793464391505
1899.5645530395832 1767.774890878664
1900.2501757696118 1863.0977311338288
1900.9356332385796 1953.2518246018535
1901.620925487574 1628.5010042041542
1902.3060525576602 1717.9841527483472
1902.9910144898859 1687.8669667777758
1903.6758113252872 1614.1482741881969
1904.3604431048789 1715.0929927874508
1905.0449098696663 1843.6344648359045
1905.7292116606295 1677.838929001559
1906.4133485187394 1473.7711269345868
1907.0973204849488 1624.845832411268
1907.7811276001976 1440.8058698362222
1908.4647699053967 1649.339291267108
1909.1482474414588 1599.6290945965677
1909.8315602492694 1549.7444025407044
1910.5147083696957 1891.969358550316
1911.1976918436012 1519.3268091988532
1911.880510711815 1592.3010826073157
1912.5631650151681 1605.462327211231
1913.2456547944657 1618.5987971774434
1913.927980090495 1599.4541690620633
1914.6101409440362 1571.055372826793
1915.2921373958416 1790.135580525633
1915.9739694866603 1625.0955151431185
1916.655637257214 1889.913561376728
1917.3371407482136 1657.1713104897535
1918.0184800003572 1925.1898340120672
1918.6996550543154 1789.3971051042913
1919.3806659507554 1624.5801692298846
1920.0615127303208 1782.470855694465
1920.7421954336423 1914.4590746512433
1921.4227141013343 1959.174626693725
1922.103068773993 1777.982176470849
1922.783259492202 1797.5477691669585
1923.4632862965227 1707.3686162469112
1924.1431492275078 1650.692571457755
1924.8228483256917 1545.5657664726534
1925.5023836315922 1651.1466838293036
1926.1817551857057 1829.7549506436342
1926.8609630285227 1587.4285032625676
1927.5400072005123 1778.5691220571662
1928.218887742125 1675.3731766761066
1928.8976046938005 1485.9150365051935
1929.5761580959588 1639.354813639408
1930.2545479890086 1783.846691245868
1930.9327744133352 1409.063127896036
1931.6108374093164 1656.2994372998357
1932.2887370173066 1500.0071912209364
1932.9664732776473 1343.3123819098669
1933.6440462306673 1600.692225531712
1934.3214559166754 1638.353040936352
1934.9987023759659 2078.169528095413
1935.675785648813 1767.7683901343098
1936.3527057754836 1353.368890498918
1937.029462796223 1427.8777554248577
1937.70605675126 1502.5790350679904
1938.3824876808085 1602.2134136808381
1939.058755625072 1618.3032654659803
1939.7348606242267 1626.8284798757327
1940.4108027184448 1672.6101111362223
1941.0865819478713 1815.0087676249398
1941.7621983526478 1499.4753671841438
1942.4376519728921 1547.1566846290116
1943.1129428487038 1708.062939204025
1943.7880710201734 1792.496446966178
1944.4630365273733 1684.875745533899
1945.1378394103576 1505.7873322293815
1945.8124797091714 1450.9770389755588
1946.4869574638324 1396.0071819997877
1947.161272714353 1560.3722936237475
1947.8354255007234 1753.9751601037435
1948.5094158629272 1521.6653084362183
1949.1832438409183 1686.5204797727242
1949.8569094746435 1689.9682112912342
1950.530412804037 1911.4695256044056
1951.2037538690092 1848.1851895336688
1951.8769327094578 1610.9837901647313
1952.5499493652678 1610.41583749163
1953.222803876306 1909.296248510172
1953.895496282421 1679.1390692773468
1954.5680266234522 1762.1472622741235
1955.2403949392155 1802.3140669843397
1955.9126012695142 1496.2900609704175
1956.5846456541403 1660.197254983616
1957.2565281328643 1597.804057130577
1957.9282487454457 1806.032732573821
1958.5998075316202 1822.0023839358255
1959.27120453112 1612.0278270881304
1959.9424397836501 1649.5450447466112
1960.613513328908 1689.1046486045657
1961.2844252065697 1599.2358192200722
1961.9551754563017 1509.1794259554633
1962.6257641177453 1616.3812634048245
1963.29619123054 1502.4698631315898
1963.966456834296 1611.625053433426
1964.6365609686181 1465.9295383287495
1965.306503673086 1737.5735296998657
1965.976284987275 1607.4522515951044
1966.645904950734 1748.254879656628
1967.315363603002 1667.2171334304755
1967.9846609836077 1586.0288084432066
1968.6537971320486 1649.8002332817446
1969.3227720878222 1730.3312484049413
1969.9915858904042 1666.6738206480782
1970.660238579252 1697.8615204696962
1971.3287301938108 1629.34283188243
1971.997060773514 1506.5276677998686
1972.665230357772 1481.7248634961313
1973.3332389859843 1534.2997864486374
1974.0010866975335 1443.386538103976
1974.6687735317864 1670.8044077554393
1975.3362995280932 1748.703369760747
1976.003664725793 1764.0592789920659
1976.6708691642052 1323.8913461854042
1977.3379128826364 1575.5420919449903
1978.004795920373 1902.0886575050124
1978.6715183166925 1611.281128138181
1979.3380801108524 1829.9995684472142
1980.0044813420973 1590.223051872003
1980.6707220496555 1345.745608003928
1981.3368022727373 1721.274578563673
1982.0027220505417 1760.6643732307355
1982.66848142225 1636.1778402939892
1983.3340804270283 1511.5648803700374
1983.999519104027 1575.227554011529
1984.6647974923835 1660.1113743556732
1985.329915631215 1829.5244138165976
1985.99487355963 1646.3023488741583
1986.6596713167146 1936.6678690239828
1987.3243089415428 1877.4481644706134
1987.9887864731754 1818.0736878214889
1988.6531039506553 1536.0858800785327
1989.3172614130071 1532.3493733810471
1989.9812588992481 1528.630533174637
1990.645096448372 1351.9398767249997
1991.3087740993633 1624.5331076915463
1991.9722918911848 1667.5827022378787
1992.635649862792 1623.4894687801384
1993.2988480531185 1674.7942956543634
1993.9618865010852 1586.4979068312216
1994.6247652455968 1498.093238352961
1995.287484325545 1464.0718898210075
1995.9500437798033 1552.4142736004642
1996.6124436472292 1502.1763823039414
1997.2746839666706 1731.9246445202748
1997.936764776954 1471.0114259937652
1998.598686116895 1535.283018677216
1999.2604480252903 1898.190756542733
1999.9220505409212 1833.6034392894314
2000.5834937025593 1451.0773516503255
2001.2447775489582 1605.9067076341726
2001.9059021188514 1638.3244238274558
2002.5668674509616 1469.6059158310427
2003.2276735839987 1664.7234209562926
2003.8883205566508 1884.807952395302
2004.5488084075987 1493.446935317052
2005.2091371755014 1619.5814562091932
2005.8693068990033 1453.1382157143544
2006.5293176167397 1449.131718258776
2007.1891693673224 1445.2492149969655
2007.848862189354 1441.489764565923
2008.5083961214223 1612.3368549656127
2009.1677712020955 1586.1147946162744
2009.8269874699254 1397.5266760207164
2010.4860449634598 1401.3996064657056
2011.1449437212177 1405.365301371641
2011.8036837817108 1813.9372747931131
2012.4622651834325 1733.8701540365976
2013.1206879648653 1656.7833339334634
2013.7789521644736 1498.1352751504241
2014.4370578207036 1774.878971770412
2015.0950049719922 1631.7129553024301
2015.7527936567585 1848.2595705590222
2016.4104239134067 1591.124350261331
2017.067895780323 1526.7604650110768
2017.725209295886 1462.168929213476
2018.3823644984514 1906.506036942213
2019.0393614263648 1539.4719716713848
2019.6962001179545 1708.5379015851308
2020.3528806115355 1830.1297231242702
2021.0094029454067 1737.698251829128
2021.6657671578487 1366.3087895571766
2022.321973287133 1631.3267111142877
2022.9780213715148 1579.0867161931203
2023.6339114492293 1690.8950548520509
2024.2896435585026 1565.721169349142
2024.9452177375442 1602.7159721408773
2025.600634024544 1870.576065601445
2026.2558924576842 1813.3019214805045
2026.9109930751292 1807.7723741453142
2027.565935915025 1560.6058695433162
2028.2207210155066 1944.2310259394112
2028.8753484146964 2076.892177052888
2029.529818150695 1987.7656754897253
2030.1841302615903 1898.2218165849213
2030.8382847854573 1561.3685774592693
2031.4922817603601 1703.5789725974814
2032.1461212243357 1555.7190278624091
2032.7998032154192 1365.6293145987286
2033.4533277716218 1590.979399818797
2034.1066949309443 1411.167623921543
2034.7599047313688 1449.7409967572207
2035.4129572108704 1778.8209746979069
2036.0658524074006 1690.9547700128212
2036.7185903589016 1627.2204529693436
2037.3711711032956 1743.2600711294065
2038.023594678496 1655.3818799650403
2038.675861122394 1480.197741677443
2039.3279704728757 1508.3677351959516
2039.9799227678031 1536.740761613386
2040.6317180450278 1610.7550048024898
2041.2833563423865 1582.842785817819
2041.9348376977014 1935.1120761641055
2042.5861621487784 1872.9376754309203
2043.2373297334088 1618.775409959812
2043.8883404893695 1768.9266961452547
2044.5391944544208 1836.5685117068365
2045.1898916663158 1830.3717232007425
2045.8404321627804 1954.8834970677835
2046.4908159815368 1614.7961874612758
2047.1410431602853 1523.9401713750399
2047.7911137367173 1451.929170640017
2048.441027748504 1388.1771215026172
2049.090785233302 1324.3115971100533
2049.7403862287592 1648.1671167999314
2050.389830772503 1963.3461423522863
2051.0391189021466 1520.5153151261825
2051.688250655294 1782.1186530749596
2052.337226069527 1405.2639145311853
2052.986045182417 1785.5268458077785
2053.634708031521 1807.7274624043098
2054.283214654375 1830.0852510480636
2054.931565088511 1345.3762826935258
2055.579759371436 1301.3784514883225
2056.2277975406523 1830.2702067631185
2056.8756796336384 1889.3003332910296
2057.5234056878617 1296.2787965532207
2058.1709757407752 1525.6039281335932
2058.8183898298194 1965.5709162655028
2059.465647992416 1865.1663582375327
2060.1127502659747 1786.111412002191
2060.759696687888 1748.9020700620272
2061.4064872955405 1711.701343672938
2062.053122126292 1888.7839630122503
2062.699601217497 1731.0331702313274
2063.345924606485 1573.3166793840273
2063.992092330587 1719.0495476796827
2064.638104427102 1882.5514541445095
2065.283960933324 1514.343249250461
2065.92966188653 1646.1600481124763
2066.5752073239855 1778.670790023782
2067.2205972829397 1461.1536985661867
2067.86583180062 1643.7603149323415
2068.5109109142522 1537.556102668714
2069.15583466104 1679.4196593251195
2069.8006030781708 1445.6029003588794
2070.445216202821 1662.7476142049247
2071.089674072153 1818.5236002464585
2071.7339767233116 1941.3708519896659
2072.3781241934303 1703.8165045722021
2073.0221165196253 1698.932646388411
2073.6659537390024 1480.537830083601
2074.3096358886505 1597.9174298560802
2074.953163005637 1603.444761937458
2075.596535127028 1350.4560345582265
2076.2397522898664 1390.2449823778475
2076.882814531182 1527.4626360985053
2077.5257218879924 1663.7071135940664
2078.1684743973 1554.6495060152765
2078.8110720960885 1843.6958301779014
2079.453515021336 1542.7637243921217
2080.095803209997 1737.8388448809114
2080.7379366990135 1639.8995747452561
2081.37991552532 1776.4730860036386
2082.0217397258275 1795.7744577113226
2082.6634093374414 1677.5200960845546
2083.3049243970418 1559.208236948051
2083.9462849415067 1713.50107604719
2084.587491007689 1640.8721312168655
2085.2285426324324 1594.8159905311436
2085.869439852564 1589.2184669888843
2086.510182704902 1614.8854821479501
2087.1507712262483 1633.6582586602456
2087.791205453381 1662.8584001970025
2088.4314854230743 1692.070210453579
2089.0716111720867 1643.5593251938074
2089.7115827371617 1427.7477248731454
2090.351400155023 1513.832356791689
2090.991063462385 1600.1469749286218
2091.6305726959527 1394.4122330081418
2092.2699278924047 1436.6399017912381
2092.9091290884153 1479.0112781524726
2093.548176320641 1551.8824366467884
2094.187069625721 1744.2187141163067
2094.8258090402887 1766.0367558800892
2095.464394600951 1787.90476583373
2096.102826344313 1633.8145393535378
2096.741104306955 1515.8094244375247
2097.379228525453 1397.5448095377328
2098.017199036358 1341.4108436123386
2098.6550158762147 1581.5609276675711
2099.2926790815527 1822.2221178241202
2099.9301886888825 1689.5320833416572
2100.5675447347076 1586.0950848103435
2101.2047472555114 1882.5160579403903
2101.841796287761 1611.9785586340709
2102.47869186792 1575.7421537633757
2103.1154340324265 1429.0077512801097
2103.752022817709 1599.3734042795352
2104.388458260184 1465.4578221675822
2105.024740396251 1502.8268657145684
2105.660869262292 1374.5058239659602
2106.296844894685 1514.5947994215235
2106.93266732978 1655.0444278254042
2107.5683366039284 1661.8095528446404
2108.2038527534532 1593.131201714048
2108.8392158146726 1509.9165779038226
2109.4744258238843 1426.5224031655707
2110.1094828173755 1605.177788959154
2110.744386831422 1574.1345151336727
2111.3791379022787 1543.0357600278567
2112.01373606619 1815.6024701531264
2112.648181359389 1761.167788627441
2113.28247381809 1529.769283404046
2113.916613478492 1769.339435700001
2114.550600376786 1657.3927065960252
2115.1844345491445 1503.765317167387
2115.818116031729 1296.1678384752754
2116.451644860679 1446.1097461711618
2117.085021072133 1348.7997634027854
2117.718244702204 1566.0614349419861
2118.3513157869984 1506.3951443967583
2118.984234362604 1338.9834004348681
2119.617000465092 1480.7580003551184
2120.249614130529 1531.510481343697
2120.8820753949585 1582.345715808748
2121.5143842944162 1396.0211744075937
2122.14654086492 1550.6933201255133
2122.7785451424734 1781.9833689883726
2123.4103971630702 1730.4498125971004
2124.042096962681 1678.9868051482088
2124.6736445772767 1800.796971112936
2125.305040042802 1484.6740034089166
2125.936283395191 1724.0955191167025
2126.567374670365 1635.975063494229
2127.198313904233 1509.0545748207717
2127.8291011326855 1443.7090382645115
2128.4597363916037 1378.0552233509875
2129.0902197168507 1529.6973148201498
2129.720551144279 1837.6016536141196
2130.3507307097225 2145.8266782108967
2130.980758449008 1964.052444076099
2131.6106343979427 1868.5921047236995
2132.2403585923203 1772.9275440576953
2132.8699310679276 1831.2219595183258
2133.499351860526 1818.373601865711
2134.1286210058715 1585.6626042736004
2134.7577385397053 1734.5796621731915
2135.3867044977487 1883.7370293353076
2136.0155189157176 1966.2419097607112
2136.644181829308 1931.2817197202835
2137.2726932742025 1717.1975645169964
2137.901053286074 1499.7378197127948
2138.5292619005777 1786.5552444351968
2139.1573191533535 1514.259607315536
2139.7852250800315 1695.4308125655134
2140.4129797162295 1781.31573695907
2141.0405830975433 1394.9913796424046
2141.6680352595613 1395.688103752095
2142.2953362378576 1396.402043571991
2142.9224860679915 1468.5108403432375
2143.549484785508 1343.4869070534837
2144.1763324259373 1409.3517270362436
2144.803029024799 1561.460794674554
2145.429574617594 1566.6646830406457
2146.0559692398165 1494.9827634669457
2146.682212926942 1423.065039917486
2147.308305714432 1642.6311910616282
2147.9342476377333 1890.3601734108865
2148.5600387322847 1985.6321809150613
2149.185679033506 1636.6745410279755
2149.8111685768017 1451.7392358174156
2150.4365073975678 1406.9341874044026
2151.061695531187 1447.715569538696
2151.686733013021 1569.1897793374633
2152.311619878423 1691.009427078515
2152.9363561627342 1543.002724940548
2153.560941901278 1424.1051473485359
2154.1853771293663 1771.7083978331466
2154.809661882293 1665.303623897146
2155.433796195348 2055.6024353486146
2156.0577801037944 1983.4615942739485
2156.681613642895 1911.0494748293902
2157.3052968478896 1432.0228467932861
2157.928829754006 1574.082418117784
2158.552212396462 1919.6781124777804
2159.1754448104566 1605.0736270739421
2159.7985270311783 1282.5676954577643
2160.4214590938027 1050.050341596278
2161.0442410334927 1210.86930303363
2161.6668728853874 1324.2630026769407
2162.289354684628 1437.9153273997272
2162.911686466332 1544.0299840036832
2163.533868265602 1737.0739746455706
2164.1559001175337 2035.3780022096616
2164.7777820572046 1686.8081173592902
2165.399514119681 1546.6299826392565
2166.021096340013 1508.8522700574204
2166.6425287532384 1826.0082608816533
2167.263811394385 1417.6458134813288
2167.8849442984574 1403.9945937206369
2168.505927500455 1390.4610775919562
2169.126761035366 1677.94825273977
2169.7474449381552 1276.1698726457846
2170.367979243778 1225.5103920892163
2170.9883639871823 1877.2348542295076
2171.608599203293 1373.2469470640876
2172.2286849270276 2097.9193561813927
2172.8486211932886 2225.725217459509
2173.4684080369625 1759.5297697171918
2174.0880454929265 1348.810147487476
2174.7075335960417 1283.121651401338
2175.3268723811543 1317.7866380795665
2175.9460618831 1352.5579595635518
2176.565102136701 1578.3863529403861
2177.1839931767627 1562.5340463439773
2177.802735038078 1546.6622870096674
2178.421327755432 1422.249934682271
2179.0397713635866 1328.140018023533
2179.658065897298 1397.9025227545512
2180.276211391305 1653.5179985300529
2180.8942078803357 1676.8715413538744
2181.5120553991 1708.2439667663803
2182.129753982299 1369.5585279216875
2182.7473036646206 1537.5492289281588
2183.3647044807367 1615.9158024169442
2183.9819564653044 1514.2257527882225
2184.599059652968 1627.891156229339
2185.216014078367 1733.762614446398
2185.832819776113 1895.223620903365
2186.4494767808137 2056.959450068525
2187.065985127063 1554.314729013936
2187.682344849436 1496.222298982611
2188.298555982501 1610.1041742823263
2188.9146185608097 1724.0795423778927
2189.530532618901 1721.3913581807333
2190.1462981912937 1634.4260465342388
2190.761915312507 1710.626371510444
2191.377384017036 1547.3757461958226
2191.9927043393654 1522.920844609741
2192.6078763139667 1810.8988055669936
2193.2228999753006 1389.3636827735797
2193.837775357808 1657.3499850736648
2194.452502495922 1290.936524975375
2195.0670814240602 1525.1194212177365
2195.6815121766285 1299.0405632987245
2196.2957947880186 1219.3659405769681
2196.9099292926057 1139.53472204521
2197.523915724758 1635.8441613910543
2198.137754118825 1508.1578764890005
2198.7514445091456 1899.8960701510728
2199.3649869300443 2025.576762525089
2199.9783814158327 2151.6360655572335
2200.5916280008096 2028.389116172643
2201.2047267192593 1798.2389252891408
2201.8176776054515 1650.738960358256
2202.430480693649 1523.7118084702372
2203.0431360180955 1853.7880145868735
2203.6556436130195 1872.9333560691018
2204.268003512645 1715.1529886987032
2204.8802157511727 1557.0162815393278
2205.492280362796 1901.7685649517814
2206.1041973816937 1518.1573951451458
2206.715966842032 1629.7499224253597
2207.3275887779655 1787.9169204848008
2207.93906322363 1617.3523379169624
2208.550390213153 1744.5394857226518
2209.1615697806465 1837.8913185977497
2209.7726019602105 1477.0417121779406
2210.3834867859277 1344.0009864967578
2210.9942242918787 1493.0093873135545
2211.6048145121167 1562.9163776159053
2212.2152574806914 2323.8851540731275
2212.825553231638 1418.6096417331742
2213.435701798975 2238.3250379381543
2214.045703216707 1534.8106478749428
2214.655557518832 1133.678221227871
2215.2652647393297 1303.3968380619808
2215.874824912169 1489.2431942157893
2216.4842380713 1675.6734954160954
2217.09350425067 1326.3696706366914
2217.7026234842033 1967.6001479374559
2218.311595805819 1816.0488288304944
2218.9204212494133 1644.0387077308947
2219.52909984888 1927.5279336313554
2220.137631638092 1236.957572521467
2220.7460166509154 1895.7065444958564
2221.354254921198 1329.7165508307432
2221.9623464827764 1728.5035451498152
2222.5702913694713 1506.0089291203337
2223.178089615096 1794.980926226302
2223.7857412534486 1505.936051162467
2224.39324631831 1405.0529210424552
2225.000604843457 1394.7855861023838
2225.607816862641 1528.746144990089
2226.214882409611 1662.8403433306448
2226.8218015180973 1769.5678628838432
2227.4285742218217 1608.7532854781841
2228.0352005544864 1663.2544517890553
2228.6416805497847 1252.9677160827778
2229.248014241399 1439.053328795835
2229.8542016629945 1318.0619105779292
2230.460242848223 1610.2733876062593
2231.0661378307304 1451.5881768288496
2231.671886644139 1292.75613668084
2232.277489322065 1239.8108539956652
2232.8829458981127 1092.3204965620685
2233.48825640587 1632.7197062716416
2234.0934208789095 2106.872334545456
2234.6984393507955 1800.9361489026608
2235.3033118550793 1781.7832827462055
2235.9080384252975 1470.9226724050798
2236.5126190949723 1336.2893587973917
2237.1170538976166 1562.3500393991646
2237.721342866729 1363.3064648665043
2238.32548603579 1507.8345753338926
2238.9294834382763 1588.1393720938277
2239.533335107646 1712.522430265797
2240.1370410773434 1631.7206107447553
2240.740601380803 1452.4287121179973
2241.3440160514474 1638.6971736944743
2241.9472851226783 1707.6633287956938
2242.550408627896 1497.1683242704512
2243.1533866004793 1517.582162104744
2243.756219073799 1538.056590392115
2244.3589060812064 1399.2418559172227
2244.961447656049 1303.0296113907518
2245.5638438316564 1630.8832681167178
2246.166094641343 1613.1927792179963
2246.7682001184166 1389.6609985486225
2247.3701602961664 1454.7774633171505
2247.971975207871 1727.7633009393817
2248.5736448867974 1793.3089882941617
2249.175169366197 1511.0222639490564
2249.7765486793123 1707.2679939326924
2250.3777828593684 1599.935154106192
2250.9788719395783 1723.3224902508925
2251.579815953146 1703.6234241783743
2252.1806149332606 1406.2620929255195
2252.781268913097 1422.0557906459046
2253.381777925817 1342.2340546142482
2253.9821420045737 1718.287001761209
2254.5823611825035 1794.1560644640547
2255.1824354927303 1548.3303892354309
2255.782364968365 1428.0481540812034
2256.38214964251 1307.6439381407515
2256.9817895482483 1290.6139254217828
2257.5812847186553 1417.7195316706607
2258.180635186791 1267.1234561491588
2258.779840985704 1445.6335942377918
2259.37890214843 1467.9654585694066
2259.97781870799 1613.8818494193067
2260.5765906973957 1760.0724083592486
2261.175218149645 1683.1755566141867
2261.773701097718 1669.5505631547244
2262.3720395745895 1211.4236454077482
2262.970233613216 1266.8805137203174
2263.568283246548 1479.8433249482234
2264.1661885075137 1350.6297867478831
2264.763949429038 1403.1419101014303
2265.3615660440246 1827.4543107809518
2265.959038385374 1462.7944474405058
2266.5563664859637 1839.171742466251
2267.153550378669 1804.0963541251826
2267.7505900963424 1769.0830690182574
2268.3474856718312 1354.8217754571265
2268.9442371379664 1580.2972557907826
2269.5408445275643 1450.6553937918397
2270.1373078734377 1542.349709269694
2270.7336272083758 1602.1205905505217
2271.32980256516 1403.2197709304537
2271.925833976562 1810.8775264482633
2272.5217214753357 1995.3038506458288
2273.117465094223 1402.8798347731822
2273.7130648659586 1298.1738190642961
2274.308520823257 1491.8096122177963
2274.903832998827 1753.5984795041218
2275.4990014253563 1574.889289605119
2276.094026135528 1433.6209598004475
2276.6889071620117 1722.268869259439
2277.2836445374614 1577.6582895928227
2277.878238294519 1673.3404693064626
2278.472688465812 1398.2045742451794
2279.066995083962 1122.6058764553475
2279.6611581815705 1497.1907883733713
2280.255177791232 1468.8245261427478
2280.8490539455233 1623.764204774479
2281.442786677013 1779.057739329215
2282.0363760182554 1763.5836347378136
2282.6298220017943 1315.1910777362812
2283.223124660155 1881.0242439281442
2283.816284025859 1355.5073395675497
2284.4093001314086 1897.7906987087995
2285.002173009292 1443.1575504281243
2285.5949026919952 1609.3332582967498
2286.1874892119777 1600.2149731210689
2286.7799326016993 1680.4975708208876
2287.3722328936 1209.1952690174037
2287.964390120109 1120.7109517433705
2288.556404313642 1620.8917762020976
2289.1482755066027 1981.5886329843677
2289.7400037313873 1541.5572788759107
2290.3315890203703 1429.1175042685104
2290.9230314059205 1665.6334650625643
2291.5143309203904 1581.6334638756387
2292.1054875961236 1508.6430109329608
2292.6965014654506 1939.290853686312
2293.287372560684 1559.122646199098
2293.878100914131 1532.9855082828783
2294.468686558086 1506.8419137046553
2295.059129524827 1615.0754421563774
2295.649429846617 1602.5131556087276
2296.239587555716 1589.8780010199703
2296.8296026843636 1581.919622184712
2297.419475264791 1551.49617564776
2298.0092053292137 1520.9197858562552
2298.598792909839 1848.5914055985427
2299.1882380388597 1795.5767659376277
2299.777540748455 1743.1640608485711
2300.3667010707904 1690.569123647188
2300.9557190380256 1845.5743070955607
2301.544594682302 2292.825998395731
2302.1333280357503 2100.5122826293305
2302.721919130485 1908.0287442559384
2303.3103679986198 1989.5854514786129
2303.898674672242 2039.2573500797669
2304.486839183437 1486.9710173980461
2305.0748615642697 1568.9678678962687
2305.6627418468015 1594.8058162362677
2306.2504800630704 1577.1940081066482
2306.8380762451143 1755.2713183256187
2307.425530424949 1748.3853915171592
2308.012842634582 1741.4700407427422
2308.6000129060103 1907.3475417577934
2309.187041271214 1634.9642686961167
2309.773927762164 1361.982898215592
2310.3606724108213 1785.3603463007662
2310.9472752491274 1753.2873045901192
2311.5337363090184 1721.172691314024
2312.120055622414 1473.2451440956336
2312.706233221221 1501.268084723479
2313.2922691373424 1347.4690915842957
2313.8781634026564 1386.035385036132
2314.463916049037 1424.6746256097574
2315.049527108342 1727.3245731584643
2315.6349966124235 1908.8252902792115
2316.2203245931123 1937.418033507242
2316.8055110822315 1664.0373833182166
2317.3905561115935 1390.0067279671925
2317.9754597129977 1249.3189943289742
2318.560221918229 1360.0022296306383
2319.1448427590603 1470.9663857291082
2319.729322267256 1401.346939976699
2320.313660474563 1524.385342188193
2320.8978574127195 1621.2001567666937
2321.481913113452 1718.3520562370086
2322.0658276084705 1557.2380483999323
2322.6496009294806 1606.224458102514
2323.233233108165 1670.416794367688
2323.8167241762058 1622.5020760092368
2324.4000741652617 1601.2312948644526
2324.983283106987 1870.4244579749654
2325.5663510330232 1679.25157542436
2326.1492779749933 1487.4428842579969
2326.7320639645204 1734.9515089522865
2327.3147090332004 1989.428205376343
2327.897213212629 1476.8548819147943
2328.4795765343843 1701.6317537383616
2329.0617990300307 1433.9355489048714
2329.643880731124 1969.2800056855674
2330.22582166921 1393.5006691195185
2330.807621875816 1314.0969733144234
2331.3892813824623 1234.6781914771686
2331.9708002206517 1317.2458519568575
2332.5521784218818 2011.4577945827946
2333.133416017634 1818.868586160133
2333.7145130393765 1625.9255638321695
2334.295469518571 1833.8275839675694
2334.876285486658 1948.396861739564
2335.456960975076 1955.6775238388923
2336.037496015242 1963.0083340587473
2336.6178906385667 1563.094890904073
2337.198144876451 1571.7740890346126
2337.778258760278 1705.7034997384496
2338.3582323214214 1706.8461790412152
2338.938065591243 1707.9486591629513
2339.517758601087 1821.7428866261914
2340.0973113822965 1830.6040714794112
2340.676723966193 1539.2817594810583
2341.255996384094 1794.6815236992047
2341.835128667295 1858.7317847506467
2342.4141208470883 1708.3624726822713
2342.992972954751 1562.888885771807
2343.5716850215467 1658.0914957411794
2344.1502570787306 972.4912500138996
2344.7286891575386 1405.9252075950847
2345.3069812892045 2130.388108161462
2345.885133504944 1926.7701854000927
2346.4631458359618 1593.8534162989424
2347.04101831345 1431.1280636304512
2347.6187509685915 1339.6179058847063
2348.196343832553 1516.6222946155053
2348.7737969364935 1450.339672154344
2349.351110311558 1384.004836160589
2349.9282839888765 1393.6551749715238
2350.5053179995757 1385.892243575146
2351.0822123747585 1248.6612800335106
2351.658967145526 1223.397013602276
2352.2355823429643 1198.1617839972103
2352.812057998144 1616.9422521684887
2353.3883941421263 1288.2764266976487
2353.9645908059647 1574.4632531363932
2354.540648020693 1454.6785214066163
2355.116565817336 1684.4740345567284
2355.6923442269126 1523.1466890257357
2356.2679832804224 1773.8418629132248
2356.8434830088518 1533.5274746479877
2357.41884344318 1683.7778686958986
2357.994064614377 1456.9085997061034
