#exp_cfg={"servo_angle": 0.0, "laser_lim": 100.0, "servo_angle_to": 18.0, "laser_wup": 0.0, "bt_dev": "EnSpectr-25AE3", "laser_wdn_max": 0.0, "frames": 10.0, "servo_used": 0, "servo_calib_use": 0, "laser_wdn_min": 0.0, "servo_pix_from": 90.0, "cooler_tout": 300.0, "servo_angle_from": 0.0, "servo_calib": "[-1.9174921013161362e-09, 3.9322238269163779e-05, -0.27385609119055809, 653.59552119713567]", "laser_autoctl": 0, "servo_pix_to": 3682.0, "laser_pw": 100.0, "cooler_on": 0, "laser_volt": 4.0, "cooler_autoctl": 0, "cooler_curr": 70.0, "cooler_startup": 10.0, "laser_fixed_pw": 0, "gain": 1.3, "offset": 2.53059635486, "servo_calib_degree": 3.0, "laser_curr": 55.0, "shutter": 8200.0, "servo_calib_step": 1.0, "laser_fixed_curr": 0, "exp": 2000.0, "ccd_volt": 4.7, "bt_addr": "00:06:66:62:5A:E3", "servo_delay": 500.0, "laser_autooff": 1}
#proc_cfg={"flat_auto_wnd": 200.0, "flat_auto_fr": 200.0, "flat_auto_shift": 5.0, "yconv": 1, "flatten": 1, "flatten_strength": 100.0, "xfrom": 300.0, "auto_max_frame": 2000.0, "auto_signal": 48000.0, "flat_auto_tol": 0.1, "autoclip": 1, "xrel_range": 0.0, "flat_auto_to": 4000.0, "intensity_adj": 1.0, "xrel": 7852.0, "rmhot": 1, "flat_auto_slit": 4.999999999999997, "auto_ini_exp": 300.0, "auto_off": 0, "xto": 2860.0, "flat_auto_ref": "", "flat_auto_rank": 1, "autobackg": 0, "xrel_adj": 0.0, "auto_black_lvl": 1, "base_wnd": 100.0, "sub_baseline": 0, "xconv": 2, "auto_max_exp": 1000.0, "auto_total_exp": 10000.0, "auto_exp": 0, "rmripple": 0, "black_lvl": 8246.825, "shutter_clip_adj": 0.0, "auto_bckg": 0, "flat_auto_thr": 0.9, "subbackg": 1}
316.8218498245369 17973.70659653248
317.89969571804795 17726.474070056844
318.977263876126 17759.625237470464
320.05455438786703 17582.811874386178
321.1315673423287 17562.091501149556
322.2083028285215 17488.924297070284
323.2847609354267 17415.23261014544
324.3609417519747 17345.765954668906
325.43684536705587 17269.72647312597
326.5124718695279 17140.499229121306
327.58782134820103 17057.0130711411
328.66289389184385 16994.442647272903
329.7376895891921 16903.68425537436
330.8122085289342 16932.8014377133
331.88645079971866 16979.04192341046
332.9604164901575 16749.66633626019
334.03410568881554 16791.057296926032
335.1075184842266 16811.320553883084
336.18065496487543 16619.809196874154
337.2535152192122 16606.538171854532
338.32609933564163 16550.968893213663
339.39840740253203 16491.138703405206
340.4704395082099 16488.227330029305
341.5421957409617 16402.237203378223
342.6136761890357 16475.00327297187
343.6848809406365 16326.909261820643
344.75581008392874 16237.702129090403
345.82646370703696 16185.870066313499
346.8968418980512 16199.01896648423
347.96694474501055 16227.027810053263
349.0367723359268 16207.77744673662
350.106324758759 16165.302717216173
351.1756021014353 16097.90133882457
352.2446044518383 16101.288618064402
353.31333189781435 16078.157992179267
354.38178452716966 16015.30077599787
355.449962427665 16003.433338129538
356.51786568702846 15929.341899663905
357.58549439294256 16010.282907111101
358.6528486330535 15934.788415495776
359.71992849496564 15946.093476114274
360.7867340662433 15979.580529092407
361.8532654344144 15966.367118553968
362.9195226869597 15959.595123049625
363.9855059113288 15914.771712441609
365.05121519492604 15926.541123095569
366.11665062511565 15912.536896259131
367.1818122892273 15899.062915962897
368.2467002745434 15901.969409371473
369.31131466831175 15928.484387352994
370.375655557742 15910.004939195156
371.4397230299983 15846.202666705696
372.5035171722102 15834.79996551506
373.5670380714637 15814.661708522655
374.6302858148101 16008.804525746891
375.6932604892554 15906.40481261699
376.7559621817709 15853.270346759187
377.81839097928605 15768.258018298282
378.8805469686886 15871.144981232608
379.94243023683157 15848.645241469363
381.0040408705263 15770.5967366355
382.0653789565458 15663.768586127655
383.1264445816196 15721.61407576444
384.1872378324406 15687.132993663417
385.2477587956637 15716.27315558124
386.3080075579037 15578.022965538965
387.3679842057336 15535.836447326952
388.4276888256918 15463.998153867273
389.48712150426945 15496.867561586358
390.54628232792857 15399.946116871486
391.6051713830857 15477.217033808478
392.66378875611736 15379.124584548266
393.7221345333637 15447.297251776385
394.7802088011249 15277.264023386844
395.838011645661 15354.832267331145
396.89554315319765 15251.967984034074
397.9528034099112 15197.301786685528
399.00979250194723 15091.037291600014
400.06651051541485 15120.558730446477
401.1229575363741 15103.259746220017
402.17913365085224 15052.865352624078
403.23503894483656 15141.349600944919
404.2906735042761 15025.410500414737
405.3460374150818 14958.94434450072
406.401130763119 14997.139836099592
407.455953634224 14862.704313877668
408.5105061141876 14885.037802452222
409.56478828876243 14743.855797027218
410.6188002436629 14792.974746395403
411.6725420645689 14768.12628129615
412.72601383711117 14764.532605631777
413.77921564689314 14761.171450305716
414.8321475794728 14698.22557416205
415.88480972036814 14604.550088688076
416.93720215506437 14758.367442057099
417.9893249690049 14571.149296866726
419.04117824759123 14534.870374355294
420.09276207619223 14517.052618784826
421.144076540133 14471.743968286613
422.1951217247042 14498.834907223572
423.24589771515275 14464.226264732613
424.2964045966928 14424.721648874754
425.34664245449494 14417.40161660917
426.3966113736933 14269.362602987405
427.4463114393875 14253.63032094396
428.49574273662984 14296.065959234722
429.5449053504417 14247.67631447835
430.5937993658026 14249.729234214683
431.6424248676558 14175.50441608275
432.6907819409007 14180.30664017033
433.73887067040596 14171.97921209289
434.7866911409965 14124.310096775263
435.8342434374608 14147.671255715817
436.88152764455117 14136.550818206513
437.9285438469724 14025.716742211709
438.9752921294057 13961.137182130526
440.02177257648145 14022.825172199819
441.06798527279716 13899.166844810952
442.1139303029122 14045.353823115593
443.1596077513459 14209.659849605707
444.2050177025794 14001.258613219135
445.25016024105753 13919.512549557034
446.2950354511886 14008.550294911096
447.33964341733736 13958.841862486972
448.383984223834 13880.691042745364
449.4280579549686 13789.503590164002
450.471864694995 13901.0107008177
451.5154045281306 13818.504646534153
452.5586775385509 13780.62326490201
453.60168381039693 13681.633321764306
454.64442342776783 13877.928746016847
455.6868964747264 13795.70151071398
456.7291030353008 13776.241131939252
457.77104319347563 13854.587928972807
458.8127170332027 13751.843234094562
459.854124638392 13699.364747083402
460.895266092919 13853.79659779836
461.93614148061897 13752.039724082962
462.97675088529104 13769.511420583562
464.01709439069236 13782.212888724851
465.0571720805492 13722.916767606293
466.0969840385442 13745.363097792488
467.1365303483253 13836.978746710822
468.17581109350067 13695.98151948839
469.2148263576437 13623.90554852839
470.2535762242878 13735.307564076862
471.29206077693016 13825.460059260362
472.33028009902773 13834.540799026969
473.3682342740012 13821.057067259559
474.40592338523857 13859.407962485193
475.4433475160804 13875.988541399987
476.4805067498364 13987.090942909388
477.51740116978 13936.795323525355
478.5540308591426 14098.096604091119
479.59039590112116 14207.536483474008
480.6264963788726 14236.86165508205
481.6623323755193 14462.427323631506
482.6979039741436 14547.119216465402
483.7332112577915 14795.251337130481
484.76825430947247 14889.52806526759
485.80303321215797 15087.164312013532
486.837548048783 15221.326708646224
487.8717989022425 15457.02775484834
488.90578585539697 15475.620410289077
489.9395089910686 15649.924297940965
490.97296839203955 15642.465553073842
492.00616414106116 15616.859464823594
493.0390963208429 15585.88917908448
494.0717650140559 15567.714976220272
495.10417030333883 15329.743600126982
496.1363122712901 15310.421465712581
497.16819100046814 15106.406501422829
498.1998065734024 14918.896365122167
499.2311590725767 14755.681175839887
500.26224858044407 14573.964018173898
501.2930751794156 14477.413529481166
502.3236389518679 14360.643927023524
503.35393998014115 14263.77339805327
504.38397834653733 14171.86706583478
505.4137541333221 14126.719608182073
506.4432674227228 13876.440937564481
507.4725182969323 13809.839020090445
508.5015068381035 13688.079530688532
509.53023312835467 13688.976186382231
510.55869724976765 13644.047208086286
511.58689928438434 13518.017057533678
512.6148393142121 13501.812047500523
513.6425174212218 13504.715339303631
514.6699336873462 13447.165653637718
515.6970881944835 13463.049961275587
516.7239810244901 13303.795868534498
517.7506122591931 13376.061044394988
518.7769819803761 13356.270661158283
519.8030902697901 13448.116384338859
520.8289372091476 13444.184993724697
521.8545228801249 13430.284090007373
522.8798473643619 13294.889767609046
523.9049107434621 13312.125461886098
524.9297130989908 13373.091835205723
525.9542545124805 13391.45099995088
526.9785350654201 13340.845796597332
528.0025548392696 13310.31941248231
529.0263139154504 13253.959822445879
530.0498123753423 13210.758085203168
531.073050300296 13196.773739813647
532.0960277716204 13040.298475599902
533.1187448705896 13158.305310277221
534.1412016784416 13069.457240181942
535.1633982763833 13009.189523067462
536.1853347455726 12991.067355258794
537.2070111671401 12883.90664048972
538.2284276221817 12996.760201103032
539.2495841917516 12987.77063974342
540.2704809568677 12824.525492588433
541.2911179985167 12849.378403030982
542.3114953976419 12796.756519032187
543.3316132351592 12819.405262302203
544.3514715919409 12698.356758113872
545.3710705488247 12695.326854564335
546.3904101866156 12660.581196790125
547.4094905860784 12681.692801015382
548.4283118279418 12648.81731981972
549.4468739929034 12628.730960947298
550.4651771616191 12550.97137435641
551.4832214147063 12604.216656951294
552.501006832761 12612.392949987929
553.5185334963226 12417.921866411347
554.5358014859103 12554.87511361402
555.5528108820035 12473.39000383732
556.5695617650363 12429.430780004497
557.5860542154242 12547.022474725865
558.6022883135283 12509.622323300926
559.6182641396881 12367.918489343725
560.6339817741991 12426.307768537485
561.6494412973225 12489.107495483524
562.6646427892883 12493.104408440155
563.6795863302796 12390.597008389155
564.694272000459 12396.555272860296
565.7086998799423 12462.88930218259
566.7228700488104 12342.732427043233
567.7367825871115 12354.310716160482
568.7504375748576 12330.410552588259
569.7638350920224 12371.13276912425
570.7769752185486 12394.826601506367
571.7898580343353 12427.402163258583
572.802483619258 12398.504165208691
573.8148520531431 12491.41320954251
574.8269634157932 12543.584076433954
575.8388177869692 12434.49055754521
576.8504152463938 12492.513973834963
577.8617558737587 12607.923011954215
578.8728397487175 12622.759688359047
579.883666950891 12690.271211124209
580.8942375598654 12802.554147457673
581.9045516551851 12946.862745713905
582.9146093163617 13156.507593812392
583.924410622878 13082.70791332077
584.9339556541727 13140.242946299675
585.9432444896538 13158.327811384477
586.9522772086875 13165.063771150966
587.9610538906127 13224.48188558526
588.9695746147318 13133.7677338346
589.9778394603054 13258.612050762342
590.985848506567 13125.175811775183
591.9936018327098 12998.57946324922
593.0010995178891 12770.115342730176
594.0083416412344 12931.385909362392
595.0153282818283 12696.221618821002
596.0220595187293 12637.798819570939
597.0285354309508 12541.943906786013
598.0347560974806 12531.398320576798
599.0407215972609 12455.32710378139
600.0464320092051 12441.42172408339
601.0518874121954 12394.393826875403
602.0570878850685 12402.696219229463
603.062033506636 12381.552620483646
604.0667243556636 12364.018450522532
605.0711605108936 12264.993042260332
606.0753420510264 12501.437332249769
607.0792690547278 12361.144435291513
608.082941600629 12361.138975372634
609.0863597673306 12379.35216519423
610.0895236333909 12503.109665603306
611.0924332773357 12513.812474179038
612.0950887776617 12514.295626016106
613.0974902128219 12596.946177911344
614.0996376612384 12739.69317985406
615.1015312013005 12715.044148864235
616.1031709113595 12872.160905066223
617.1045568697336 12839.471562678791
618.1056891547069 12902.837887144324
619.1065678445229 13036.930423063994
620.1071930173985 13355.421531555903
621.1075647515099 13319.136884620104
622.1076831250048 13464.989248813505
623.1075482159849 13637.232127167168
624.1071601025305 13792.242036223071
625.1065188626781 13881.19347317825
626.105624574433 14143.009580243222
627.1044773157682 14290.06473884264
628.1030771646128 14398.46158587604
629.1014241988742 14568.31524815101
630.0995184964158 14755.910869483714
631.0973601350688 14851.516785418906
632.0949491926294 15074.271280992712
633.0922857468631 14884.292069897336
634.089369875499 14944.547599373855
635.0862016562278 14985.458142402607
636.0827811667077 14769.115871457538
637.0791084845641 14781.854026487836
638.0751836873878 14552.617017339886
639.0710068527369 14508.855120363567
640.0665780581294 14374.088814543231
641.0618973810506 14079.194742474447
642.0569648989604 14086.80441874385
643.0517806892676 13826.665261632521
644.0463448293649 13680.992347677191
645.040657396592 13368.405260304362
646.0347184682723 13305.954723045657
647.0285281216875 13089.666171390305
648.0220864340772 12894.394041408988
649.0153934826558 12840.018053031235
650.0084493446047 12669.931704486207
651.0012540970674 12603.358671730977
651.9938078171526 12466.90003471577
652.9861105819346 12366.965343720605
653.9781624684565 12318.500407789166
654.9699635537254 12224.610160869426
655.9615139147136 12246.868064061968
656.9528136283589 12005.12796168931
657.9438627715699 12040.90218830166
658.9346614212154 11956.329418746507
659.925209654135 11809.939038842513
660.9155075471263 11815.444378175278
661.9055551769616 11751.791261285192
662.895352620375 11893.32847976496
663.8848999540678 11659.036121363264
664.8741972547068 11562.431466751626
665.863244598926 11560.412822678903
666.8520420633213 11635.00548657541
667.8405897244611 11502.712780112994
668.8288876588758 11456.965153612477
669.8169359430613 11553.109690270308
670.8047346534822 11434.553199872365
671.7922838665672 11344.30347368168
672.7795836587156 11443.065704364024
673.766634106285 11560.457379273548
674.7534352856092 11382.344428692959
675.7399872729766 11381.92172018722
676.7262901446538 11496.422461234519
677.712343976862 11414.365250637824
678.6981488457986 11442.497080497587
679.6837048276229 11365.331793133193
680.6690119984596 11403.935517993117
681.6540704344043 11323.254819944545
682.6388802115107 11342.507277342927
683.6234414058108 11310.663490469205
684.6077540932874 11271.241345689377
685.591818349907 11316.574494926082
686.575634251587 11211.695385094605
687.5592018742263 11115.230161409705
688.5425212936734 11049.757293148783
689.5255925857564 11291.534391746145
690.5084158262707 11090.119338319248
691.4909910909646 11025.377867871935
692.4733184555644 11032.692721688514
693.4553979957618 11107.974883297149
694.4372297872123 11060.937562695975
695.4188139055404 10969.042264809295
696.4001504263324 10880.627028913246
697.3812394251509 11047.015809276578
698.3620809775111 10855.102597777579
699.3426751589104 10826.683457325362
700.3230220448004 10759.613131171995
701.3031217106054 10948.24041929499
702.2829742317172 10998.100353471931
703.2625796834873 10788.213469834382
704.2419381412474 10733.88651711965
705.22104968028 10901.54249590443
706.1999143758458 10771.390185959355
707.178532303169 10828.53676029767
708.1569035374378 10835.959432020667
709.1350281538107 10824.450246991351
710.1129062274158 10819.290106903922
711.0905378333373 10898.329308548893
712.0679230466376 10936.636967454924
713.0450619423427 10993.970907401072
714.0219545954424 11086.911214257361
714.9986010808989 10950.751755779758
715.9750014736292 11069.552971240933
716.9511558485392 11152.910486880352
717.9270642804786 11247.833060207704
718.9027268442787 11246.400942153532
719.8781436147328 11167.742141983552
720.8533146666014 11218.007734356725
721.828240074612 11213.916968687148
722.8029199134635 11072.841458239513
723.7773542578125 11132.724301954951
724.751543182294 11015.472394334513
725.7254867615029 11028.145393028253
726.6991850700015 10896.625998922547
727.6726381823228 10904.815574472796
728.6458461729599 10905.045717975463
729.6188091163858 10830.611658124311
730.5915270870246 10858.361063051481
731.5640001592856 10800.548170626942
732.536228407529 10841.86362612183
733.5082119060917 10802.52183594862
734.4799507292755 10782.448396051772
735.4514449513481 10840.683565337557
736.4226946465496 10842.9193360963
737.3936998890786 10883.13918690986
738.3644607531078 10794.132967470712
739.3349773127793 10816.90956225261
740.3052496421951 10778.751377621396
741.27527781543 10700.939212166482
742.2450619065221 10657.201645311463
743.2146019894826 10679.54987899803
744.183898138288 10678.506709991954
745.1529504268801 10575.715996551195
746.1217589291682 10523.45877026311
747.0903237190341 10462.279028081102
748.058644870318 10565.750346179406
749.0267224568397 10501.975805866648
749.994556552374 10315.247425113907
750.9621472306771 10429.323838265675
751.9294945654583 10346.204261878764
752.8965986304011 10394.527412066145
753.8634594991636 10324.43603020644
754.8300772453586 10423.491255349756
755.7964519425768 10366.20408714077
756.762583664371 10410.19852467846
757.7284724842611 10436.74806483297
758.6941184757416 10357.352236434866
759.6595217122667 10411.995876159326
760.6246822672638 10306.684571933158
761.5896002141235 10263.2090449988
762.5542756262093 10268.72927672817
763.5187085768503 10329.822066343015
764.4828991393406 10238.074791422678
765.4468473869474 10280.371181006722
766.4105533929032 10289.509486564366
767.3740172304078 10235.456290400025
768.3372389726283 10225.346084368046
769.3002186926988 10121.749467446594
770.2629564637282 10104.944099647608
771.2254523587872 10063.659458330356
772.1877064509154 10010.355121833478
773.1497188131179 9884.678107333573
774.1114895183728 9974.553398701242
775.0730186396268 9918.366793435289
776.0343062497905 9932.957965063171
776.9953524217381 9871.892301994349
777.9561572283274 9840.959435955268
778.9167207423689 9881.575290892639
779.8770430366476 9776.344860729745
780.8371241839159 9902.362904910568
781.7969642568951 9883.144228002639
782.7565633282757 10065.257683733442
783.7159214707099 9815.116043774571
784.6750387568281 9955.141914875874
785.6339152592227 9860.339962844306
786.5925510504512 9813.158213629638
787.5509462030477 9973.679834654578
788.5091007895098 9902.140809610795
789.4670148823006 9856.861657169666
790.4246885538596 9859.33808941998
791.3821218765861 9849.27327140918
792.3393149228505 9734.97259910335
793.2962677649975 9845.671406826163
794.2529804753303 9848.783733704742
795.20945312613 9893.56444555035
796.1656857896378 9847.0813211115
797.1216785380675 9776.108059204293
798.0774314435985 9939.291319556498
799.0329445783846 10020.06698861631
799.9882180145414 10107.761718702805
800.9432518241574 9982.434907900933
801.89804607929 10134.454374313862
802.852600851962 10206.15860893473
803.8069162141637 10153.56633125131
804.760992237856 10267.905775614778
805.714828994971 10388.17848125468
806.6684265574077 10379.43053230944
807.6217849970271 10286.884779202064
808.574904385674 10240.518071673567
809.527784795142 10310.876518810208
810.4804262972102 10226.878387673529
811.4328289636178 10127.067385416627
812.3849928660748 9929.655731306451
813.3369180762638 9967.172949753516
814.2886046658241 9974.954013065344
815.2400527063783 9889.29535082078
816.1912622695108 9812.157496140388
817.1422334267718 9687.30416975939
818.0929662496856 9584.239397088142
819.0434608097457 9485.670394550221
819.9937171784059 9506.127969505531
820.9437354271013 9406.817443554033
821.8935156272255 9455.752479044859
822.8430578501484 9440.097542588974
823.7923621672016 9312.34284016668
824.7414286496896 9338.629628736857
825.6902573688876 9342.534515191785
826.6388483960363 9343.209171599881
827.5872018023492 9245.326295056137
828.5353176590033 9300.916115738188
829.4831960371503 9248.650418348027
830.4308370079016 9202.620664463077
831.3782406423525 9175.601358919655
832.3254070115545 9264.534560975479
833.2723361865319 9192.941821498538
834.2190282382799 9184.670140338641
835.1654832377644 9208.158044274802
836.1117012559116 9185.25430850914
837.0576823636256 9264.092233974356
838.003426631778 9064.146642626907
838.9489341312074 9151.925177146515
839.8942049327197 9252.318521568035
840.8392391070975 9169.60949278586
841.7840367250865 9105.111967451048
842.7285978573982 9024.62800813711
843.672922574724 9195.66655016855
844.6170109477152 9094.90184885416
845.560863046996 9106.499032808726
846.5044789431595 9128.721694281865
847.4478587067697 9090.3583429949
848.3910024083561 9170.452859283274
849.333910118421 9097.038960592872
850.2765819074339 8995.13363623092
851.2190178458332 9087.68945778091
852.161218004032 9063.552048133697
853.1031824524016 9098.529869921334
854.0449112612987 9005.906988398125
854.9864045010327 9032.191874706912
855.9276622418947 9059.588323658729
856.8686845541379 9033.982183949878
857.8094715079915 9002.270221057672
858.7500231736467 9144.900012083524
859.690339621271 9090.14445017173
860.6304209209939 9075.699309927955
861.5702671429244 9015.008052547364
862.5098783571284 9070.180966357066
863.4492546336569 9117.804266490051
864.3883960425155 9025.69246506695
865.3273026536863 9020.19253261372
866.2659745371238 8988.585622332668
867.2044117627465 9207.357706034656
868.1426144004472 9094.23898951384
869.0805825200823 9154.752504532918
870.0183161914847 9186.792713865552
870.9558154844526 9228.74780251944
871.8930804687552 9172.722158604569
872.8301112141307 9173.119958348669
873.7669077902865 9315.974442244687
874.7034702669062 9472.747516873915
875.6397987136315 9369.700179879406
876.5758932000863 9459.01621253177
877.5117537958522 9509.364805921263
878.4473805704911 9426.950976839631
879.3827735935283 9498.77281795134
880.3179329344603 9508.79507720052
881.2528586627541 9572.752685415739
882.1875508478479 9660.444416797916
883.1220095591489 9445.041386197416
884.0562348660296 9440.333849235885
884.9902268378391 9598.370208875973
885.9239855438955 9463.61325154886
886.8575110534839 9353.207455594056
887.7908034358588 9407.54886976396
888.7238627602474 9387.736126631973
889.6566890958475 9427.705161234548
890.5892825118208 9251.597561456383
891.5216430773125 9253.575546591046
892.4537708614189 9250.48425460143
893.3856659332196 9137.355999699228
894.3173283617652 9045.25845371631
895.2487582160684 9076.239217021488
896.179955565116 9004.552206636656
897.110920477864 9003.632291167865
898.0416530232451 8837.648093354986
898.9721532701478 8827.629907821756
899.9024212874428 8852.089226335429
900.8324571439662 8750.159510735532
901.7622609085302 8729.671547353399
902.6918326499072 8625.687094589
903.6211724368477 8650.951225087989
904.5502803380696 8758.619435067732
905.4791564222614 8787.43677420008
906.4078007580792 8614.063054627019
907.3362134141571 8696.904285357945
908.2643944590909 8696.85030925841
909.1923439614493 8692.375734249119
910.1200619897754 8559.413623210805
911.0475486125779 8741.098314318278
911.9748038983344 8628.413288294712
912.9018279155007 8554.842383758873
913.8286207324982 8477.616277186893
914.7551824177117 8590.48733447516
915.6815130395116 8583.545701018214
916.6076126662283 8401.691910153102
917.533481366163 8480.935327593548
918.4591192075914 8523.550029667256
919.3845262587565 8586.302861968814
920.3097025878706 8459.36026473769
921.2346482631237 8425.966707790069
922.1593633526682 8497.561354331187
923.0838479246304 8554.378334828689
924.0081020471061 8574.946883224427
924.9321257881656 8382.345809719394
925.8559192158464 8494.944996292612
926.7794823981512 8432.799651057972
927.7028154030686 8389.421077683104
928.6259182985414 8385.824537687067
929.5487911524906 8551.911544496046
930.4714340328119 8539.954406200288
931.3938470073608 8284.26792563446
932.3160301439748 8391.25933273273
933.2379835104548 8345.496148694332
934.1597071745709 8434.37310327562
935.0812012040769 8457.263701895125
936.002465666681 8353.774821589679
936.9235006300696 8427.21394249845
937.8443061619055 8392.491424785285
938.7648823298077 8303.742488132213
939.6852292013809 8184.311036713324
940.6053468441951 8352.196708267933
941.5252353257874 8275.279807268653
942.4448947136698 8302.721700112234
943.364325075323 8276.341815873271
944.2835264782043 8277.069469063998
945.2024989897309 8288.734449320797
946.1212426773054 8148.418445812522
947.0397576082851 8278.46904385263
947.9580438500125 8328.339897599464
948.8761014697939 8326.363951050862
949.7939305349064 8256.286313276547
950.7115311125999 8189.364102357033
951.6289032700952 8136.917261399986
952.5460470745875 8319.48234874244
953.4629625932339 8200.864770355332
954.3796498931715 8204.416824109598
955.2961090415029 8189.352290420119
956.2123401053068 8188.893916535815
957.1283431516276 8176.468861796644
958.0441182474842 8126.144827985449
958.9596654598663 8197.445274183383
959.8749848557309 8117.777145255127
960.7900765020167 8097.235048655787
961.7049404656209 8109.436910727583
962.6195768134185 8234.5726729796
963.5339856122537 8173.153887406331
964.4481669289453 8189.716404413147
965.3621208302793 8103.894972292592
966.2758473830145 8083.484495325885
967.1893466538822 8241.485663181096
968.1026187095813 8134.173027058826
969.0156636167867 8106.18735989772
969.9284814421426 8282.323308319354
970.8410722522622 8177.398435837704
971.753436113735 8050.79716530077
972.6655730931161 8166.123880403694
973.5774832569368 8236.244940332756
974.4891666716958 8095.921248215682
975.4006234038698 8111.031666097563
976.3118535198955 8100.7099408947715
977.2228570861935 8292.416156352254
978.1336341691494 8201.761790046967
979.0441848351202 8056.339454255637
979.9545091504333 8184.3394597237075
980.864607181391 8143.733210825611
981.7744789942699 8173.712880813788
982.6841246553086 8122.928977700128
983.5935442307236 8180.825341283051
984.5027377867027 8152.924383352854
985.4117053894024 8143.689222092811
986.3204471049557 8127.0808384550155
987.2289629994648 8210.396549572546
988.1372531390007 8316.589307681134
989.0453175896091 8226.916809600429
989.9531564173067 8276.720867155178
990.860769688079 8104.102013185392
991.7681574678918 8239.786962331658
992.6753198226706 8268.424271627238
993.582256818323 8203.512325997448
994.4889685207218 8232.767731310365
995.3954549957143 8383.101828371286
996.301716309119 8405.106889615494
997.2077525267232 8335.121726926158
998.1135637142943 8318.802505935699
999.0191499375615 8362.75384231358
999.924511262232 8377.820023600247
1000.8296477539861 8340.36648199316
1001.7345594784656 8280.048513170925
1002.6392465012996 8285.070446880996
1003.5437088880753 8418.834138036527
1004.4479467043584 8355.186982588775
1005.3519600156869 8175.475555216331
1006.2557488875718 8323.36196372165
1007.1593133854858 8337.759216919749
1008.0626535748888 8316.024143481522
1008.9657695212009 8097.199792080221
1009.8686612898182 8388.664089529508
1010.7713289461135 8433.633091532658
1011.6737725554212 8232.204882909817
1012.5759921830577 8204.75493177832
1013.4779878943027 8244.644981168913
1014.379759754418 8203.474329578788
1015.2813078286254 8068.861326563184
1016.18263218213 8096.4704807285725
1017.0837328801026 8175.076228003434
1017.9846099876886 8149.92992707902
1018.8852635700023 8026.468720720969
1019.7856936921362 7972.486127211424
1020.6859004191447 8086.499617277141
1021.5858838160675 7983.06304600836
1022.4856439479063 7979.580290341028
1023.3851808796389 7941.933060081914
1024.2844946762143 8044.940331738297
1025.183585402554 8003.883329430547
1026.082453123554 7742.142091319974
1026.9810979040776 7854.673759749375
1027.8795198089647 7885.539333504683
1028.777718903024 7828.878981619203
1029.6756952510368 7826.4547930982835
1030.5734489177648 7760.867010233351
1031.4709799679313 7803.443094078233
1032.3682884662358 7905.571330283927
1033.2653744773506 7703.667675926323
1034.1622380659192 7687.396211340754
1035.058879296559 7771.121700307112
1035.9552982338591 7752.200199954602
1036.8514949423825 7718.393017583102
1037.7474694866614 7728.400749129086
1038.6432219312028 7764.906083372077
1039.5387523404825 7790.756025933602
1040.4340607789582 7685.283222155069
1041.3291473110476 7698.002813590373
1042.2240120011465 7792.080977706226
1043.1186549136273 7860.232670937961
1044.0130761128294 7810.471002546938
1044.9072756630649 7710.345048140775
1045.8012536286205 7856.337642363479
1046.6950100737577 7764.599245761771
1047.588545062701 7862.810948569939
1048.481858659663 7773.312575611644
1049.3749509288118 7913.88168144714
1050.2678219343034 7784.104197855684
1051.1604717402515 7821.005104169759
1052.0529004107575 7821.0305421544745
1052.9451080098825 7944.456891215707
1053.8370946016694 7829.820708362725
1054.7288602501267 7918.548091114074
1055.6204050192446 7867.561777042339
1056.511728972977 7909.009429346673
1057.402832175254 7903.932361729727
1058.2937146899785 7857.982344257543
1059.1843765810263 7884.08916970078
1060.0748179122456 7814.555565537419
1060.9650387474576 7905.730076321399
1061.855039150456 7879.017767731401
1062.7448191850071 7864.537454652706
1063.6343789148505 7892.873513337057
1064.5237184037014 7967.478718664148
1065.412837715241 7967.510633664667
1066.3017369131267 7846.242221903149
1067.190416060992 7850.693157650637
1068.0788752224398 7824.837787333706
1068.9671144610438 7788.935836499331
1069.8551338403558 7947.115017162204
1070.7429334239023 7903.036956359201
1071.6305132751695 7791.7224916632085
1072.517873457633 7902.678834357673
1073.4050140347335 7797.575251825256
1074.2919350698776 7774.347729037048
1075.1786366264623 7763.864992940218
1076.0651187678395 7768.403594919082
1076.95138155735 7666.609501585267
1077.8374250582929 7685.877523384169
1078.7232493339507 7719.3712014013345
1079.608854447577 7566.586817988925
1080.4942404623907 7564.310482209707
1081.3794074415982 7588.869952074056
1082.2643554483657 7690.222639257498
1083.149084545841 7569.357500036955
1084.033594797138 7459.803637796971
1084.9178862653516 7550.032048752051
1085.8019590135427 7614.930814004358
1086.6858131047484 7373.521598305952
1087.5694486019802 7543.271548905516
1088.4528655682225 7474.9932948646765
1089.3360640664287 7526.591078014286
1090.2190441595321 7448.094898002312
1091.1018059104317 7449.569116056258
1091.98434938201 7456.489850428114
1092.866674637111 7566.963782662044
1093.748781738559 7497.252326557014
1094.6306707491512 7292.85702634412
1095.5123417316554 7510.971804668227
1096.3937947488157 7348.46901593878
1097.2750298633455 7443.062083493889
1098.156047137938 7311.341302249316
1099.0368466352556 7372.704203923873
1099.9174284179317 7466.747663282465
1100.7977925485757 7287.520375149514
1101.6779390897755 7361.90212997971
1102.5578681040806 7360.5253987016795
1103.4375796540226 7373.015435882879
1104.3170738021054 7239.909023282295
1105.1963506108077 7218.535922272358
1106.0754101425773 7240.969702950961
1106.9542524598382 7366.981967578363
1107.8328776249855 7297.403890953998
1108.7112857003904 7262.927736807562
1109.5894767483987 7289.791886440765
1110.4674508313292 7436.884902736469
1111.3452080114657 7287.984636237353
1112.2227483510815 7358.787479084895
1113.1000719124077 7465.461496918369
1113.9771787576592 7456.770634511295
1114.854068949022 7481.822734193696
1115.7307425486542 7542.294916811591
1116.6071996186893 7502.538376574786
1117.483440221229 7541.825003897793
1118.3594644183577 7570.655752435127
1119.235272272128 7595.493999290855
1120.1108638445658 7726.301444300254
1120.9862391976712 7870.532713205428
1121.8613983934229 7973.902589202642
1122.7363414937627 7922.126848003993
1123.6110685606182 7954.843125649095
1124.485579655884 8133.740995449642
1125.359874841426 8135.054004742075
1126.2339541790916 8156.501001453862
1127.1078177306936 8381.194340197675
1127.9814655580267 8201.52676444354
1128.854897722851 8301.774458107691
1129.7281142869106 8279.310955425119
1130.6011153119125 8388.633812372302
1131.473900859548 8478.43310911688
1132.3464709914697 8309.162623717146
1133.2188257693178 8324.949015286205
1134.0909652546961 8214.74991334141
1134.96288950919 8206.100764220142
1135.8345985943506 8184.878267769398
1136.7060925717087 8077.218043633113
1137.57737150277 8086.413157851019
1138.4484354490069 8074.139249863319
1139.3192844718778 7970.66689630106
1140.1899186327992 7806.82499824265
1141.060337993178 7882.3458230392835
1141.930542614382 7777.7514567391245
1142.8005325577597 7648.941828766585
1143.670307884635 7525.49329788027
1144.5398686563003 7527.503522531316
1145.409214934025 7516.167036347777
1146.2783467790541 7455.208121846265
1147.1472642526023 7456.55929589438
1148.0159674158622 7416.610464501767
1148.8844563300026 7308.179734163858
1149.7527310561618 7195.295486826872
1150.6207916554504 7193.874499388339
1151.4886381889592 7119.1319406346975
1152.3562707177498 7183.217721314517
1153.2236893028585 7092.167705165766
1154.090894005296 7069.354875169049
1154.9578848860474 7036.047807016323
1155.8246620060709 7044.988891112791
1156.6912254262988 6903.829708962209
1157.5575752076438 6862.025362413432
1158.42371141098 6945.3829647947105
1159.2896340971656 6972.4021006027615
1160.1553433270346 7050.03461831267
1161.0208391613887 6922.222794132453
1161.8861216610057 6856.946013000932
1162.75119088664 6943.136353670738
1163.6160468990201 6882.0538301197475
1164.4806897588442 6799.41401613121
1165.3451195267917 6903.544659987558
1166.2093362635114 6813.055258089213
1167.0733400296285 6890.984492726295
1167.9371308857444 6729.781538311133
1168.8007088924278 6834.920366604869
1169.6640741102328 6762.261185174483
1170.5272265996773 6699.890873854247
1171.390166421259 6721.578278948675
1172.252893635452 6725.90530771831
1173.1154083026995 6828.261830487628
1173.977710483421 6848.109553700546
1174.8398002380145 6704.572184240172
1175.7016776268483 6804.799178157104
1176.563342710264 6758.788916162992
1177.4247955485826 6714.210650308049
1178.2860362020947 6830.577599756008
1179.147064731069 6693.30895961694
1180.0078811957483 6820.311222441565
1180.8684856563486 6733.080862260227
1181.7288781730604 6832.323966787201
1182.589058806052 6810.358397129438
1183.4490276154593 6932.329700510882
1184.3087846614017 6818.256418822694
1185.1683300039676 6920.008326444727
1186.027663703222 7048.653585026717
1186.8867858192025 6911.15268466259
1187.7456964119228 6986.224807271503
1188.6043955413716 6960.614998866539
1189.4628832675116 7131.60468062782
1190.3211596502842 7195.624431090376
1191.179224749596 7211.399767524585
1192.0370786253388 7088.37318827055
1192.8947213373758 7318.905519011777
1193.7521529455407 7320.84512329137
1194.6093735096438 7128.324969415126
1195.466383089477 7221.533944422828
1196.3231817447977 7282.556662317658
1197.1797695353398 7402.653478691174
1198.0361465208189 7281.858600340049
1198.8923127609214 7267.42633481639
1199.7482683153048 7321.41053439946
1200.6040132436028 7439.852658946998
1201.459547605431 7390.188638683583
1202.3148714603722 7442.47888539854
1203.1699848679855 7310.411740768106
1204.0248878878065 7370.98186955508
1204.8795805793507 7128.698052823145
1205.7340630020935 7342.93844849998
1206.5883352155033 7285.221989374902
1207.4423972790064 7257.70983406521
1208.2962492520237 7078.0862442452035
1209.1498911939307 7097.42990439795
1210.0033231640937 7153.450632218855
1210.8565452218427 7024.340289335148
1211.7095574264913 6859.935015355882
1212.5623598373222 6873.661490325988
1213.4149525135963 6849.291734709656
1214.2673355145507 6905.358282137672
1215.1195088993936 6760.955547922448
1215.9714727273113 6796.046276320199
1216.8232270574663 6945.116937424669
1217.6747719489904 6620.13814973659
1218.5261074609934 6729.03395681999
1219.3772336525653 6711.486710561701
1220.2281505827668 6819.04843773476
1221.0788583106296 6727.792265917642
1221.9293568951707 6603.755582021129
1222.7796463953746 6575.519332595676
1223.629726870202 6660.90396393634
1224.4795983785934 6582.06011003007
1225.3292609794553 6576.216710889459
1226.1787147316809 6594.194355159944
1227.0279596941327 6570.902744970775
1227.8769959256424 6667.282183595747
1228.7258234850306 6646.547073755375
1229.5744424310833 6452.018696744882
1230.422852822563 6619.925439869876
1231.2710547182105 6597.789235798829
1232.119048176739 6539.174137863205
1232.9668332568417 6437.261708488605
1233.8144100171812 6593.217418560528
1234.6617785163999 6588.79914641566
1235.508938813111 6384.23040713485
1236.3558909659114 6473.818616461527
1237.2026350333617 6583.909195565451
1238.049171074008 6705.1528258455655
1238.8954991463652 6407.14315285282
1239.741619308932 6569.697200253046
1240.587531620169 5346.9907922167495
1241.4332361385277 6545.892642623036
1242.2787329224248 6468.863053862758
1243.1240220302534 6323.002926696895
1243.9691035203869 6512.076174195573
1244.813977451171 6657.344414044157
1245.6586438809263 6382.389012202771
1246.5031028679496 6334.589315852635
1247.3473544705157 6598.491328310212
1248.1913987468706 6544.086659044096
1249.0352357552383 6322.592287525271
1249.8788655538228 6376.920906747532
1250.7222882007918 6597.581661253117
1251.565503754302 6522.717151462829
1252.4085122724755 6387.408795529954
1253.2513138134182 6548.140910300064
1254.0939084352049 6460.841305510879
1254.9362961958905 6435.03359686805
1255.7784771535007 6396.157930274144
1256.6204513660432 6464.953063313273
1257.4622188915 6624.1778531532445
1258.3037797878242 6402.847890468166
1259.1451341129468 6416.773732359128
1259.9862819247755 6511.7422321136055
1260.8272232811978 6543.735145351305
1261.6679582400666 6522.560626114124
1262.5084868592203 6328.446502745932
1263.34880919647 6381.246842811898
1264.1889253095997 6398.765992579264
1265.0288352563712 6488.040680335343
1265.8685390945266 6344.534784236248
1266.7080368817751 6492.228765757117
1267.5473286758115 6464.26371318113
1268.386414534294 6513.373955733016
1269.2252945148703 6327.105951485412
1270.0639686751547 6290.648184767687
1270.9024370727402 6294.028728565367
1271.7406997651997 6298.600733747701
1272.5787568100714 6269.277065565068
1273.4166082648808 6279.811022900256
1274.2542541871244 6287.384444196657
1275.091694634275 6433.005612028117
1275.9289296637817 6163.75084650538
1276.7659593330663 6335.804640404656
1277.6027836995308 6245.318380742737
1278.4394028205552 6417.079613395128
1279.2758167534867 6223.214258577871
1280.112025555658 6318.7639474321895
1280.9480292843746 6323.64992930183
1281.7838279969128 6153.1335243704
1282.6194217505326 6202.534150585985
1283.4548106024686 6152.7527094601965
1284.289994609926 6217.865037954651
1285.1249738300921 6307.5477869299075
1285.959748320127 6214.009404826209
1286.7943181371702 6219.070332139866
1287.6286833383328 6221.296236797856
1288.4628439807038 6246.080489689395
1289.2968001213521 6186.14727285616
1290.1305518173194 6252.560216069224
1290.9640991256183 6269.429010297301
1291.7974421032523 6176.659933393397
1292.630580807183 6136.2459411735645
1293.463515294361 6264.531550505187
1294.29624562171 6295.4454508055505
1295.12877184613 6157.735346785483
1295.961094024493 6104.168758579218
1296.79321221365 6269.373902459245
1297.6251264704333 6275.143538470042
1298.4568368516466 6362.58724229632
1299.2883434140658 6310.499752670202
1300.1196462144526 6194.360272912415
1300.9507453095375 6224.487528158528
1301.7816407560313 6288.503892039718
1302.6123326106172 6282.552704528863
1303.4428209299622 6179.536317238224
1304.2731057707024 6522.276439855885
1305.1031871894502 6332.45964644285
1305.933065242798 6313.449093130645
1306.7627399873181 6309.7912807644825
1307.5922114795467 6475.561939061037
1308.4214797760123 6395.209481595171
1309.2505449332057 6331.077961011879
1310.0794070076026 6307.2945151250715
1310.9080660556538 6525.18145642751
1311.736522133786 6348.472787064317
1312.5647752983987 6422.128749118396
1313.3928256058734 6185.929562496777
1314.2206731125661 6430.005339336867
1315.048317874809 6476.939242486723
1315.8757599489109 6485.150767753483
1316.7029993911547 6457.070370009013
1317.5300362578055 6568.327151130068
1318.356870605101 6410.058677673756
1319.183502489257 6331.533456291327
1320.0099319664623 6486.260103480841
1320.836159092889 6557.868600917667
1321.66218392468 6541.6020134144055
1322.4880065179532 6347.982889734156
1323.3136269288134 6449.168718448927
1324.1390452133292 6570.507309491138
1324.9642614275563 6603.651900505875
1325.7892756275214 6455.6030394427
1326.6140878692295 6401.468185699277
1327.4386982086617 6719.403248479027
1328.2631067017755 6542.962082988412
1329.0873134045069 6564.664741351798
1329.911318372764 6492.985516931829
1330.735121662441 6372.7680922545715
1331.558723329399 6408.7714144716665
1332.3821234294774 6442.012181287219
1333.2053220185007 6462.841205600591
1334.0283191522612 6413.347791700764
1334.851114886529 6468.521927356366
1335.6737092770582 6243.944232656582
1336.4961023795695 6384.09167194294
1337.3182942497697 6259.254322884662
1338.1402849433325 6347.468218600042
1338.962074515921 6211.463194384866
1339.7836630231632 6186.7187455348385
1340.6050505206676 6477.177675628678
1341.426237064028 6461.028438451899
1342.2472227088037 6330.2014574115465
1343.0680075105338 6197.623157609471
1343.888591524741 6345.751822662962
1344.7089748069138 6325.301288746769
1345.5291574125276 6203.764644679085
1346.3491393970307 6164.476076894837
1347.168920815846 6364.864899932467
1347.9885017243778 6263.760214006412
1348.8078821780036 6162.430865112094
1349.6270622320844 6154.482270906561
1350.4460419419447 6159.458381053794
1351.2648213629054 6136.2539198071
1352.0834005502438 6084.332752271102
1352.90177955923 6114.291197215202
1353.7199584451064 6203.377031308412
1354.5379372630887 6211.7663730702325
1355.355716068374 6082.852802075073
1356.1732949161305 6208.765017903082
1356.9906738615155 6079.526862670869
1357.8078529596478 6142.6458128677905
1358.6248322656375 6188.247116493219
1359.441611834567 6124.870588040112
1360.2581917214866 6228.668757147478
1361.0745719814367 6157.49444218619
1361.890752669433 6062.465765012692
1362.7067338404577 6118.999078232977
1363.5225155494845 6305.846902012866
1364.3380978514506 6232.957459309529
1365.1534808012839 5965.7073995054125
1365.9686644538815 5940.707688411201
1366.783648864117 6190.910187405121
1367.5984340868417 6252.125506293577
1368.413020176893 6219.352744410031
1369.2274071890715 6140.645539796065
1370.0415951781652 6177.383231449496
1370.8555841989346 6142.134809912412
1371.6693743061223 6030.525827786435
1372.48296555444 5917.509495902971
1373.2963579985844 6129.0723434213105
1374.1095516932255 6117.032865083122
1374.9225466930166 5891.72436759461
1375.7353430525782 6090.2770927438305
1376.5479408265164 5895.767585370346
1377.36034006941 6098.407894666898
1378.1725408358216 6055.001358944586
1378.9845431802805 5875.758913916402
1379.796347157304 6234.502306580776
1380.6079528213813 6046.049226285598
1381.4193602269788 5895.387745677436
1382.230569428546 5897.273367550838
1383.0415804805016 6040.731441846357
1383.852393437246 5946.629081913029
1384.6630083531563 6029.598209529957
1385.4734252825892 5989.595566206437
1386.2836442798798 6019.361875760457
1387.0936653993322 5974.83779796148
1387.9034886952395 5944.682146133191
1388.713114221864 5985.960436223819
1389.5225420334482 6095.044178479856
1390.331772184214 5885.089002812911
1391.1408047283585 5825.271990524438
1391.9496397200564 5909.854467025794
1392.758277213461 6030.583168949842
1393.5667172627054 5962.904928635484
1394.3749599218918 5914.499758534173
1395.1830052451114 5753.031578693141
1395.9908532864265 5894.020769898403
1396.7985040998774 5975.0375106595275
1397.6059577394808 5862.486775968333
1398.4132142592352 5837.003309624134
1399.2202737131156 5808.92464604881
1400.027136155073 6027.9922207818
1400.8338016390353 5796.392050778406
1401.6402702189134 5723.342817792663
1402.446541948586 5942.633396934564
1403.2526168819204 5864.863732698399
1404.058495072757 5742.9809906722785
1404.8641765749107 5810.532203031315
1405.6696614421799 5874.071400448816
1406.4749497283356 5966.623993711355
1407.280041487129 5745.585955449918
1408.084936772295 5598.193237412589
1408.8896356375335 5823.105136045945
1409.6941381365323 5741.99452775697
1410.498444322955 5607.082507480924
1411.3025542504402 5616.6920279030865
1412.106467972606 5647.296702077918
1412.9101855430508 5797.808964099434
1413.7137070153458 5517.240329906047
1414.5170324430437 5632.272267946858
1415.320161879672 5767.279183931267
1416.1230953787435 5781.649040876297
1416.925832993742 5558.004501636958
1417.7283747781275 5460.738621695377
1418.5307207853439 5567.109408933899
1419.3328710688093 5609.978418105615
1420.134825681922 5483.024687556981
1420.9365846780584 5390.978108541216
1421.7381481105713 5586.39811811696
1422.539516032788 5558.76954110522
1423.3406884980232 5492.445823436151
1424.1416655595604 5388.322375544276
1424.942447270665 5363.14511243734
1425.7430336845828 5549.8177700297465
1426.5434248545298 5282.856059443775
1427.3436208337116 5438.881333676043
1428.143621675301 5475.958379837263
1428.9434274324558 5558.4277312172835
1429.7430381583108 5288.9388809458405
1430.5424539059713 5359.632689021903
1431.3416747285337 5610.915347473383
1432.1407006790632 5543.838808303107
1432.9395318106053 5498.578986204983
1433.7381681761835 5338.731975597822
1434.5366098288014 5492.162143891791
1435.3348568214424 5445.759694604493
1436.1329092070573 5371.382099371245
1436.9307670385879 5475.595367718584
1437.7284303689503 5467.797500535843
1438.5258992510335 5537.731535891255
1439.3231737377118 5412.147756599975
1440.1202538818306 5387.652404883507
1440.9171397362225 5431.593632863593
1441.7138313536925 5420.570918180919
1442.5103287870243 5339.511641700866
1443.3066320889775 5270.261910325907
1444.1027413122956 5479.046634470716
1444.8986565096966 5404.96605719519
1445.694377733882 5430.129564931051
1446.4899050375207 5190.817858452471
1447.2852384732687 5323.700870209943
1448.0803780937622 5384.1922089053405
1448.8753239516063 5314.639487699036
1449.6700760993954 5110.723488444633
1450.464634589689 5317.361652095551
1451.2589994750397 5537.446041838204
1452.0531708079689 5182.942108444645
1452.8471486409799 5205.761797973833
1453.6409330265524 5349.801879636435
1454.4345240171442 5155.981132204456
1455.2279216651987 5202.975117460044
1456.0211260231263 5207.824311177443
1456.8141371433194 5550.894766246102
1457.6069550781594 5390.986169699562
1458.3995798799897 5060.427356306186
1459.1920116011424 5102.561905186047
1459.98425029393 5170.889921468426
1460.7762960106338 5211.360829527889
1461.5681488035225 5189.570585914614
1462.3598087248392 5220.006979043131
1463.1512758268036 5303.3885145314125
1463.942550161617 5284.228775992476
1464.7336317814625 5153.034779684125
1465.524520738496 5231.180996987656
1466.3152170848552 5131.904718511329
1467.1057208726506 5244.020464970146
1467.8960321539817 5124.62899497839
1468.6861509809169 5001.978509720164
1469.4760774055085 5072.145126472588
1470.265811479785 5121.6102799055125
1471.055353255755 4999.177032980736
1471.844702785409 5018.966046155752
1472.6338601207044 5047.5667280026955
1473.4228253135934 5169.063223029927
1474.2115984159936 4970.398677859946
1475.0001794798063 4861.150291049316
1475.7885685569145 5139.5014565981855
1476.576765699172 5039.628790806836
1477.3647709584238 4978.56538615026
1478.1525843864802 5213.094073448622
1478.9402060351367 5029.165167644152
1479.7276359561693 5073.594426037819
1480.514874201328 5006.826841908571
1481.3019208223468 4919.068311039217
1482.0887758709323 4883.677710741858
1482.8754393987747 5150.260035723868
1483.6619114575406 4924.507668339407
1484.4481920988783 5083.2591392485065
1485.2342813744108 5080.70395205232
1486.0201793357446 5125.099439086911
1486.8058860344572 4885.184660106414
1487.591401522117 5031.823445030206
1488.3767258502594 4970.432293447641
1489.1618590704056 5064.026239824077
1489.9468012340494 4801.788805100746
1490.7315523926754 5083.318454355988
1491.5161125977356 5064.628285768049
1492.3004819006637 5117.266963638122
1493.084660352877 4916.0300472011295
1493.8686480057622 5126.441691570099
1494.6524449106964 5169.407885671699
1495.4360511190262 5178.957230488197
1496.219466682087 5007.5580310884525
1497.0026916511779 4996.099344423629
1497.7857260775945 5021.097662927928
1498.5685700125996 5047.308256254731
1499.3512235074395 4935.288701307147
1500.133686613337 4889.060798916264
1500.9159593814966 4923.180689434679
1501.698041863101 5181.175665978365
1502.4799341093094 4882.248344643041
1503.2616361712662 4819.762908704706
1504.043148100087 5021.9477680891205
1504.8244699468742 5021.441123607249
1505.6056017626997 4788.842286512537
1506.3865435986281 4871.878890734239
1507.1672955056893 4943.229004364808
1507.9478575348967 4810.712247637997
1508.7282297372512 5034.006061857468
1509.5084121637192 4892.671120698635
1510.2884048652577 4911.907319887723
1511.0682078927948 4936.770287558554
1511.8478212972423 4776.081936610533
1512.6272451294917 4821.041697447186
1513.4064794404076 4878.2975973212
1514.1855242808433 4949.785454537551
1514.9643797016215 4847.183227101339
1515.743045753552 4978.599209730333
1516.5215224874191 4857.708199466327
1517.2998099539836 4856.251909327858
1518.077908203999 4899.604933788896
1518.8558172881785 4775.179923665875
1519.633537257234 4998.539664757561
1520.4110681618404 4871.587868970918
1521.1884100526604 4809.99863610542
1521.9655629803365 4785.079058912296
1522.7425269954856 5005.421092952909
1523.5193021487103 5130.545881223048
1524.2958884905856 4766.252369803651
1525.0722860716687 4855.01649982486
1525.848494942502 4838.297331294241
1526.624515153595 4861.375551464803
1527.4003467554485 4931.133887661975
1528.175989798534 4905.654445121825
1528.9514443333064 4897.939238391349
1529.726710410203 5194.918748930026
1530.5017880796331 4796.676176923893
1531.276677391992 4843.5434177616835
1532.0513783976457 4978.592861685153
1532.825891146953 4890.233161898588
1533.6002156902414 4952.3656252203
1534.3743520778207 4972.498808248226
1535.1483003599806 4917.242303431674
1535.9220605869923 4917.730514168487
1536.6956328091019 5008.203067442951
1537.4690170765407 4840.129734616065
1538.242213439511 5081.302887879086
1539.015221948208 4907.345301789433
1539.78804265279 4942.511248081745
1540.560675603405 4867.716137789769
1541.3331208501804 4973.642972945216
1542.1053784432224 4994.175054627625
1542.8774484326168 4924.139836211099
1543.649330868422 4979.731980147704
1544.4210258006842 4937.401915458104
1545.1925332794308 5001.250206634535
1545.9638533546604 4876.209302362379
1546.7349860763552 4850.103543930249
1547.5059314944829 5179.7081067736135
1548.27668965898 4890.830375114842
1549.0472606197673 4923.754510705935
1549.817644426752 4968.692004428577
1550.5878411298072 5013.029618445894
1551.3578507787988 5046.643366348691
1552.1276734235635 4813.46460954752
1552.8973091139233 5029.535884894171
1553.6667578996767 5106.696597471036
1554.436019830604 5050.841977897017
1555.20509495646 4941.7229715076455
1555.9739833269869 4912.468169221359
1556.7426849919011 4874.000816650192
1557.511200000903 5161.767541623505
1558.2795284036674 4958.012066725224
1559.0476702498509 4880.5715570625525
1559.8156255890954 5058.628201790927
1560.5833944710157 5171.075647306953
1561.3509769452048 4887.063617085049
1562.1183730612447 4925.316432032497
1562.8855828686865 5058.868983886751
1563.6526064170703 5075.886964708285
1564.4194437559127 5079.864314535204
1565.1860949347047 4936.593450934213
1565.9525600029283 5202.529521697435
1566.7188390100328 5208.616676841105
1567.4849320054564 4959.046174494723
1568.250839038612 4954.736110266103
1569.0165601588997 5075.159190027551
1569.7820954156887 4952.84293765469
1570.5474448583373 4867.314241740083
1571.31260853618 4884.9752064700315
1572.0775864985299 4839.572879253025
1572.8423787946813 5011.753413334492
1573.6069854739108 4865.544709159122
1574.371406585471 5012.8443900253105
1575.1356421785986 4993.0994776109565
1575.899692302506 4818.158190546112
1576.6635570063845 4966.765216771082
1577.4272363394157 5031.980404589719
1578.190730350747 4877.1721401419545
1578.9540390895163 4965.537222941297
1579.7171626048384 4745.1067740450535
1580.480100945806 4748.986041663777
1581.2428541614918 4798.605884370169
1582.0054223009538 4989.899783347232
1582.767805413223 4829.609091099263
1583.5300035473156 4799.862930863414
1584.292016752228 5144.333169164119
1585.0538450769309 4987.145713684046
1585.8154885703807 4794.323787379142
1586.5769472815136 4821.36565272607
1587.3382212592405 4943.563495086008
1588.099310552463 4960.4303488196865
1588.8602152100484 4989.874784611086
1589.6209352808564 5013.481407310149
1590.3814708137234 4803.2299171311
1591.14182185746 4967.491969531008
1591.9019884608679 4817.42256825148
1592.6619706727215 4697.4011667164405
1593.4217685417734 4918.4524349659505
1594.1813821167616 4980.848687019985
1594.9408114464022 4722.02910387377
1595.7000565793933 4835.798387166573
1596.459117564409 4999.250487018387
1597.2179944501113 4790.234404505812
1597.9766872851324 4823.794915487726
1598.735196118092 4938.3397108590225
1599.4935209975883 4963.25432497979
1600.2516619721973 4983.850310973809
1601.0096190904787 4854.788101518897
1601.7673924009723 4779.388038375405
1602.524981952196 4727.753104076273
1603.2823877926476 4808.2253335804335
1604.0396099708087 4790.0659871320195
1604.7966485351371 4643.054471564889
1605.5535035340745 4821.545219407667
1606.3101750160404 5025.423797308528
1607.0666630294363 4828.32435014474
1607.822967622642 4815.83729236692
1608.5790888440224 4870.671873182624
1609.3350267419137 5082.45130337851
1610.0907813646445 4726.980403589585
1610.8463527605145 4860.0206521757555
1611.601740977805 4864.416836668999
1612.356946064785 4904.146735496297
1613.1119680696902 4714.154467279512
1613.8668070407512 4859.743433743215
1614.6214630261748 4793.723662641939
1615.375936074137 5017.979579955914
1616.1302262328118 4808.4009268596
1616.8843335503425 4892.391263513929
1617.638258074854 4802.453915694306
1618.391999854457 4892.912359549662
1619.1455589372363 4966.683971994435
1619.8989353712623 4905.753966498024
1620.65212920458 4706.853368721351
1621.4051404852235 4714.086190952478
1622.1579692611976 4810.807571299822
1622.9106155804966 4600.660700505509
1623.663079491087 4700.617850921829
1624.4153610409248 4911.674496547154
1625.1674602779385 4725.079377708238
1625.9193772500403 4671.039494396435
1626.6711120051277 4899.257539428107
1627.4226645910676 4708.813129026015
1628.174035055721 4617.784791248732
1628.9252234469168 4783.122675756157
1629.676229812474 4748.292834723963
1630.4270542001905 4990.960007426429
1631.1776966578382 4760.81053554642
1631.9281572331747 4718.883084627281
1632.678435973945 4953.923608178084
1633.4285329278573 4861.58773502174
1634.1784481426203 4656.217528380994
1634.9281816659113 4706.736577994918
1635.677733545388 4932.539410614595
1636.4271038286934 4844.76829932154
1637.176292563452 4873.745578764065
1637.9252997972635 4812.780341135642
1638.674125577716 4879.930443490595
1639.4227699523672 5141.324116348006
1640.171232968767 4746.18576706591
1640.9195146744423 4902.66486565459
1641.6676151168977 5076.555885016537
1642.4155343436178 5074.519220690777
1643.1632724020765 4972.261063227141
1643.9108293397167 4931.263806490987
1644.658205203974 5012.984704061202
1645.4054000422566 5305.908806477695
1646.1524139019566 4936.568735571276
1646.8992468304423 4890.228728358032
1647.6458988750728 4820.993461442373
1648.3923700831765 4941.695719099995
1649.1386605020743 4937.052695879486
1649.8847701790564 5103.523150288577
1650.6306991614038 5034.124446588134
1651.3764474963682 4999.007976313245
1652.1220152311944 4797.99502956364
1652.867402413096 5071.856658944642
1653.6126090892776 5080.648490044357
1654.3576353069184 5225.732502235618
1655.1024811131829 4977.711891089797
1655.8471465552066 4742.6035700800385
1656.5916316801213 5180.243678508398
1657.3359365350298 4959.3593636479
1658.0800611670165 4819.32996211805
1658.824005623148 4970.152925299797
1659.5677699504722 4777.870323838107
1660.3113541960192 4942.757412131878
1661.054758406799 4922.0804402798485
1661.7979826297997 4654.505885777486
1662.5410269119966 4677.449043137826
1663.283891300338 4817.900722631642
1664.0265758417645 4740.419041787382
1664.7690805831826 4828.471242762322
1665.5114055714948 4825.205204443575
1666.2535508535748 4973.072070960842
1666.9955164762814 4601.512602210769
1667.7373024864555 4737.350670345879
1668.478908930916 4681.411658209685
1669.220335856462 4528.467866338598
1669.9615833098778 4574.06922293312
1670.7026513379296 4481.670255864263
1671.44353998736 4674.515734407241
1672.1842493048916 4593.673940493392
1672.9247793372379 4525.142321622633
1673.6651301310812 4671.573452716824
1674.4053017330934 4524.590591993192
1675.1452941899242 4618.436302826221
1675.885107548207 4249.133373266887
1676.6247418545518 4341.60217426444
1677.3641971555535 4376.776682480066
1678.1034734977893 4568.84607136233
1678.8425709278108 4445.705231431279
1679.5814894921605 4643.961807774915
1680.320229237359 4423.692868963015
1681.0587902098978 4487.128859953212
1681.7971724562685 4369.046508564168
1682.5353760229264 4293.945161156289
1683.2734009563173 4397.526187900147
1684.0112473028657 4258.848845552604
1684.7489151089794 4454.305333588767
1685.4864044210462 4403.094441364213
1686.2237152854377 4065.042804167383
1686.960847748498 4330.031584228282
1687.6978018565642 4233.671383492315
1688.434577655944 4131.556425531584
1689.1711751929379 4038.8370814406794
1689.9075945138156 4240.0305761500285
1690.6438356648396 4179.988919683907
1691.3798986922448 3881.1817055819106
1692.1157836422499 4090.4799726146143
1692.851490561059 4044.878298135449
1693.587019494853 4133.020589634347
1694.3223704897991 3803.73058133453
1695.0575435920364 3853.318624228682
1695.792538847696 4204.347406936207
1696.527356302886 3985.7508178910184
1697.2619960036936 3832.6802046466014
1697.9964579961907 3826.502521068841
1698.730742326432 3570.176369703545
1699.4648490404488 3658.454620438627
1700.1987781842563 3768.145935318282
1700.9325298038548 3857.523176566536
1701.6661039452174 4010.1449551030623
1702.3995006543082 4029.5380179877575
1703.1327199770658 3877.301800054247
1703.865761959416 3788.2350861814207
1704.598626647261 4043.3736584273306
1705.3313140864866 3733.187436560888
1706.0638243229587 3736.4015679952304
1706.7961574025303 3902.617904267234
1707.528313371029 3791.6420130927245
1708.260292274268 3622.725365679252
1708.9920941580403 3836.1408560144164
1709.7237190681226 3732.3105605600367
1710.4551670502697 3767.2124896714295
1711.18643815022 3612.410907006523
1711.9175324136959 3885.5969288520255
1712.6484498863938 3717.3591281104236
1713.379190614005 3507.575459475496
1714.109754642188 3746.854978398984
1714.8401420165883 3689.6324802428317
1715.570352782839 4212.519105669664
1716.3003869865497 3708.0133576886465
1717.0302446733076 3547.5380979606634
1717.7599258886876 3725.2066170222242
1718.4894306782444 4033.7016795583622
1719.2187590875183 3584.5931469943534
1719.9479111620203 3889.6319688263757
1720.6768869472544 3623.6068459760186
1721.4056864887025 3867.067784964348
1722.1343098318284 3734.0201289096062
1722.8627570220742 3713.2677830091934
1723.591028104871 3601.6034921660175
1724.3191231256242 3592.5708117781287
1725.0470421297232 3522.41210360413
1725.7747851625427 3774.695975547254
1726.5023522694337 3642.267188303757
1727.2297434957363 3607.3551135695852
1727.9569588867635 3421.4899733666252
1728.6839984878152 3608.6972147782412
1729.4108623441734 3338.2864832655846
1730.1375505011038 3583.5249740885074
1730.8640630038426 3554.558545201533
1731.5903998976264 3474.6278557909836
1732.316561227657 3598.632132590443
1733.0425470391274 3473.147766157849
1733.7683573772065 3519.0441063767744
1734.4939922870508 3629.654194080102
1735.2194518137949 3608.8328697118327
1735.9447360025606 3583.196863793112
1736.669844898439 3465.0030233517305
1737.3947785465189 3417.2620848748656
1738.1195369918605 3411.1336743261454
1738.8441202795093 3584.329736929593
1739.5685284544943 3578.529831011629
1740.292761561821 3516.6248110247907
1741.0168196464838 3589.2629681872336
1741.7407027534518 3611.3378662969626
1742.464410927687 3566.7488560871616
1743.187944214118 3479.2385481856318
1743.9113026576688 3563.0167461612573
1744.634486303241 3556.4789384201767
1745.3574951957125 3530.185584044487
1746.0803293799509 3564.8857840127116
1746.8029889008048 3525.880786235551
1747.5254738031017 3556.3399445628893
1748.2477841316504 3315.1921271850892
1748.969919931249 3441.390202188361
1749.6918812466665 3352.01967972022
1750.4136681226646 3546.6450618264657
1751.1352806039777 3418.50620820459
1751.856718735331 3304.170152767435
1752.5779825614281 3405.6431952995567
1753.2990721269507 3558.782480933102
1754.0199874765676 3514.569362695426
1754.7407286549314 3243.3981984174948
1755.4612957066693 3359.2182183278906
1756.1816886763954 3299.256701688139
1756.9019076087097 3460.796084029007
1757.6219525481865 3450.8798149925724
1758.3418235393856 3475.766183696361
1759.061520626854 3534.042419580106
1759.7810438551096 3538.860841789705
1760.5003932686614 3322.533863888827
1761.2195689119999 3538.9206566811713
1761.938570829594 3303.6966465322744
1762.657399065898 3465.660152244835
1763.376053665348 3307.5509966686413
1764.0945346723602 3236.7530510525644
1764.812842131334 3572.0305109502397
1765.5309760866512 3236.4791074266795
1766.2489365826787 3285.897410101106
1766.9667236637597 3346.609621744146
1767.684337374223 3221.2408377032343
1768.401777758383 3115.5052769433883
1769.1190448605284 3356.2435749505194
1769.836138724937 3216.5878423957784
1770.5530593958665 3383.602065252985
1771.2698069175603 3513.681690431783
1771.9863813342326 3418.255767224118
1772.702782690094 3323.2507592445
1773.4190110293293 3456.4227348103936
1774.1350663961111 3399.8127166253953
1774.8509488345844 3231.0975334129453
1775.5666583888924 3316.586186628966
1776.2821951031437 3398.832715323873
1776.9975590214362 3193.2614789781837
1777.7127501878585 3489.9451926251504
1778.4277686464684 3470.0834216911376
1779.1426144413108 3403.915526071711
1779.8572876164162 3543.182918435797
1780.571788215797 3141.026319973912
1781.2861162834415 3238.0869687646964
1782.0002718633277 3225.2226909280075
1782.7142549994132 3427.301542539056
1783.4280657356376 3363.6866678191886
1784.141704115922 3250.5397960913133
1784.855170184177 3363.0222994834376
1785.5684639842839 3288.824024319189
1786.2815855601148 3060.7582158251607
1786.9945349555237 3328.3286766525025
1787.707312214343 3252.280939686367
1788.4199173803918 3575.040054330523
1789.132350497468 3187.3201118632423
1789.8446116093583 3253.0126541939712
1790.556700759822 3247.5506953215195
1791.2686179926077 3217.7981500457054
1791.9803633514493 3199.4400877771272
1792.6919368800554 3063.5673218292377
1793.4033386221236 3287.3714201354364
1794.1145686213295 3353.0252173110302
1794.8256269213307 3454.7583624692925
1795.536513565774 3315.873041173748
1796.247228598284 3070.9202765045084
1796.9577720624693 3167.6736541558994
1797.6681440019165 3207.0721706438353
1798.3783444602013 3228.360054687509
1799.0883734808776 3263.548130153433
1799.7982311074884 3311.8019584016597
1800.5079173835475 3272.528962715266
1801.2174323525633 3275.075144992315
1801.9267760580187 3221.280523177792
1802.635948543386 3278.8218324172944
1803.3449498521113 3130.4203046631033
1804.0537800276325 3297.023418247064
1804.7624391133668 3288.29339753635
1805.47092715271 2985.477423559411
1806.1792441890484 3129.1855654048827
1806.8873902657433 3318.7953701088854
1807.5953654261448 3172.533233726509
1808.3031697135812 3144.0769870362283
1809.0108031713662 3096.4490573868025
1809.71826584279 3179.299060859803
1810.425557771141 3113.9608412492144
1811.1326789996747 3506.5158107767857
1811.839629571632 3088.3887568114556
1812.5464095302468 3163.303901115406
1813.2530189187182 3087.1549455376417
1813.959457780249 3100.152696058207
1814.6657261580076 3213.3156755364644
1815.371824095153 3110.2515706652816
1816.0777516348262 3257.026990958534
1816.78350882015 2894.039327780004
1817.4890956942272 3059.454504077177
1818.1945123001533 3102.949202149202
1818.8997586809928 3164.972690948971
1819.6048348798067 2997.501296441008
1820.3097409396287 3174.3367195085893
1821.0144769034796 3358.7922943470926
1821.7190428143622 3148.8617969153984
1822.423438715261 3204.6776521789275
1823.1276646491478 3053.774855571851
1823.8317206589727 3113.4635819315795
1824.5356067876692 3088.206356028331
1825.2393230781581 3171.2715160978605
1825.942869573335 2908.853562069111
1826.646246316086 2972.5355932534644
1827.3494533492758 3132.9769745021877
1828.052490715756 3190.927860886585
1828.7553584583547 3148.021180801274
1829.458056619891 3222.1656708755736
1830.1605852431585 3068.3235107150635
1830.8629443709433 2883.3435766145244
1831.5651340460063 3108.685026550379
1832.2671543110919 2871.6145325384714
1832.9690052089318 3227.401418921042
1833.6706867822395 2946.6688861911252
1834.3721990737104 3117.6738181361934
1835.0735421260233 3208.2074558776185
1835.774715981841 3072.7069865209914
1836.4757206838058 3220.532715160544
1837.1765562745459 3122.730941777624
1837.8772227966747 2937.980431447435
1838.5777202927839 3082.1290441346323
1839.2780488054523 3128.623766432376
1839.9782083772352 2990.074945891148
1840.6781990506806 3263.631007292043
1841.378020868313 3004.0340579693893
1842.0776738726418 3186.4274793668146
1842.777158106157 3041.120889698271
1843.4764736113375 2897.4857627008782
1844.1756204306403 3145.9983579659506
1844.8745986065078 2974.2752629900724
1845.5734081813607 2970.9489600698303
1846.2720491976124 2972.6298182705755
1846.970521697649 2881.7794403570615
1847.6688257238511 3030.8841368818785
1848.3669613185684 3149.2235604054413
1849.0649285241452 2795.2009320755355
1849.7627273829057 2964.5409754250823
1850.460357937156 3078.8277541713514
1851.1578202291857 2863.58600597482
1851.8551143012664 2973.7125184738625
1852.5522401956569 2993.152745069601
1853.2491979545957 3145.819887839925
1853.9459876203055 3008.8985317103566
1854.6426092349902 2909.43166149421
1855.3390628408451 2919.7479422418382
1856.0353484800362 3185.7311523697317
1856.7314661947203 3017.1549110823867
1857.4274160270397 2913.2205819405267
1858.123198019115 2955.306931595575
1858.8188122130487 2864.1833671763716
1859.5142586509319 2927.928504072165
1860.209537374838 3029.0233408244303
1860.9046484268183 2970.6294457714403
1861.599591848917 2991.106282256521
1862.294367683151 2904.7221117613367
1862.988975971528 2992.0341499116194
1863.6834167560355 3002.005731757221
1864.3776900786452 3105.994225653275
1865.0717959813119 2997.5453562223324
1865.7657345059724 2933.444394596346
1866.4595056945564 3078.7251558927737
1867.1531095889586 3056.679605697721
1867.846546231076 2791.759927002347
1868.5398156627743 3051.275174820777
1869.2329179259123 2908.586185319527
1869.9258530623283 3119.6170397496894
1870.618621113843 2878.46404395449
1871.3112221222636 2852.7159781621144
1872.0036561293764 2851.4294770135502
1872.695923176956 3019.713903364889
1873.3880233067594 3161.833418895568
1874.0799565605212 2761.9279338086735
1874.7717229799673 3062.696642237494
1875.4633226068036 3116.2483664952997
1876.1547554827175 3057.8855513602443
1876.8460216493859 2847.55371199835
1877.5371211484617 3012.4942324788826
1878.2280540215852 3169.718075687296
1878.9188203103804 2795.1289718418043
1879.6094200564548 2911.6006467481475
1880.299853301396 2808.3377192383896
1880.9901200867826 3222.1563366344426
1881.6802204541673 2989.2626587183636
1882.3701544450942 3074.975490251508
1883.059922101087 2821.0852674738007
1883.7495234636517 2984.1208411194757
1884.4389585742792 2800.0588485205412
1885.1282274744517 2890.1509982636267
1885.8173302056166 3304.0105517417674
1886.506266809225 2852.071368234625
1887.195037326701 2750.4414019607098
1887.8836417994517 2759.508983325514
1888.5720802688702 3092.3197947266335
1889.260352776333 2930.8828741786197
1889.9484593632042 3046.8638009322376
1890.63640007082 2751.7501405808307
1891.3241749405151 2666.086978900275
1892.0117840135954 3100.9528839056916
1892.6992273313572 2897.8085444881235
1893.3865049350788 2824.6802464154516
1894.0736168660223 3202.203770822158
1894.7605631654333 2948.920893102908
1895.4473438745408 2764.511503742037
1896.133959034556 3092.8318835465443
1896.820408686679 2970.240585794594
1897.506692872088 3023.4679231361433
1898.192811631945 2881.558332193533
1898.8787650073991 2946.5228066798463
1899.5645530395832 3003.5213360247053
1900.2501757696118 2938.562325977614
1900.9356332385796 2778.608567714439
1901.620925487574 3157.1116990905184
1902.3060525576602 2837.843962094146
1902.9910144898859 2986.8331267554395
1903.6758113252872 2819.9010105818934
1904.3604431048789 2959.4597993289262
1905.0449098696663 2970.0089035827186
1905.7292116606295 2845.5988604571803
1906.4133485187394 2860.6181803535137
1907.0973204849488 2515.4313865920976
1907.7811276001976 2735.9296217497426
1908.4647699053967 2869.7679170172437
1909.1482474414588 2321.496828256323
1909.8315602492694 2566.0219656934614
1910.5147083696957 2990.9193298187374
1911.1976918436012 2965.8422458561013
1911.880510711815 2706.842824998675
1912.5631650151681 2924.354175925842
1913.2456547944657 2735.6980666691707
1913.927980090495 2690.5989212967993
1914.6101409440362 2765.4104504802335
1915.2921373958416 2843.1259524715
1915.9739694866603 2857.2314515018966
1916.655637257214 2885.2772860156792
1917.3371407482136 2834.7082100575444
1918.0184800003572 3018.3924452964193
1918.6996550543154 3039.1246500827497
1919.3806659507554 2821.361570750565
1920.0615127303208 2781.37620179233
1920.7421954336423 3019.820913186918
1921.4227141013343 3042.836195421958
1922.103068773993 2875.231586180603
1922.783259492202 2972.5991296247307
1923.4632862965227 2796.5359962125303
1924.1431492275078 2681.866099329048
1924.8228483256917 2718.1663711632764
1925.5023836315922 2733.1997761093066
1926.1817551857057 2516.8901787132436
1926.8609630285227 3020.551249477582
1927.5400072005123 2934.305986015662
1928.218887742125 2685.240824573416
1928.8976046938005 2619.4653025145726
1929.5761580959588 2981.300401597111
1930.2545479890086 2739.6003729891563
1930.9327744133352 2607.442244130418
1931.6108374093164 2768.594539782488
1932.2887370173066 3032.807537536859
1932.9664732776473 2495.9439584016372
1933.6440462306673 2757.455835982871
1934.3214559166754 2745.3371627401416
1934.9987023759659 2862.7314519825527
1935.675785648813 2855.293441877576
1936.3527057754836 2576.6631372179463
1937.029462796223 3001.7466681451274
1937.70605675126 2673.3697107602447
1938.3824876808085 2646.832778867703
1939.058755625072 2756.4722005710164
1939.7348606242267 2786.320655903199
1940.4108027184448 2795.259718150723
1941.0865819478713 2856.7724377033146
1941.7621983526478 2688.807232909473
1942.4376519728921 2741.6746619474334
1943.1129428487038 2718.8656055275915
1943.7880710201734 2800.573219118688
1944.4630365273733 2831.4488851213964
1945.1378394103576 2615.0775209606886
1945.8124797091714 2947.9929595279036
1946.4869574638324 2599.064894596567
1947.161272714353 2786.7581070565243
1947.8354255007234 2936.1068599506925
1948.5094158629272 2548.291029630086
1949.1832438409183 2884.3285110617985
1949.8569094746435 2866.5796820401947
1950.530412804037 2858.4822017190163
1951.2037538690092 2824.171982366527
1951.8769327094578 2771.3168605722703
1952.5499493652678 2596.839566595505
1953.222803876306 2862.4856884218366
1953.895496282421 2744.9781590022963
1954.5680266234522 2810.244454298239
1955.2403949392155 2834.5484871662798
1955.9126012695142 2676.4393257594274
1956.5846456541403 2723.99935323794
1957.2565281328643 2477.749695346366
1957.9282487454457 2885.902780930583
1958.5998075316202 2813.6718239347065
1959.27120453112 2717.9652729199333
1959.9424397836501 2874.860156092897
1960.613513328908 2731.150023864313
1961.2844252065697 2898.1321353212634
1961.9551754563017 2626.4924809223285
1962.6257641177453 2726.65332851724
1963.29619123054 2575.1623200063104
1963.966456834296 2655.4864169127172
1964.6365609686181 2459.23059814387
1965.306503673086 2903.772809445645
1965.976284987275 2640.268959567731
1966.645904950734 2636.6769248306928
1967.315363603002 2512.661302069054
1967.9846609836077 2720.9416384369983
1968.6537971320486 2705.1862399660167
1969.3227720878222 2820.628779097933
1969.9915858904042 2617.0569404672196
1970.660238579252 2796.772037555542
1971.3287301938108 2605.1322468207395
1971.997060773514 2632.127707116493
1972.665230357772 2523.904748076368
1973.3332389859843 2563.3761297032356
1974.0010866975335 2524.8424461272066
1974.6687735317864 2718.4824666296204
1975.3362995280932 2711.911176474113
1976.003664725793 2790.661544042331
1976.6708691642052 2472.5855416386403
1977.3379128826364 2640.435406872521
1978.004795920373 2827.2457624951003
1978.6715183166925 2900.59244741932
1979.3380801108524 2354.0046876073397
1980.0044813420973 2602.7668790596526
1980.6707220496555 2454.7662423184656
1981.3368022727373 2620.3649446713316
1982.0027220505417 2678.48143047056
1982.66848142225 2324.7031861426904
1983.3340804270283 2470.1411181699177
1983.999519104027 2561.827995226212
1984.6647974923835 2785.1864761526667
1985.329915631215 2664.4309123186545
1985.99487355963 2608.7086574857976
1986.6596713167146 2867.7654482757534
1987.3243089415428 2540.932377647322
1987.9887864731754 2729.6309083702336
1988.6531039506553 2595.7316245140196
1989.3172614130071 2993.818594100964
1989.9812588992481 2456.687032177389
1990.645096448372 2380.9746486686613
1991.3087740993633 2717.280017333538
1991.9722918911848 2618.432962182147
1992.635649862792 2579.285131588097
1993.2988480531185 2579.716306330209
1993.9618865010852 2942.0788643819315
1994.6247652455968 2619.5328452106937
1995.287484325545 2422.7404083362935
1995.9500437798033 2526.449389104032
1996.6124436472292 2414.0616375713626
1997.2746839666706 2722.590651992643
1997.936764776954 2418.8729062008097
1998.598686116895 2603.141712947783
1999.2604480252903 2755.9862754167866
1999.9220505409212 2681.0817774865313
2000.5834937025593 2420.796965225521
2001.2447775489582 2595.141637406901
2001.9059021188514 2629.5216455842615
2002.5668674509616 2462.68215756007
2003.2276735839987 2569.82891460786
2003.8883205566508 2714.1466840337334
2004.5488084075987 2510.367669142081
2005.2091371755014 2637.1997305259347
2005.8693068990033 2369.0615156325744
2006.5293176167397 2681.6379849314812
2007.1891693673224 2419.739754719034
2007.848862189354 2443.918476685788
2008.5083961214223 2425.775663628713
2009.1677712020955 2548.142873969905
2009.8269874699254 2436.7248575425924
2010.4860449634598 2826.579355021601
2011.1449437212177 2405.5349901344593
2011.8036837817108 2793.5522512219372
2012.4622651834325 2548.4659312575495
2013.1206879648653 2625.653663715719
2013.7789521644736 2831.232871062858
2014.4370578207036 2209.89059563727
2015.0950049719922 2538.666275637734
2015.7527936567585 2732.3101127077857
2016.4104239134067 2500.7626550597242
2017.067895780323 2863.9815581858866
2017.725209295886 2304.4751542602507
2018.3823644984514 2824.225039285598
2019.0393614263648 2694.2419133369194
2019.6962001179545 2394.758303034952
2020.3528806115355 2686.617653124997
2021.0094029454067 2612.4130258511314
2021.6657671578487 2560.477355945425
2022.321973287133 2551.262363210737
2022.9780213715148 2478.9452463238586
2023.6339114492293 2432.2957531158218
2024.2896435585026 2529.60861192599
2024.9452177375442 2516.526375560017
2025.600634024544 2735.261068914653
2026.2558924576842 2558.5305451838617
2026.9109930751292 2600.79375329043
2027.565935915025 2333.3245008614967
2028.2207210155066 2797.5030263333774
2028.8753484146964 2795.711857123637
2029.529818150695 2238.431325795438
2030.1841302615903 2601.9258966181806
2030.8382847854573 2408.139651627495
2031.4922817603601 2561.3847904472523
2032.1461212243357 2636.9731880791987
2032.7998032154192 2304.4909015046796
2033.4533277716218 2474.833975405928
2034.1066949309443 2281.5593335665826
2034.7599047313688 2414.333529680687
2035.4129572108704 2637.4174570718133
2036.0658524074006 2557.908092829376
2036.7185903589016 2569.7849038193785
2037.3711711032956 2533.2631224254546
2038.023594678496 2649.2320349102874
2038.675861122394 2286.0524804618913
2039.3279704728757 2557.393448529489
2039.9799227678031 2304.5573120708177
2040.6317180450278 2504.856425189241
2041.2833563423865 2325.9585320140563
2041.9348376977014 2719.205646348678
2042.5861621487784 2699.1927796638565
2043.2373297334088 2620.9839400868373
2043.8883404893695 2489.928553412691
2044.5391944544208 2419.7889569866015
2045.1898916663158 2684.6336920371223
2045.8404321627804 2791.921566436066
2046.4908159815368 2383.0103889578245
2047.1410431602853 2304.9542581015203
2047.7911137367173 2405.9880037456037
2048.441027748504 2713.3444867580947
2049.090785233302 2265.8308078691707
2049.7403862287592 2432.965173139458
2050.389830772503 2623.854133546873
2051.0391189021466 2448.7360572825046
2051.688250655294 2489.387772388435
2052.337226069527 2234.4328926149933
2052.986045182417 2626.515477185605
2053.634708031521 2209.499431714279
2054.283214654375 2665.650854812558
2054.931565088511 2245.984339422691
2055.579759371436 2319.090561912996
2056.2277975406523 2449.849519133605
2056.8756796336384 2658.6356444938383
2057.5234056878617 2225.658208749705
2058.1709757407752 2335.395455623746
2058.8183898298194 2671.4236716527867
2059.465647992416 2632.3471908054344
2060.1127502659747 2590.7892319443404
2060.759696687888 2266.9719916018234
2061.4064872955405 2456.489046591126
2062.053122126292 2235.837921259832
2062.699601217497 2609.3039907396083
2063.345924606485 2411.573115417674
2063.992092330587 2545.109362907596
2064.638104427102 2329.322293179106
2065.283960933324 2622.0375826797995
2065.92966188653 2330.107959434758
2066.5752073239855 2532.223283553382
2067.2205972829397 2412.828977779163
2067.86583180062 2611.7777727315092
2068.5109109142522 2408.1647126480434
2069.15583466104 2365.4589618275395
2069.8006030781708 2322.7158762881
2070.445216202821 2327.2057721555093
2071.089674072153 2537.9966801997994
2071.7339767233116 2653.1878245581656
2072.3781241934303 2332.675538380784
2073.0221165196253 2555.2477784367898
2073.6659537390024 2327.0183106043523
2074.3096358886505 2520.2873058993123
2074.953163005637 2280.5389378603304
2075.596535127028 2132.0844849318355
2076.2397522898664 2277.697813897788
2076.882814531182 2341.025865403245
2077.5257218879924 2426.209689168162
2078.1684743973 2365.811507332387
2078.8110720960885 2325.960520329875
2079.453515021336 2621.348933587265
2080.095803209997 2463.123351635698
2080.7379366990135 2624.2560848861403
2081.37991552532 2505.9701480707745
2082.0217397258275 2524.485145489637
2082.6634093374414 2209.130604440479
2083.3049243970418 2416.578352277341
2083.9462849415067 2551.806728213074
2084.587491007689 2377.094353374147
2085.2285426324324 2432.054699160809
2085.869439852564 2327.7869147710944
2086.510182704902 2222.256474292307
2087.1507712262483 2431.388735068293
2087.791205453381 2258.5361872918706
2088.4314854230743 2610.5708493186376
2089.0716111720867 2514.0757218181684
2089.7115827371617 2120.1364156491973
2090.351400155023 2216.6986612335545
2090.991063462385 2313.5452286332797
2091.6305726959527 2223.7956443834305
2092.2699278924047 2517.5077861138375
2092.9091290884153 2262.2789631351834
2093.548176320641 2109.3597305113894
2094.187069625721 2116.350868737299
2094.8258090402887 2123.356614957013
2095.464394600951 2312.0569660935153
2096.102826344313 2288.7924391186175
2096.741104306955 2267.253261457677
2097.379228525453 2245.670903850129
2098.017199036358 2110.4226223612445
2098.6550158762147 2538.2321790704004
2099.2926790815527 2494.991538338464
2099.9301886888825 2378.3822043615382
2100.5675447347076 2312.334782808258
2101.2047472555114 2498.2584595059748
2101.841796287761 2125.2847880695545
2102.47869186792 2527.3112957391413
2103.1154340324265 2256.917872061746
2103.752022817709 2252.244077112587
2104.388458260184 2220.2035597340455
2105.024740396251 2335.8525394212807
2105.660869262292 2340.8643767412473
2106.296844894685 2459.3693912159974
2106.93266732978 2433.550427532532
2107.5683366039284 2198.2656752651374
2108.2038527534532 2426.2481907439187
2108.8392158146726 2564.8483600322156
2109.4744258238843 2254.5181153303643
2110.1094828173755 2188.8309587806953
2110.744386831422 2550.6098281800078
2111.3791379022787 2321.1871108225596
2112.01373606619 2556.139421789957
2112.648181359389 2408.3602945933144
2113.28247381809 2469.623084264581
2113.916613478492 2340.6049605711924
2114.550600376786 2487.9098703379777
2115.1844345491445 2284.207211999941
2115.818116031729 2419.3460117780032
2116.451644860679 2464.5065402560112
2117.085021072133 2191.437690386821
2117.718244702204 2101.9878839211106
2118.3513157869984 2398.2171000057238
2118.984234362604 2264.567326959371
2119.617000465092 2304.327370479304
2120.249614130529 2555.909942408355
2120.8820753949585 2387.609736800375
2121.5143842944162 2238.738469488932
2122.14654086492 2253.008415888305
2122.7785451424734 2472.7073371022407
2123.4103971630702 2180.2437643299136
2124.042096962681 2439.0489075062615
2124.6736445772767 2514.996471725089
2125.305040042802 2088.71514202424
2125.936283395191 2290.628206281406
2126.567374670365 2327.058844218236
2127.198313904233 2179.909054920015
2127.8291011326855 2574.461916144511
2128.4597363916037 2319.8686269831474
2129.0902197168507 2349.25017367457
2129.720551144279 2114.6805656677425
2130.3507307097225 2606.758404295003
2130.980758449008 2541.151510884757
2131.6106343979427 2270.8746931937376
2132.2403585923203 2577.6910229648975
2132.8699310679276 2389.2930524714575
2133.499351860526 2510.310720041973
2134.1286210058715 2337.895947069078
2134.7577385397053 2032.8936192045985
2135.3867044977487 2536.737729696128
2136.0155189157176 2620.8998934774763
2136.644181829308 2486.218046591851
2137.2726932742025 2326.4322564068857
2137.901053286074 2503.87397568335
2138.5292619005777 2129.447708360122
2139.1573191533535 2094.8854393231263
2139.7852250800315 2452.614268534213
2140.4129797162295 2402.0153077593886
2141.0405830975433 2030.1305296353653
2141.6680352595613 2088.173217680365
2142.2953362378576 2146.3508758078356
2142.9224860679915 2125.700630867851
2143.549484785508 2166.9832057115755
2144.1763324259373 2357.7012920965026
2144.803029024799 2133.130612950018
2145.429574617594 2165.478387400257
2146.0559692398165 2360.194320356152
2146.682212926942 2166.3517725264014
2147.308305714432 2260.5839928446053
2147.9342476377333 2412.0334480764172
2148.5600387322847 2484.7045968103594
2149.185679033506 2631.3645676889046
2149.8111685768017 2192.2616249488556
2150.4365073975678 2100.8378902326644
2151.061695531187 2272.3949785447885
2151.686733013021 2504.5239741547207
2152.311619878423 2413.7525147555643
2152.9363561627342 2302.3431201708054
2153.560941901278 1940.7456999042329
2154.1853771293663 2274.715826862329
2154.809661882293 2238.027516902336
2155.433796195348 2563.2012090231156
2156.0577801037944 2089.0844984802434
2156.681613642895 2453.8608112381253
2157.3052968478896 2008.4815778112861
2157.928829754006 2465.987399181662
2158.552212396462 2363.9988825395853
2159.1754448104566 2253.075220272834
2159.7985270311783 2066.233791432868
2160.4214590938027 1964.4725385335744
2161.0442410334927 1935.0197940379571
2161.6668728853874 2377.0706549941015
2162.289354684628 2045.7047985778452
2162.911686466332 2167.9009029619115
2163.533868265602 2497.478875949976
2164.1559001175337 2395.9394719157513
2164.7777820572046 2273.3724127113264
2165.399514119681 2123.2693324775314
2166.021096340013 2041.7657050152745
2166.6425287532384 2415.255519433183
2167.263811394385 2163.5568723130714
2167.8849442984574 2347.9420200334507
2168.505927500455 2205.651685911751
2169.126761035366 2376.5902292160245
2169.7474449381552 2156.058856019728
2170.367979243778 2020.1862337089424
2170.9883639871823 2368.9462090571424
2171.608599203293 2037.559874090252
2172.2286849270276 2669.8327724013843
2172.8486211932886 2562.8491427557374
2173.4684080369625 2248.6174465097783
2174.0880454929265 2087.86048077579
2174.7075335960417 1925.342943786553
2175.3268723811543 2395.9381322755135
2175.9460618831 2132.7907269607863
2176.565102136701 2159.4042422853954
2177.1839931767627 2519.3890696255703
2177.802735038078 2114.59162684587
2178.421327755432 1974.9588568827112
2179.0397713635866 1989.5440829519503
2179.658065897298 2157.581379105291
2180.276211391305 2225.709725367581
2180.8942078803357 2293.8873538426665
2181.5120553991 2084.867979629359
2182.129753982299 1949.0773885616625
2182.7473036646206 2229.135952384167
2183.3647044807367 2239.7543856662755
2183.9819564653044 2087.6737927894937
2184.599059652968 2277.4815291635146
2185.216014078367 2353.1321529243555
2185.832819776113 2412.708969605535
2186.4494767808137 2472.289155807034
2187.065985127063 2062.1274708377446
2187.682344849436 2142.7224264717015
2188.298555982501 2314.1327760174186
2188.9146185608097 2310.6194437624804
2189.530532618901 2425.211051970874
2190.1462981912937 2240.942708672087
2190.761915312507 2327.1763178183387
2191.377384017036 1972.4742970839611
2191.9927043393654 2083.3468562826065
2192.6078763139667 1882.096682139573
2193.2228999753006 2023.9575506579367
2193.837775357808 2166.140538796403
2194.452502495922 1923.4047641560362
2195.0670814240602 2174.6692723897904
2195.6815121766285 1846.406447834214
2196.2957947880186 1833.1666514836943
2196.9099292926057 1819.9065082369355
2197.523915724758 2168.3746175033816
2198.137754118825 2139.0094908072056
2198.7514445091456 2538.3348919471005
2199.3649869300443 2510.193803682735
2199.9783814158327 2482.0924112867274
2200.5916280008096 2429.7961005043107
2201.2047267192593 2255.5459553412506
2201.8176776054515 2042.059258899552
2202.430480693649 2016.8917952304807
2203.0431360180955 2261.405881673544
2203.6556436130195 2254.637278445537
2204.268003512645 1836.6930892389191
2204.8802157511727 2158.935777579887
2205.492280362796 2498.9654840662456
2206.1041973816937 2221.2348977383012
2206.715966842032 2115.1346315507535
2207.3275887779655 2192.5544447979164
2207.93906322363 2257.3163212402937
2208.550390213153 2224.7936991649085
2209.1615697806465 2386.2645452823776
2209.7726019602105 2004.7328883809082
2210.3834867859277 2078.094713403997
2210.9942242918787 2123.0244018561402
2211.6048145121167 2054.782106894981
2212.2152574806914 2026.664570893497
2212.825553231638 1998.5482912096177
2213.435701798975 2443.697858189767
2214.045703216707 2210.2157946487287
2214.655557518832 1890.3194641479568
2215.2652647393297 1969.9810945365068
2215.874824912169 1723.6726023344509
2216.4842380713 1803.1028258836152
2217.09350425067 1882.8616781789256
2217.7026234842033 2210.011477357132
2218.311595805819 2217.069918499111
2218.9204212494133 1988.4283165211195
2219.52909984888 2195.1160564285146
2220.137631638092 2304.7837806439393
2220.7460166509154 2414.5324359359947
2221.354254921198 2111.4335930801417
2221.9623464827764 2140.6713598858505
2222.5702913694713 2188.6240410853925
2223.178089615096 2341.6350252667844
2223.7857412534486 2022.8763501727822
2224.39324631831 1850.4455136604884
2225.000604843457 2053.9700131820414
2225.607816862641 2263.5364012280984
2226.214882409611 2190.2519232937843
2226.8218015180973 2249.6726710118483
2227.4285742218217 2077.6039030630445
2228.0352005544864 2087.5245242927235
2228.6416805497847 2001.7982700756268
2229.248014241399 2044.860918010188
2229.8542016629945 1963.323421852609
2230.460242848223 2151.4724418332644
2231.0661378307304 2434.217059494137
2231.671886644139 1960.9130533157568
2232.277489322065 1790.706741734914
2232.8829458981127 1749.6935453581561
2233.48825640587 2063.5838719928415
2234.0934208789095 2398.275395584799
2234.6984393507955 2295.0055291521167
2235.3033118550793 2244.1286227573005
2235.9080384252975 2136.366120148025
2236.5126190949723 1952.6101712155523
2237.1170538976166 1941.0213201348943
2237.721342866729 1927.9847492484678
2238.32548603579 1988.0990030348676
2238.9294834382763 2282.6185315218318
2239.533335107646 2052.8466427637877
2240.1370410773434 1906.3022058217607
2240.740601380803 1891.6438886757264
2241.3440160514474 2081.198668709249
2241.9472851226783 2306.383950209102
2242.550408627896 2100.7999566692083
2243.1533866004793 2398.6193374962577
2243.756219073799 2104.3938289892353
2244.3589060812064 1884.9283495982568
2244.961447656049 1895.4752180997216
2245.5638438316564 2064.2396412183107
2246.166094641343 1983.3412771665026
2246.7682001184166 1773.4976950306486
2247.3701602961664 2107.3056555310523
2247.971975207871 2283.003176555274
2248.5736448867974 2280.7644959829827
2249.175169366197 1979.6045586910986
2249.7765486793123 2198.579509999062
2250.3777828593684 1982.933010950112
2250.9788719395783 2057.4246290753413
2251.579815953146 2292.966399945956
2252.1806149332606 1888.539668367744
2252.781268913097 2006.1644134082562
2253.381777925817 1952.0942612850188
2253.9821420045737 2078.8563078947873
2254.5823611825035 2228.250207627505
2255.1824354927303 2204.2424350922047
2255.782364968365 1990.0366862006122
2256.38214964251 1775.5964722439937
2256.9817895482483 1872.9183777532296
2257.5812847186553 1988.4665807211327
2258.180635186791 1935.9926111921748
2258.779840985704 1946.6524923577806
2259.37890214843 2070.2583479209325
2259.97781870799 2374.8786402754645
2260.5765906973957 2129.7460381907795
2261.175218149645 2053.1799110127886
2261.773701097718 1887.3303408997174
2262.3720395745895 1721.1437021052056
2262.970233613216 1957.0552315621294
2263.568283246548 1926.786669604219
2264.1661885075137 1979.730450986152
2264.763949429038 1873.4778076992557
2265.3615660440246 2219.2142359411027
2265.959038385374 2222.2821834510396
2266.5563664859637 2225.4111040592616
2267.153550378669 1897.1429419814965
2267.7505900963424 2092.0230098353873
2268.3474856718312 1956.827262893206
2268.9442371379664 2039.5574460968844
2269.5408445275643 1939.3906024197233
2270.1373078734377 1967.4270192362208
2270.7336272083758 1914.4566670112301
2271.32980256516 1867.4824301027106
2271.925833976562 2225.0360042197076
2272.5217214753357 2393.002835007467
2273.117465094223 1888.5216223821549
2273.7130648659586 1771.9928495458687
2274.308520823257 2050.7332522305373
2274.903832998827 2118.9716116946424
2275.4990014253563 1726.2875929932993
2276.094026135528 2178.5983970591515
2276.6889071620117 1900.9839537419607
2277.2836445374614 1789.771479942954
2277.878238294519 1964.5454255590207
2278.472688465812 1928.120817080037
2279.066995083962 1891.5763728469785
2279.6611581815705 1919.323760234438
2280.255177791232 2212.5491095489324
2280.8490539455233 2036.4523331073924
2281.442786677013 2371.6559453460845
2282.0363760182554 2174.6715372434237
2282.6298220017943 1827.930634097272
2283.223124660155 2244.618765433476
2283.816284025859 1998.9196689505923
2284.4093001314086 2338.7852949347507
2285.002173009292 1934.7385916262665
2285.5949026919952 2269.103110326303
2286.1874892119777 2092.9431778178478
2286.7799326016993 2049.7438839704264
2287.3722328936 1880.5884179803568
2287.964390120109 1784.8978686609412
2288.556404313642 2227.4221961616317
2289.1482755066027 2364.845486098105
2289.7400037313873 2237.4169048885115
2290.3315890203703 2222.6003212526075
2290.9230314059205 2207.778892250385
2291.5143309203904 1964.541727809045
2292.1054875961236 1966.260108847397
2292.6965014654506 2253.200567675046
2293.287372560684 1968.474092204467
2293.878100914131 1906.2626189123898
2294.468686558086 1843.9796688797774
2295.059129524827 2006.6661208867706
2295.649429846617 2133.0682191132687
2296.239587555716 1983.910304192923
2296.8296026843636 1985.9264554636343
2297.419475264791 1927.141530747652
2298.0092053292137 1868.1275283244254
2298.598792909839 1983.2907793592935
2299.1882380388597 2012.0427421232864
2299.777540748455 2383.606102048537
2300.3667010707904 2067.665247671158
2300.9557190380256 2230.91289571711
2301.544594682302 2400.6753004118073
2302.1333280357503 2251.782090997982
2302.721919130485 2102.7685976674693
2303.3103679986198 2311.4685811425184
2303.898674672242 2029.9048037952512
2304.486839183437 1860.8777000590549
2305.0748615642697 2033.4927708672265
2305.6627418468015 2061.428208529502
2306.2504800630704 1981.3360907113668
2306.8380762451143 2256.907363059584
2307.425530424949 2133.216369867649
2308.012842634582 2009.2248585253521
2308.6000129060103 2078.0412518917065
2309.187041271214 2371.2160332170174
2309.773927762164 1968.969006981475
2310.3606724108213 2296.9899473071478
2310.9472752491274 1915.0022268488963
2311.5337363090184 2349.956763428329
2312.120055622414 1954.0775455141713
2312.706233221221 1989.2466943580148
2313.2922691373424 2134.260779579595
2313.8781634026564 1789.9112085053825
2314.463916049037 1914.4514406251885
2315.049527108342 2012.128595068622
2315.6349966124235 2212.076402433003
2316.2203245931123 2318.4937171158394
2316.8055110822315 1685.799617598627
2317.3905561115935 1809.941162868587
2317.9754597129977 2051.7733508551887
2318.560221918229 2277.6053166900565
2319.1448427590603 1897.295916457047
2319.729322267256 1891.2478724348744
2320.313660474563 2033.1715386304845
2320.8978574127195 2138.965107410784
2321.481913113452 2245.1453572007117
2322.0658276084705 1999.6755091847797
2322.6496009294806 1985.799669726662
2323.233233108165 2281.4250158206987
2323.8167241762058 2110.383654176723
2324.4000741652617 2161.9244011932165
2324.983283106987 2218.490983078087
2325.5663510330232 2241.349871016826
2326.1492779749933 2129.293326531205
2326.7320639645204 2139.77352770782
2327.3147090332004 2411.4568808464805
2327.897213212629 1948.144405954899
2328.4795765343843 2161.403827663821
2329.0617990300307 1829.7626081170824
2329.643880731124 2306.161131725283
2330.22582166921 1991.244124500906
2330.807621875816 1727.676550786588
2331.3892813824623 2063.90645685316
2331.9708002206517 1772.2693546735597
2332.5521784218818 1836.8483976388002
2333.133416017634 1901.6410262009522
2333.7145130393765 1801.5374378271263
2334.295469518571 2396.370327324942
2334.876285486658 2306.8856814151386
2335.456960975076 2339.3215649935805
2336.037496015242 2371.8704704712227
2336.6178906385667 2095.642411214144
2337.198144876451 1913.0497411502488
2337.778258760278 1975.3354483143266
2338.3582323214214 1961.338210892977
2338.938065591243 1947.2591954631837
2339.517758601087 2133.6144248527967
2340.0973113822965 2146.258885781456
2340.676723966193 1882.865662511324
2341.255996384094 1945.2275685314587
2341.835128667295 2102.7673015326827
2342.4141208470883 2148.159293570915
2342.992972954751 1894.020420719581
2343.5716850215467 2097.0490600626745
2344.1502570787306 2025.354574114382
2344.7286891575386 1953.4217961589463
2345.3069812892045 2231.550575196977
2345.885133504944 2160.2488843533606
2346.4631458359618 1871.0311201985332
2347.04101831345 1832.196748636611
2347.6187509685915 1873.4383159163622
2348.196343832553 1789.0909584720223
2348.7737969364935 1858.2545235297835
2349.351110311558 1744.1430247150759
2349.9282839888765 1757.5261099009913
2350.5053179995757 1678.3091667147196
2351.0822123747585 1655.0724115671092
2351.658967145526 2089.103133752016
2352.2355823429643 1770.0665170026466
2352.812057998144 2103.3849932054745
2353.3883941421263 2079.9724649554246
2353.9645908059647 2056.6055323147652
2354.540648020693 2005.986498321497
2355.116565817336 2260.1733793081357
2355.6923442269126 1921.2994828632866
2356.2679832804224 2102.6704198278794
2356.8434830088518 1793.7564127367618
2357.41884344318 1781.4507013104353
2357.994064614377 1896.5942699776442
