#exp_cfg={"servo_angle": 0.0, "laser_lim": 100.0, "servo_angle_to": 18.0, "laser_wup": 0.0, "bt_dev": "EnSpectr-25AE3", "laser_wdn_max": 0.0, "frames": 10.0, "servo_used": 0, "servo_calib_use": 0, "laser_wdn_min": 0.0, "servo_pix_from": 90.0, "cooler_tout": 300.0, "servo_angle_from": 0.0, "servo_calib": "[-1.9174921013161362e-09, 3.9322238269163779e-05, -0.27385609119055809, 653.59552119713567]", "laser_autoctl": 0, "servo_pix_to": 3682.0, "laser_pw": 100.0, "cooler_on": 0, "laser_volt": 4.0, "cooler_autoctl": 0, "cooler_curr": 70.0, "cooler_startup": 10.0, "laser_fixed_pw": 0, "gain": 1.3, "offset": 2.53059635486, "servo_calib_degree": 3.0, "laser_curr": 55.0, "shutter": 8200.0, "servo_calib_step": 1.0, "laser_fixed_curr": 0, "exp": 2000.0, "ccd_volt": 4.7, "bt_addr": "00:06:66:62:5A:E3", "servo_delay": 500.0, "laser_autooff": 1}
#proc_cfg={"flat_auto_wnd": 200.0, "flat_auto_fr": 200.0, "flat_auto_shift": 5.0, "yconv": 1, "flatten": 1, "flatten_strength": 100.0, "xfrom": 300.0, "auto_max_frame": 2000.0, "auto_signal": 48000.0, "flat_auto_tol": 0.1, "autoclip": 1, "xrel_range": 0.0, "flat_auto_to": 4000.0, "intensity_adj": 1.0, "xrel": 7852.0, "rmhot": 1, "flat_auto_slit": 4.999999999999997, "auto_ini_exp": 300.0, "auto_off": 0, "xto": 2860.0, "flat_auto_ref": "", "flat_auto_rank": 1, "autobackg": 0, "xrel_adj": 0.0, "auto_black_lvl": 1, "base_wnd": 100.0, "sub_baseline": 0, "xconv": 2, "auto_max_exp": 1000.0, "auto_total_exp": 10000.0, "auto_exp": 0, "rmripple": 0, "black_lvl": 8283.0, "shutter_clip_adj": 0.0, "auto_bckg": 0, "flat_auto_thr": 0.9, "subbackg": 1}
316.8218498245369 10822.05471664562
317.89969571804795 10613.585745456508
318.977263876126 10616.275675284509
320.05455438786703 10509.393280994896
321.1315673423287 10524.235098005665
322.2083028285215 10540.91986107182
323.2847609354267 10429.209161523824
324.3609417519747 10372.65265961915
325.43684536705587 10254.31486440932
326.5124718695279 10329.423599623504
327.58782134820103 10318.706878497813
328.66289389184385 10295.814897509477
329.7376895891921 10047.167546172965
330.8122085289342 10147.207024382553
331.88645079971866 10196.42733764598
332.9604164901575 10064.680251303296
334.03410568881554 9959.75785470763
335.1075184842266 10110.632296121656
336.18065496487543 9973.614752424579
337.2535152192122 10050.693452312049
338.32609933564163 10017.712493549745
339.39840740253203 9962.682394711268
340.4704395082099 9976.045562267009
341.5421957409617 9894.235755178834
342.6136761890357 9944.739945925645
343.6848809406365 9843.643795797556
344.75581008392874 9760.370300668292
345.82646370703696 9774.50856720447
346.8968418980512 9740.797527219054
347.96694474501055 9777.7900966891
349.0367723359268 9737.436517317206
350.106324758759 9711.518603020702
351.1756021014353 9539.933205294046
352.2446044518383 9642.0035993776
353.31333189781435 9703.368034729616
354.38178452716966 9573.41111153042
355.449962427665 9573.361816664768
356.51786568702846 9527.337819754906
357.58549439294256 9706.689646954255
358.6528486330535 9700.40746624779
359.71992849496564 9551.386837250278
360.7867340662433 9647.266306753236
361.8532654344144 9688.322030530831
362.9195226869597 9659.158346350665
363.9855059113288 9605.28330460539
365.05121519492604 9445.12754502307
366.11665062511565 9593.304583337507
367.1818122892273 9601.967980531608
368.2467002745434 9591.118267202033
369.31131466831175 9606.237826445566
370.375655557742 9532.198280284047
371.4397230299983 9566.42637907424
372.5035171722102 9610.488066651176
373.5670380714637 9560.642375594125
374.6302858148101 9680.552415116397
375.6932604892554 9649.288525473381
376.7559621817709 9572.656640933095
377.81839097928605 9469.144381653965
378.8805469686886 9501.43434785798
379.94243023683157 9691.717648427191
381.0040408705263 9519.449416972126
382.0653789565458 9445.424661093864
383.1264445816196 9465.35968387088
384.1872378324406 9443.853018711148
385.2477587956637 9461.993905540467
386.3080075579037 9361.852169949052
387.3679842057336 9297.605439318348
388.4276888256918 9380.955770268605
389.48712150426945 9395.773023356676
390.54628232792857 9330.218107634942
391.6051713830857 9202.753095257307
392.66378875611736 9275.684321407425
393.7221345333637 9217.335331620507
394.7802088011249 9217.474736465834
395.838011645661 9231.042829046382
396.89554315319765 9167.017723735049
397.9528034099112 9070.118391370106
399.00979250194723 9028.21056521883
400.06651051541485 9031.121888692094
401.1229575363741 9183.01754973229
402.17913365085224 8972.558940509083
403.23503894483656 9116.518861573953
404.2906735042761 8959.240525022122
405.3460374150818 8879.704839951188
406.401130763119 8913.131461270294
407.455953634224 8958.501582831525
408.5105061141876 8889.991370518223
409.56478828876243 8747.686658052857
410.6188002436629 8694.314469796404
411.6725420645689 8681.598782561075
412.72601383711117 8726.988196392176
413.77921564689314 8794.298732998319
414.8321475794728 8678.783058772671
415.88480972036814 8703.745505455916
416.93720215506437 8709.383053486974
417.9893249690049 8631.456931284407
419.04117824759123 8530.524357255816
420.09276207619223 8527.730443680823
421.144076540133 8619.880507200089
422.1951217247042 8570.748805909312
423.24589771515275 8547.108848272404
424.2964045966928 8489.929752535554
425.34664245449494 8484.24368994583
426.3966113736933 8530.881345713333
427.4463114393875 8438.520560542409
428.49574273662984 8432.713089602608
429.5449053504417 8324.369790633818
430.5937993658026 8446.741536253341
431.6424248676558 8411.308281648335
432.6907819409007 8319.851705809579
433.73887067040596 8430.167744481823
434.7866911409965 8377.074898739378
435.8342434374608 8272.880418508716
436.88152764455117 8320.340572355819
437.9285438469724 8329.496343122952
438.9752921294057 8258.512679970463
440.02177257648145 8244.565399914907
441.06798527279716 8212.272437584501
442.1139303029122 8306.511553097482
443.1596077513459 8291.186690018603
444.2050177025794 8187.111555638234
445.25016024105753 8200.38860536132
446.2950354511886 8173.500168990811
447.33964341733736 8166.377634392482
448.383984223834 8166.908797624586
449.4280579549686 8067.274878932495
450.471864694995 8063.207793775599
451.5154045281306 8162.039386568629
452.5586775385509 8137.8151325602885
453.60168381039693 8057.439672632204
454.64442342776783 8222.753438488517
455.6868964747264 8176.1562015909585
456.7291030353008 8036.98172629546
457.77104319347563 8156.469308510593
458.8127170332027 8040.81613036264
459.854124638392 8079.305648607949
460.895266092919 8085.073125149154
461.93614148061897 8100.501908993948
462.97675088529104 8119.704364493884
464.01709439069236 8108.561954895378
465.0571720805492 8049.704663712189
466.0969840385442 8138.201926219942
467.1365303483253 8175.981132004803
468.17581109350067 8062.991849802018
469.2148263576437 8018.178639523649
470.2535762242878 8046.438029465059
471.29206077693016 8194.438607963053
472.33028009902773 8177.108145464993
473.3682342740012 8166.648274367248
474.40592338523857 8109.798051183527
475.4433475160804 8153.254019569705
476.4805067498364 8218.059147706606
477.51740116978 8219.274935229074
478.5540308591426 8299.47371103517
479.59039590112116 8467.814215431963
480.6264963788726 8413.00322963105
481.6623323755193 8608.607647281979
482.6979039741436 8574.319161336873
483.7332112577915 8837.282468171326
484.76825430947247 9072.524467867468
485.80303321215797 8959.593660672057
486.837548048783 9108.072221264667
487.8717989022425 9361.29182875885
488.90578585539697 9351.9922678431
489.9395089910686 9541.990427472923
490.97296839203955 9397.035396197793
492.00616414106116 9280.249249581577
493.0390963208429 9331.986088719012
494.0717650140559 9294.548746727332
495.10417030333883 9148.010409525941
496.1363122712901 9237.256683008829
497.16819100046814 9066.008307412652
498.1998065734024 8851.84481616405
499.2311590725767 8874.36919180801
500.26224858044407 8681.26426638458
501.2930751794156 8534.009559013175
502.3236389518679 8547.558807144063
503.35393998014115 8346.254123138893
504.38397834653733 8329.874089945843
505.4137541333221 8260.926061622627
506.4432674227228 8179.931412326188
507.4725182969323 8073.095696804177
508.5015068381035 8046.135386884484
509.53023312835467 8074.251657581226
510.55869724976765 7946.4306904439945
511.58689928438434 7930.710544469717
512.6148393142121 7864.269392926668
513.6425174212218 8039.79505940011
514.6699336873462 7951.726312650142
515.6970881944835 8019.823244922662
516.7239810244901 7994.479198389419
517.7506122591931 8102.675797034977
518.7769819803761 8062.986089284699
519.8030902697901 8139.843526622183
520.8289372091476 8032.648013048702
521.8545228801249 8244.39436985348
522.8798473643619 8152.012078212771
523.9049107434621 8087.740546029805
524.9297130989908 8176.445618417744
525.9542545124805 8049.173454178721
526.9785350654201 8045.240608690317
528.0025548392696 8155.550442239767
529.0263139154504 7990.617979420307
530.0498123753423 8038.806275720551
531.073050300296 7992.153395180544
532.0960277716204 7887.480296255055
533.1187448705896 7867.57980942141
534.1412016784416 7921.629294658841
535.1633982763833 7886.987674368899
536.1853347455726 7850.680578060472
537.2070111671401 7824.282826868938
538.2284276221817 7765.18595044279
539.2495841917516 7698.167675059633
540.2704809568677 7561.466264382269
541.2911179985167 7653.860038930232
542.3114953976419 7538.24228460966
543.3316132351592 7449.616958949383
544.3514715919409 7428.577142319793
545.3710705488247 7350.302505646592
546.3904101866156 7348.2950620597385
547.4094905860784 7362.0333727102825
548.4283118279418 7357.39101898634
549.4468739929034 7336.998947135687
550.4651771616191 7317.993549753228
551.4832214147063 7179.471239460724
552.501006832761 7241.537489199834
553.5185334963226 7194.602549879523
554.5358014859103 7228.7975950269
555.5528108820035 7214.027148200618
556.5695617650363 7100.776087652763
557.5860542154242 7214.403853913709
558.6022883135283 7138.655619395361
559.6182641396881 7155.8550696489065
560.6339817741991 7229.894925080548
561.6494412973225 7218.341524962819
562.6646427892883 7279.53687590048
563.6795863302796 7097.4418032865315
564.694272000459 7095.861851029634
565.7086998799423 7210.43187767381
566.7228700488104 7100.981418331512
567.7367825871115 7046.0046672485305
568.7504375748576 7111.59017670654
569.7638350920224 7127.011093110462
570.7769752185486 7077.642751651028
571.7898580343353 7190.024659190884
572.802483619258 7055.98355916401
573.8148520531431 7286.74502905806
574.8269634157932 7220.55476691245
575.8388177869692 7233.078815202578
576.8504152463938 7244.486347920085
577.8617558737587 7385.978662572257
578.8728397487175 7301.682348682642
579.883666950891 7370.222565226652
580.8942375598654 7560.243754642332
581.9045516551851 7589.58652787186
582.9146093163617 7830.992140403672
583.924410622878 7682.000453502417
584.9339556541727 7701.071165919309
585.9432444896538 7883.388317670705
586.9522772086875 7733.313294616528
587.9610538906127 7868.815785351864
588.9695746147318 7798.023086158362
589.9778394603054 7822.4041552315375
590.985848506567 7805.641604369315
591.9936018327098 7639.54974203842
593.0010995178891 7494.9790320320435
594.0083416412344 7593.123640828184
595.0153282818283 7348.665855186084
596.0220595187293 7400.212095032866
597.0285354309508 7327.717951238401
598.0347560974806 7223.894287670063
599.0407215972609 7176.957776132482
600.0464320092051 7164.870553628733
601.0518874121954 7211.721122596857
602.0570878850685 7100.525442301992
603.062033506636 7174.863564708004
604.0667243556636 7113.699166358665
605.0711605108936 6954.883481910326
606.0753420510264 7329.566408089022
607.0792690547278 7057.943762312027
608.082941600629 6975.4450629901285
609.0863597673306 7120.241356512002
610.0895236333909 7132.366975079705
611.0924332773357 7244.384846894934
612.0950887776617 7111.287807376752
613.0974902128219 7255.669652669565
614.0996376612384 7422.840701795822
615.1015312013005 7417.525526225059
616.1031709113595 7421.0428659596755
617.1045568697336 7452.791717558643
618.1056891547069 7499.9544307622855
619.1065678445229 7596.957591698083
620.1071930173985 7913.343793521497
621.1075647515099 7973.301419006401
622.1076831250048 8024.680009991542
623.1075482159849 8167.927375747216
624.1071601025305 8254.239640993199
625.1065188626781 8396.456201394263
626.105624574433 8695.368051368278
627.1044773157682 8779.46842316919
628.1030771646128 8800.36922408077
629.1014241988742 8962.400062773528
630.0995184964158 9086.440956852055
631.0973601350688 9187.214207764338
632.0949491926294 9404.383912112242
633.0922857468631 9142.490003564386
634.089369875499 9243.954376813706
635.0862016562278 9268.94513157693
636.0827811667077 9071.365244417466
637.0791084845641 9058.701791705866
638.0751836873878 8840.37653287118
639.0710068527369 8901.09074728717
640.0665780581294 8605.914757033639
641.0618973810506 8526.006653695264
642.0569648989604 8499.415010422224
643.0517806892676 8176.979179155302
644.0463448293649 8188.827201011069
645.040657396592 7986.180695069302
646.0347184682723 7812.066184175324
647.0285281216875 7572.070278215511
648.0220864340772 7586.641906069398
649.0153934826558 7416.717361501197
650.0084493446047 7316.368327705344
651.0012540970674 7291.706173854227
651.9938078171526 7207.973444045636
652.9861105819346 7124.883782640031
653.9781624684565 7204.984332872064
654.9699635537254 6961.149983552614
655.9615139147136 7022.998748697733
656.9528136283589 6859.7258463133785
657.9438627715699 6977.025365414513
658.9346614212154 6909.683447898281
659.925209654135 6672.180213890021
660.9155075471263 6695.28243241148
661.9055551769616 6769.774209318336
662.895352620375 6944.695887633026
663.8848999540678 6731.046614733934
664.8741972547068 6639.519194550364
665.863244598926 6616.595277070874
666.8520420633213 6649.39108282652
667.8405897244611 6604.771494949649
668.8288876588758 6466.334830665897
669.8169359430613 6632.88170840035
670.8047346534822 6639.119602593918
671.7922838665672 6460.754933908489
672.7795836587156 6626.430327641021
673.766634106285 6768.246362890563
674.7534352856092 6463.844283503578
675.7399872729766 6532.002668121428
676.7262901446538 6589.028913652209
677.712343976862 6583.5250359500715
678.6981488457986 6618.342682616775
679.6837048276229 6452.320246748484
680.6690119984596 6561.804012635746
681.6540704344043 6528.308679584597
682.6388802115107 6430.981123604554
683.6234414058108 6477.406062942511
684.6077540932874 6475.857851220169
685.591818349907 6487.007057767735
686.575634251587 6445.0534524423765
687.5592018742263 6322.373657936155
688.5425212936734 6233.153155820662
689.5255925857564 6394.658318310962
690.5084158262707 6327.716319286573
691.4909910909646 6319.491409502368
692.4733184555644 6301.082932473068
693.4553979957618 6342.047569816319
694.4372297872123 6232.727637246271
695.4188139055404 6218.960851829373
696.4001504263324 6159.241575230722
697.3812394251509 6279.915462407872
698.3620809775111 6192.944906591836
699.3426751589104 6171.514221773761
700.3230220448004 6134.210326244984
701.3031217106054 6101.5868208914035
702.2829742317172 6433.669707503507
703.2625796834873 5964.755157247268
704.2419381412474 6031.124421412299
705.22104968028 6107.964936669354
706.1999143758458 6092.929355739491
707.178532303169 6122.485402119039
708.1569035374378 6162.415478031123
709.1350281538107 6161.71276801483
710.1129062274158 6014.029930704665
711.0905378333373 6175.561253965405
712.0679230466376 6135.124032018163
713.0450619423427 6255.252654159148
714.0219545954424 6245.8548587579335
714.9986010808989 6059.19933599129
715.9750014736292 6108.051271255036
716.9511558485392 6124.05881652389
717.9270642804786 6233.537498161657
718.9027268442787 6282.459075540261
719.8781436147328 6175.270581245668
720.8533146666014 6119.95683115168
721.828240074612 6197.820537169366
722.8029199134635 6130.952399444568
723.7773542578125 6139.094394561267
724.751543182294 6137.636617965776
725.7254867615029 6220.946374530009
726.6991850700015 6016.354433441575
727.6726381823228 6159.712800697561
728.6458461729599 6113.715827519863
729.6188091163858 6071.867929039379
730.5915270870246 6098.069290360017
731.5640001592856 6011.3089710903105
732.536228407529 5984.645141800525
733.5082119060917 5995.7943214731795
734.4799507292755 6010.789333817388
735.4514449513481 5890.321608646796
736.4226946465496 6031.380866972045
737.3936998890786 6079.672458006585
738.3644607531078 5875.665535542902
739.3349773127793 5975.77285121216
740.3052496421951 5950.348654959235
741.27527781543 5838.477505954441
742.2450619065221 5831.172349678697
743.2146019894826 5935.773926008753
744.183898138288 5946.798631029305
745.1529504268801 5845.16351512962
746.1217589291682 5831.443144351465
747.0903237190341 5919.503072646288
748.058644870318 5921.236710375098
749.0267224568397 5902.25983671119
749.994556552374 5777.396739771919
750.9621472306771 5912.835974253419
751.9294945654583 5939.8651999011545
752.8965986304011 5949.573021625729
753.8634594991636 5918.144714215464
754.8300772453586 5942.976488391005
755.7964519425768 5890.470034080078
756.762583664371 6073.912336177351
757.7284724842611 6079.6576690219745
758.6941184757416 5949.1533144769
759.6595217122667 5935.00757836752
760.6246822672638 5995.044130593006
761.5896002141235 5791.404027698851
762.5542756262093 5946.423164631407
763.5187085768503 5964.539233829265
764.4828991393406 5893.808033038865
765.4468473869474 5880.82639064322
766.4105533929032 5957.298917587446
767.3740172304078 5837.437980559496
768.3372389726283 6052.768856068462
769.3002186926988 5850.724754734489
770.2629564637282 5801.299115811223
771.2254523587872 5787.295937442965
772.1877064509154 5712.378563073011
773.1497188131179 5672.048405425034
774.1114895183728 5557.274371894264
775.0730186396268 5644.517939080367
776.0343062497905 5641.054159072772
776.9953524217381 5571.798257930232
777.9561572283274 5641.025323689048
778.9167207423689 5627.7206618241225
779.8770430366476 5489.90979641954
780.8371241839159 5514.565065239185
781.7969642568951 5571.803172694431
782.7565633282757 5777.059087848234
783.7159214707099 5538.181616878908
784.6750387568281 5602.677978517071
785.6339152592227 5584.987504753515
786.5925510504512 5521.579991029705
787.5509462030477 5573.473182894084
788.5091007895098 5645.479967652587
789.4670148823006 5599.5138305220435
790.4246885538596 5549.412142592213
791.3821218765861 5536.398895361148
792.3393149228505 5452.283219320435
793.2962677649975 5597.598974214969
794.2529804753303 5659.11451662973
795.20945312613 5710.936991329804
796.1656857896378 5549.1927858813815
797.1216785380675 5493.214903019815
798.0774314435985 5695.860624131642
799.0329445783846 5826.9189013695095
799.9882180145414 5789.170094824608
800.9432518241574 5800.28233319713
801.89804607929 5926.093664295186
802.852600851962 5971.098270763492
803.8069162141637 5891.650612060746
804.760992237856 5988.289972210659
805.714828994971 6054.775848600779
806.6684265574077 6081.4651435077185
807.6217849970271 5936.611828247135
808.574904385674 5940.984845795789
809.527784795142 6012.601811934979
810.4804262972102 6141.4202593045675
811.4328289636178 5811.337353063919
812.3849928660748 5679.9340351534065
813.3369180762638 5676.821287614081
814.2886046658241 5840.461221409239
815.2400527063783 5621.705219000262
816.1912622695108 5516.77396195385
817.1422334267718 5684.2505334772695
818.0929662496856 5463.550762630365
819.0434608097457 5334.309797990877
819.9937171784059 5346.5533235106695
820.9437354271013 5407.04492101482
821.8935156272255 5509.526226934416
822.8430578501484 5316.469970452585
823.7923621672016 5173.8246885074805
824.7414286496896 5214.2306827719685
825.6902573688876 5262.4544803333965
826.6388483960363 5265.740956939288
827.5872018023492 5158.428622739228
828.5353176590033 5281.896207962494
829.4831960371503 5093.963855905307
830.4308370079016 5122.91501380707
831.3782406423525 5187.970362498728
832.3254070115545 5239.484549503136
833.2723361865319 5036.660915104676
834.2190282382799 5128.6555139604525
835.1654832377644 5112.448369600372
836.1117012559116 5019.008825252651
837.0576823636256 5220.564687475953
838.003426631778 5069.224473624674
838.9489341312074 4970.192253144878
839.8942049327197 5196.401125760189
840.8392391070975 5209.0193175258955
841.7840367250865 5057.196006717319
842.7285978573982 5024.262401586123
843.672922574724 5093.34293487716
844.6170109477152 5013.976177655243
845.560863046996 5043.601842644689
846.5044789431595 5063.4283772823455
847.4478587067697 5021.072646089716
848.3910024083561 5181.815211248546
849.333910118421 5093.272164797346
850.2765819074339 4957.266979445106
851.2190178458332 5100.019763713119
852.161218004032 5148.336310963466
853.1031824524016 5069.183433071708
854.0449112612987 5055.716427436846
854.9864045010327 5144.737241715047
855.9276622418947 4996.298459023631
856.8686845541379 5082.161714192931
857.8094715079915 5091.537037520053
858.7500231736467 5198.040963524589
859.690339621271 5166.046825546863
860.6304209209939 5125.584645400164
861.5702671429244 5074.3656477905915
862.5098783571284 5121.701700446919
863.4492546336569 5096.170274257157
864.3883960425155 5059.430223427406
865.3273026536863 5069.644949721211
866.2659745371238 4959.129540684664
867.2044117627465 5272.310453484728
868.1426144004472 5122.373580063524
869.0805825200823 5271.198019326683
870.0183161914847 5197.6391053589605
870.9558154844526 5299.737276539429
871.8930804687552 5337.54798752806
872.8301112141307 5123.383471682689
873.7669077902865 5366.193673271082
874.7034702669062 5453.764395079874
875.6397987136315 5345.605792023371
876.5758932000863 5375.161717872421
877.5117537958522 5478.695894905606
878.4473805704911 5371.647372504772
879.3827735935283 5432.368838281776
880.3179329344603 5561.913791893183
881.2528586627541 5607.575905735327
882.1875508478479 5551.084041319657
883.1220095591489 5502.759213016116
884.0562348660296 5397.748427498335
884.9902268378391 5576.8306988437425
885.9239855438955 5473.3075606030925
886.8575110534839 5387.218000082844
887.7908034358588 5416.909173206215
888.7238627602474 5394.607637581999
889.6566890958475 5481.473808494609
890.5892825118208 5153.918087654202
891.5216430773125 5331.734821014345
892.4537708614189 5340.035420888784
893.3856659332196 5162.786836153201
894.3173283617652 5023.699426479778
895.2487582160684 5195.185588441038
896.179955565116 5076.34281553756
897.110920477864 4990.392973220297
898.0416530232451 4946.819124055986
898.9721532701478 4912.836525178342
899.9024212874428 5145.497907258858
900.8324571439662 4904.828503100114
901.7622609085302 4843.118011407458
902.6918326499072 4751.981920819639
903.6211724368477 4889.667197271254
904.5502803380696 5001.288167287378
905.4791564222614 5019.4794821140595
906.4078007580792 4772.843958095302
907.3362134141571 4766.1133649289095
908.2643944590909 5004.581955155775
909.1923439614493 4736.9188337215655
910.1200619897754 4804.192070364915
911.0475486125779 5020.228011343825
911.9748038983344 4767.56346652593
912.9018279155007 4788.533154358901
913.8286207324982 4709.019155237228
914.7551824177117 4785.254499261008
915.6815130395116 4778.486939525015
916.6076126662283 4596.212321366147
917.533481366163 4710.970622956682
918.4591192075914 4744.191392414601
919.3845262587565 4808.604714296529
920.3097025878706 4757.131625311886
921.2346482631237 4705.588137259435
922.1593633526682 4706.476356110237
923.0838479246304 4741.408514729626
924.0081020471061 4892.263378611942
924.9321257881656 4593.294211773653
925.8559192158464 4747.446361464679
926.7794823981512 4568.50887521386
927.7028154030686 4601.654258198103
928.6259182985414 4592.4634021518195
929.5487911524906 4775.805771126904
930.4714340328119 4716.718177036238
931.3938470073608 4546.835338865314
932.3160301439748 4549.686969364239
933.2379835104548 4620.518327826609
934.1597071745709 4695.953597688434
935.0812012040769 4698.924456468097
936.002465666681 4734.509835382796
936.9235006300696 4754.1048676527
937.8443061619055 4750.193085314174
938.7648823298077 4583.207557957546
939.6852292013809 4586.747052514836
940.6053468441951 4695.935558702729
941.5252353257874 4474.6912487326335
942.4448947136698 4557.185611846362
943.364325075323 4585.652646684521
944.2835264782043 4572.47075025256
945.2024989897309 4532.457461735772
946.1212426773054 4559.017769179824
947.0397576082851 4669.066330559638
947.9580438500125 4735.04041642993
948.8761014697939 4701.455782474855
949.7939305349064 4673.549347128771
950.7115311125999 4498.056918974113
951.6289032700952 4417.326177811057
952.5460470745875 4688.195152697856
953.4629625932339 4464.174968362979
954.3796498931715 4563.277093679594
955.2961090415029 4567.414610585102
956.2123401053068 4515.477833106528
957.1283431516276 4556.882305446395
958.0441182474842 4454.833756740531
958.9596654598663 4665.85526896094
959.8749848557309 4609.506420315667
960.7900765020167 4535.99904168276
961.7049404656209 4408.005544843696
962.6195768134185 4516.70170977569
963.5339856122537 4570.477638969971
964.4481669289453 4650.709783741994
965.3621208302793 4543.9953192763805
966.2758473830145 4473.189716833427
967.1893466538822 4761.840899831842
968.1026187095813 4529.529800355913
969.0156636167867 4586.9760250681375
969.9284814421426 4599.1221369978075
970.8410722522622 4546.402670221203
971.753436113735 4580.138799995055
972.6655730931161 4526.733924269644
973.5774832569368 4659.304703694315
974.4891666716958 4528.391051119079
975.4006234038698 4456.764925068871
976.3118535198955 4441.745838762605
977.2228570861935 4690.319336701317
978.1336341691494 4639.782880013863
979.0441848351202 4460.551579944117
979.9545091504333 4666.241433672241
980.864607181391 4672.168007719576
981.7744789942699 4635.962347654329
982.6841246553086 4590.241440063992
983.5935442307236 4765.435383165561
984.5027377867027 4697.597873641026
985.4117053894024 4686.057702437452
986.3204471049557 4641.0233244331885
987.2289629994648 4749.13472545902
988.1372531390007 4849.726642707208
989.0453175896091 4726.447612409151
989.9531564173067 4750.278434960199
990.860769688079 4702.399034614951
991.7681574678918 4680.802448870077
992.6753198226706 4799.774511547491
993.582256818323 4760.673484216685
994.4889685207218 4719.774476306704
995.3954549957143 4939.631933992301
996.301716309119 4850.388622795486
997.2077525267232 4840.083035044375
998.1135637142943 4791.528187820541
999.0191499375615 4942.86419400367
999.924511262232 4960.413440015684
1000.8296477539861 4963.715193096649
1001.7345594784656 4789.433900104318
1002.6392465012996 4794.205355194399
1003.5437088880753 4930.131222030392
1004.4479467043584 4928.176310896104
1005.3519600156869 4630.694458963968
1006.2557488875718 4895.208243832649
1007.1593133854858 4860.1796122312135
1008.0626535748888 4757.015685371303
1008.9657695212009 4669.6691450020735
1009.8686612898182 4923.122752058951
1010.7713289461135 4929.887448912156
1011.6737725554212 4800.0049604163205
1012.5759921830577 4736.699252467045
1013.4779878943027 4798.797611053642
1014.379759754418 4849.812366180124
1015.2813078286254 4710.576878338217
1016.18263218213 4622.11870835469
1017.0837328801026 4679.415544293161
1017.9846099876886 4716.762128821424
1018.8852635700023 4657.774428982022
1019.7856936921362 4470.791586856072
1020.6859004191447 4758.606651880519
1021.5858838160675 4563.855551017289
1022.4856439479063 4527.504517602245
1023.3851808796389 4431.476035873993
1024.2844946762143 4652.866685660103
1025.183585402554 4635.037261677527
1026.082453123554 4328.802056395215
1026.9810979040776 4581.028309258282
1027.8795198089647 4387.546747007955
1028.777718903024 4544.661072063543
1029.6756952510368 4414.310184703278
1030.5734489177648 4490.403732610747
1031.4709799679313 4438.446101234543
1032.3682884662358 4684.592427401118
1033.2653744773506 4326.567004380675
1034.1622380659192 4387.86706020338
1035.058879296559 4566.212796143006
1035.9552982338591 4608.596732864216
1036.8514949423825 4596.6169708828
1037.7474694866614 4578.288000548483
1038.6432219312028 4504.039692015523
1039.5387523404825 4740.331201621019
1040.4340607789582 4687.3551920076225
1041.3291473110476 4736.248326239102
1042.2240120011465 4852.411956503913
1043.1186549136273 4881.7863965651795
1044.0130761128294 4796.417380105053
1044.9072756630649 4879.257553489372
1045.8012536286205 4995.654011178916
1046.6950100737577 5044.352461649707
1047.588545062701 5161.486638002467
1048.481858659663 5107.350743217551
1049.3749509288118 5203.7988151539685
1050.2678219343034 5022.940959069615
1051.1604717402515 5094.123827419536
1052.0529004107575 4967.515233577191
1052.9451080098825 5167.133452655209
1053.8370946016694 5052.451159085002
1054.7288602501267 5084.302441246104
1055.6204050192446 5051.822818165341
1056.511728972977 5076.8683490761405
1057.402832175254 4984.992431246328
1058.2937146899785 4842.242455440894
1059.1843765810263 4815.93958779742
1060.0748179122456 4813.715087412557
1060.9650387474576 4779.280477102545
1061.855039150456 4786.45529748957
1062.7448191850071 4708.5214334169
1063.6343789148505 4679.181540054744
1064.5237184037014 4843.180702509866
1065.412837715241 4597.937102952206
1066.3017369131267 4629.5184291405485
1067.190416060992 4637.200256545815
1068.0788752224398 4521.767652369539
1068.9671144610438 4537.475604573823
1069.8551338403558 4659.725578413461
1070.7429334239023 4589.362059764968
1071.6305132751695 4452.0250030919815
1072.517873457633 4682.253493768173
1073.4050140347335 4459.1947614656265
1074.2919350698776 4604.66615166243
1075.1786366264623 4400.092391144672
1076.0651187678395 4498.213980935782
1076.95138155735 4364.033758909989
1077.8374250582929 4301.0083575599
1078.7232493339507 4464.952129136288
1079.608854447577 4327.380467208403
1080.4942404623907 4274.360449456577
1081.3794074415982 4347.806579833726
1082.2643554483657 4366.091469469753
1083.149084545841 4282.219900925438
1084.033594797138 4167.826503203887
1084.9178862653516 4153.824283679153
1085.8019590135427 4443.936980626966
1086.6858131047484 4134.701483377715
1087.5694486019802 4254.604598892857
1088.4528655682225 4153.338005132038
1089.3360640664287 4441.288664802679
1090.2190441595321 4180.34414718511
1091.1018059104317 4275.93517702928
1091.98434938201 4301.595058813351
1092.866674637111 4327.690862528909
1093.748781738559 4241.601136961157
1094.6306707491512 4094.8147157907306
1095.5123417316554 4298.690267306221
1096.3937947488157 4167.540166218154
1097.2750298633455 4099.686874269257
1098.156047137938 4110.724412273841
1099.0368466352556 4152.959998867194
1099.9174284179317 4321.97901578382
1100.7977925485757 4080.8506958956314
1101.6779390897755 4129.671301969737
1102.5578681040806 4167.0921632805175
1103.4375796540226 4171.112459425101
1104.3170738021054 4107.305194408029
1105.1963506108077 3938.322046934184
1106.0754101425773 4019.428542142478
1106.9542524598382 4068.2762361603295
1107.8328776249855 4068.3482815788557
1108.7112857003904 3985.0255187291214
1109.5894767483987 4103.390851879048
1110.4674508313292 4239.317431463767
1111.3452080114657 4076.3623455095294
1112.2227483510815 4274.742455864291
1113.1000719124077 4294.7172426877
1113.9771787576592 4292.669132191963
1114.854068949022 4169.902276668992
1115.7307425486542 4407.8685228594995
1116.6071996186893 4436.618275605948
1117.483440221229 4617.600158051794
1118.3594644183577 4401.7630971081135
1119.235272272128 4467.653518963558
1120.1108638445658 4577.708049435739
1120.9862391976712 4763.105612215878
1121.8613983934229 4674.1762809851625
1122.7363414937627 4663.4929074508955
1123.6110685606182 4759.974000296728
1124.485579655884 4963.134299698207
1125.359874841426 4840.73484229266
1126.2339541790916 4880.921448499007
1127.1078177306936 5132.794762017665
1127.9814655580267 4872.247120716985
1128.854897722851 4961.283639312902
1129.7281142869106 4923.607190346599
1130.6011153119125 4943.069295719173
1131.473900859548 5169.077465390299
1132.3464709914697 4988.233360665055
1133.2188257693178 5038.0391730351475
1134.0909652546961 4752.637352313721
1134.96288950919 4714.028813575455
1135.8345985943506 4897.231568138572
1136.7060925717087 4568.65332371357
1137.57737150277 4696.935247244049
1138.4484354490069 4874.557148936989
1139.3192844718778 4664.741821082748
1140.1899186327992 4458.836256929714
1141.060337993178 4705.670666042894
1141.930542614382 4515.818416428549
1142.8005325577597 4455.7736060247935
1143.670307884635 4222.179130609629
1144.5398686563003 4382.7490277017805
1145.409214934025 4380.752805561625
1146.2783467790541 4125.077086237582
1147.1472642526023 4317.977298043298
1148.0159674158622 4363.385312730896
1148.8844563300026 4131.5722520671325
1149.7527310561618 4026.3194422692955
1150.6207916554504 4050.519598655696
1151.4886381889592 3983.866075179274
1152.3562707177498 4116.440450894706
1153.2236893028585 3952.1051728688662
1154.090894005296 3924.823381959337
1154.9578848860474 3970.3793592128495
1155.8246620060709 3989.1151442323217
1156.6912254262988 3768.5410495352035
1157.5575752076438 3874.319426495462
1158.42371141098 4062.396318335455
1159.2896340971656 4035.8037902886363
1160.1553433270346 3930.5514520106763
1161.0208391613887 3919.5654194359495
1161.8861216610057 3895.5842399108014
1162.75119088664 3914.0780123898003
1163.6160468990201 3805.0809367110787
1164.4806897588442 3814.9919631004036
1165.3451195267917 3968.0618624782655
1166.2093362635114 3959.535795826182
1167.0733400296285 3904.246885445624
1167.9371308857444 3787.378938518791
1168.8007088924278 3721.296201674305
1169.6640741102328 3872.998128789269
1170.5272265996773 3740.622846025588
1171.390166421259 3686.286527175872
1172.252893635452 3865.0570334324075
1173.1154083026995 3988.477122881748
1173.977710483421 3909.688733750623
1174.8398002380145 3712.992286358217
1175.7016776268483 3942.3546345196837
1176.563342710264 3802.953964369961
1177.4247955485826 3809.5019751216087
1178.2860362020947 3952.787501029893
1179.147064731069 3670.51988868793
1180.0078811957483 3870.6693784111076
1180.8684856563486 3891.2510220901822
1181.7288781730604 3780.1454308771827
1182.589058806052 3775.583749858191
1183.4490276154593 4121.434796155049
1184.3087846614017 3843.7305287406357
1185.1683300039676 3965.15763947434
1186.027663703222 4181.764831511445
1186.8867858192025 3970.3770034166955
1187.7456964119228 3980.2937635455332
1188.6043955413716 4082.586953144263
1189.4628832675116 4190.029355734675
1190.3211596502842 4238.046502069277
1191.179224749596 4251.155944553035
1192.0370786253388 4090.8341632920974
1192.8947213373758 4358.874247125235
1193.7521529455407 4440.591560081999
1194.6093735096438 4131.795653389807
1195.466383089477 4185.158643130912
1196.3231817447977 4153.205364583087
1197.1797695353398 4416.257788194834
1198.0361465208189 4050.235464495735
1198.8923127609214 4225.260078874623
1199.7482683153048 4265.958205025423
1200.6040132436028 4450.457393458708
1201.459547605431 4226.5092718475
1202.3148714603722 4304.395290394784
1203.1699848679855 4243.3404915943665
1204.0248878878065 4341.383036692866
1204.8795805793507 3947.064670894249
1205.7340630020935 4249.843660543779
1206.5883352155033 4278.865401124264
1207.4423972790064 4254.829158821027
1208.2962492520237 4099.808515257243
1209.1498911939307 4100.342594433416
1210.0033231640937 4107.428351873274
1210.8565452218427 4164.724527889403
1211.7095574264913 3858.2650784425414
1212.5623598373222 3899.0675692840946
1213.4149525135963 3833.3995610264515
1214.2673355145507 3965.050281598941
1215.1195088993936 3891.0692388192447
1215.9714727273113 3833.0099207020985
1216.8232270574663 4112.917958893392
1217.6747719489904 3705.5672230618356
1218.5261074609934 3826.912628369664
1219.3772336525653 3976.2977981756367
1220.2281505827668 3938.8847113548354
1221.0788583106296 3956.3346791169374
1221.9293568951707 3670.053471826884
1222.7796463953746 3665.9068471988458
1223.629726870202 3874.4594587421198
1224.4795983785934 3905.9266807559484
1225.3292609794553 3797.5220440920943
1226.1787147316809 3594.7292867302313
1227.0279596941327 3735.0007149759135
1227.8769959256424 3677.4026021880536
1228.7258234850306 3808.0690619384577
1229.5744424310833 3668.7142999449716
1230.422852822563 3925.1772168115167
1231.2710547182105 3984.0491074614597
1232.119048176739 3823.0935120277113
1232.9668332568417 3570.0740895673284
1233.8144100171812 3871.0071008177374
1234.6617785163999 3806.9849928916824
1235.508938813111 3532.4785610073823
1236.3558909659114 3650.3648386578266
1237.2026350333617 3894.3672256241152
1238.049171074008 3847.3327476726977
1238.8954991463652 3625.0443639713317
1239.741619308932 3814.814068010447
1240.587531620169 3812.15785475285
1241.4332361385277 3808.504595247317
1242.2787329224248 3674.5400794348366
1243.1240220302534 3654.159059970233
1243.9691035203869 3647.411096518475
1244.813977451171 3871.167600574593
1245.6586438809263 3756.7585382468906
1246.5031028679496 3506.178500350308
1247.3473544705157 3851.334506397059
1248.1913987468706 3772.6225005779406
1249.0352357552383 3500.793411434765
1249.8788655538228 3575.1572728216242
1250.7222882007918 3752.7908446089655
1251.565503754302 3743.797543310091
1252.4085122724755 3468.204972187434
1253.2513138134182 3864.1357729212978
1254.0939084352049 3704.8021498282455
1254.9362961958905 3696.3535576628783
1255.7784771535007 3692.903828163574
1256.6204513660432 3836.0048771918273
1257.4622188915 3969.62789865241
1258.3037797878242 3642.715398653975
1259.1451341129468 3604.5197896448335
1259.9862819247755 3768.3948487492717
1260.8272232811978 3679.2862079010083
1261.6679582400666 3975.519907240683
1262.5084868592203 3583.4858990180896
1263.34880919647 3645.2090875060167
1264.1889253095997 3739.4119505559333
1265.0288352563712 3889.8869649553585
1265.8685390945266 3656.6167014714033
1266.7080368817751 3850.987899319829
1267.5473286758115 3907.05798776639
1268.386414534294 3818.154917311737
1269.2252945148703 3415.7136445693914
1270.0639686751547 3561.7987194609364
1270.9024370727402 3601.101853742113
1271.7406997651997 3527.98099253302
1272.5787568100714 3422.610995834389
1273.4166082648808 3476.551923040565
1274.2542541871244 3559.449574988572
1275.091694634275 3784.549623392607
1275.9289296637817 3399.7544546120034
1276.7659593330663 3740.6398874516103
1277.6027836995308 3566.6814851516747
1278.4394028205552 3723.659788577759
1279.2758167534867 3599.8558143761584
1280.112025555658 3588.6964706983913
1280.9480292843746 3694.419638391858
1281.7838279969128 3493.315941712608
1282.6194217505326 3582.574925431914
1283.4548106024686 3375.639370418584
1284.289994609926 3516.1171505552643
1285.1249738300921 3619.3570375579557
1285.959748320127 3427.607046900511
1286.7943181371702 3525.2134857344004
1287.6286833383328 3501.310818228012
1288.4628439807038 3618.8325387773607
1289.2968001213521 3420.0874208630134
1290.1305518173194 3504.3737511759055
1290.9640991256183 3585.335947262437
1291.7974421032523 3494.4228853172235
1292.630580807183 3335.4127718715654
1293.463515294361 3635.8521597095364
1294.29624562171 3739.2343726883205
1295.12877184613 3408.3021528103177
1295.961094024493 3443.033913653374
1296.79321221365 3564.7824852317062
1297.6251264704333 3550.7538241885386
1298.4568368516466 3862.901058914204
1299.2883434140658 3637.5679512558004
1300.1196462144526 3425.2178646828615
1300.9507453095375 3684.0671524313993
1301.7816407560313 3544.4548738915755
1302.6123326106172 3607.0103850878795
1303.4428209299622 3472.5648229486533
1304.2731057707024 3831.1557759812013
1305.1031871894502 3500.1299512229634
1305.933065242798 3687.1328979388404
1306.7627399873181 3622.0845904695816
1307.5922114795467 4000.975212284438
1308.4214797760123 4156.202556506949
1309.2505449332057 3632.2166291541603
1310.0794070076026 3797.721069790646
1310.9080660556538 3904.6769140389324
1311.736522133786 3869.056241235051
1312.5647752983987 3656.863603398392
1313.3928256058734 3549.403309545252
1314.2206731125661 3789.0513035724784
1315.048317874809 3666.856108565224
1315.8757599489109 3616.0758863183437
1316.7029993911547 3703.446343784788
1317.5300362578055 3901.5266974505575
1318.356870605101 3597.288922921364
1319.183502489257 3628.852753830635
1320.0099319664623 3738.9607172395745
1320.836159092889 3827.5780906957834
1321.66218392468 3847.02111520478
1322.4880065179532 3532.346084682244
1323.3136269288134 3719.835813277493
1324.1390452133292 3889.4603216479904
1324.9642614275563 3942.970320362133
1325.7892756275214 3751.175901680673
1326.6140878692295 3597.192909385657
1327.4386982086617 4154.880580807054
1328.2631067017755 3841.958161250338
1329.0873134045069 3873.2023320120547
1329.911318372764 3752.4245332795317
1330.735121662441 3782.2210572168015
1331.558723329399 3754.538723348932
1332.3821234294774 3747.169236315436
1333.2053220185007 3800.1974088349443
1334.0283191522612 3736.2918184012633
1334.851114886529 3948.4606449419066
1335.6737092770582 3593.9408704723996
1336.4961023795695 3818.2303449564497
1337.3182942497697 3675.232808612366
1338.1402849433325 3658.7363489537347
1338.962074515921 3576.9221842028082
1339.7836630231632 3525.4759395452725
1340.6050505206676 4051.1492734653634
1341.426237064028 3946.4079514916434
1342.2472227088037 3699.981169386876
1343.0680075105338 3580.344898215594
1343.888591524741 3749.2024536895733
1344.7089748069138 3924.007030790338
1345.5291574125276 3732.7321999034843
1346.3491393970307 3525.076503422117
1347.168920815846 3837.6081265659172
1347.9885017243778 3888.829442443212
1348.8078821780036 3735.3027085079957
1349.6270622320844 3823.352765123059
1350.4460419419447 3595.535886316936
1351.2648213629054 3887.1937515751424
1352.0834005502438 3513.621452005199
1352.90177955923 3638.74413662632
1353.7199584451064 3851.2832235902015
1354.5379372630887 3815.562858974225
1355.355716068374 3725.5279993885842
1356.1732949161305 3550.706274585452
1356.9906738615155 3722.9275015758017
1357.8078529596478 3674.37657022779
1358.6248322656375 3880.324396246552
1359.441611834567 3656.6528742612345
1360.2581917214866 3909.4238123583773
1361.0745719814367 3783.3277107829117
1361.890752669433 3622.7375206760503
1362.7067338404577 3566.1675179809936
1363.5225155494845 3864.0492992201116
1364.3380978514506 3944.208533943477
1365.1534808012839 3460.260312548723
1365.9686644538815 3297.6260665057985
1366.783648864117 3794.5238553804593
1367.5984340868417 3863.3324849067017
1368.413020176893 3715.174172482918
1369.2274071890715 3542.2322140618817
1370.0415951781652 3886.8405926104883
1370.8555841989346 3726.2189272664823
1371.6693743061223 3639.1728894334947
1372.48296555444 3398.084847206327
1373.2963579985844 3695.5557429101273
1374.1095516932255 3644.33149847425
1374.9225466930166 3316.8917140976
1375.7353430525782 3739.6256975123897
1376.5479408265164 3484.5222324127208
1377.36034006941 3756.245173938432
1378.1725408358216 3715.72461430283
1378.9845431802805 3322.28848521932
1379.796347157304 3959.838671456412
1380.6079528213813 3699.902562828749
1381.4193602269788 3424.651011514731
1382.230569428546 3500.104447548931
1383.0415804805016 3826.6154931587566
1383.852393437246 3839.5985633195537
1384.6630083531563 3636.2347187501973
1385.4734252825892 3482.562715516845
1386.2836442798798 3516.806725205287
1387.0936653993322 3641.9172994747228
1387.9034886952395 3586.8332960856583
1388.713114221864 3651.6656850916747
1389.5225420334482 3690.6445393147137
1390.331772184214 3523.7311005859738
1391.1408047283585 3261.7182995308895
1391.9496397200564 3425.52769232723
1392.758277213461 3609.9385381704233
1393.5667172627054 3725.8835021946556
1394.3749599218918 3430.3254755903035
1395.1830052451114 3233.343067722406
1395.9908532864265 3451.783175067643
1396.7985040998774 3707.108243853728
1397.6059577394808 3276.824295620616
1398.4132142592352 3413.26239057254
1399.2202737131156 3369.1025503454866
1400.027136155073 3719.248965949662
1400.8338016390353 3363.5346440819826
1401.6402702189134 3399.1039949494393
1402.446541948586 3461.657097103609
1403.2526168819204 3310.7910182214764
1404.058495072757 3303.4374580820904
1404.8641765749107 3415.9485784062135
1405.6696614421799 3468.374215767257
1406.4749497283356 3822.8192659891865
1407.280041487129 3294.725549877216
1408.084936772295 3161.915617636757
1408.8896356375335 3520.650191889528
1409.6941381365323 3447.2822903014653
1410.498444322955 3135.6050753770974
1411.3025542504402 3310.0657458573014
1412.106467972606 3315.9735287328135
1412.9101855430508 3383.4766223659412
1413.7137070153458 3098.8421411998997
1414.5170324430437 3235.6550492148594
1415.320161879672 3363.33113195593
1416.1230953787435 3535.8122095501544
1416.925832993742 3141.2393943143857
1417.7283747781275 2955.6837611553137
1418.5307207853439 3269.409327151748
1419.3328710688093 3215.185752410215
1420.134825681922 2968.7878888427763
1420.9365846780584 3142.708063711757
1421.7381481105713 3349.8487930320466
1422.539516032788 3218.324501531315
1423.3406884980232 2974.3958898849114
1424.1416655595604 2910.343098069615
1424.942447270665 3082.959703004071
1425.7430336845828 3313.946295505832
1426.5434248545298 2875.917254489417
1427.3436208337116 3213.812967986571
1428.143621675301 3187.5508791097927
1428.9434274324558 3370.687540843604
1429.7430381583108 2848.8309745485994
1430.5424539059713 3040.4357062394884
1431.3416747285337 3595.475425610256
1432.1407006790632 3154.970192322361
1432.9395318106053 3203.424752289065
1433.7381681761835 2927.8133371973613
1434.5366098288014 3152.0829889603656
1435.3348568214424 3151.323576427705
1436.1329092070573 2961.6055045673675
1436.9307670385879 3099.7233136023215
1437.7284303689503 3239.782880356352
1438.5258992510335 3270.702641669314
1439.3231737377118 3117.3074215317074
1440.1202538818306 3026.7877733984483
1440.9171397362225 2999.914062594697
1441.7138313536925 2966.246087061451
1442.5103287870243 2875.5519855672037
1443.3066320889775 2837.737292909733
1444.1027413122956 3266.635624225265
1444.8986565096966 3021.950104965479
1445.694377733882 2959.852064116358
1446.4899050375207 2863.0841539115304
1447.2852384732687 3000.066112084737
1448.0803780937622 3163.5615282610825
1448.8753239516063 2827.146085923243
1449.6700760993954 2791.4782982898364
1450.464634589689 2903.6173178882227
1451.2589994750397 3288.3683215192127
1452.0531708079689 2787.4804095085547
1452.8471486409799 2814.8999102932057
1453.6409330265524 3174.321395357401
1454.4345240171442 2851.84687990678
1455.2279216651987 2764.8111871106707
1456.0211260231263 2976.2302412342533
1456.8141371433194 3278.894738083658
1457.6069550781594 3017.6513808826344
1458.3995798799897 2682.99599880132
1459.1920116011424 2910.7754282027463
1459.98425029393 2700.999324963382
1460.7762960106338 2787.868267135583
1461.5681488035225 2975.4395920334196
1462.3598087248392 3027.0125559428907
1463.1512758268036 3221.8788696754477
1463.942550161617 2779.35170860115
1464.7336317814625 2774.792348878993
1465.524520738496 3038.685975142749
1466.3152170848552 2813.54857591146
1467.1057208726506 2995.99873726691
1467.8960321539817 2731.8782181664474
1468.6861509809169 2801.4327098752233
1469.4760774055085 2845.175674368963
1470.265811479785 2942.700946402032
1471.055353255755 2730.173538075479
1471.844702785409 2734.8929306695727
1472.6338601207044 2692.690565733312
1473.4228253135934 2978.5646243974716
1474.2115984159936 2712.4008938618654
1475.0001794798063 2565.9712140346574
1475.7885685569145 2926.2762920575765
1476.576765699172 2861.8870357949945
1477.3647709584238 2769.790384744444
1478.1525843864802 3032.7756645890386
1478.9402060351367 2983.5485786728764
1479.7276359561693 3006.645482886527
1480.514874201328 2711.457864886642
1481.3019208223468 2633.729550640523
1482.0887758709323 2557.6262825880053
1482.8754393987747 3003.976606944256
1483.6619114575406 2584.9553031511464
1484.4481920988783 2829.485774546375
1485.2342813744108 2883.721790112097
1486.0201793357446 3090.943121348974
1486.8058860344572 2727.093718573946
1487.591401522117 2887.783333710433
1488.3767258502594 2697.3793754176613
1489.1618590704056 2794.80053984852
1489.9468012340494 2463.8730053448335
1490.7315523926754 2859.2156300617867
1491.5161125977356 2906.31534526886
1492.3004819006637 2871.2401849549724
1493.084660352877 2668.6264813947
1493.8686480057622 2879.485002273425
1494.6524449106964 3150.8075904070274
1495.4360511190262 3124.5722441690573
1496.219466682087 2815.8158791319497
1497.0026916511779 2945.3191270118446
1497.7857260775945 2871.0778518128536
1498.5685700125996 3002.547342128791
1499.3512235074395 2662.4736389879827
1500.133686613337 2717.3386518612706
1500.9159593814966 2768.7249308792593
1501.698041863101 2730.000150522669
1502.4799341093094 2691.3521054798452
1503.2616361712662 2616.4523735874254
1504.043148100087 2912.4434647239914
1504.8244699468742 2919.752904360846
1505.6056017626997 2677.389463847128
1506.3865435986281 2637.8216207298547
1507.1672955056893 2867.3646720208512
1507.9478575348967 2702.47513971777
1508.7282297372512 2955.601082067864
1509.5084121637192 2816.9936096198117
1510.2884048652577 2814.246474805909
1511.0682078927948 2714.21759241366
1511.8478212972423 2724.1623089313134
1512.6272451294917 2668.233264312953
1513.4064794404076 2871.3422214369148
1514.1855242808433 2911.5357229225965
1514.9643797016215 2799.002175494741
1515.743045753552 2834.139702377316
1516.5215224874191 2894.918300697329
1517.2998099539836 2460.3700885484595
1518.077908203999 2810.650283120096
1518.8558172881785 2677.0473223439003
1519.633537257234 2877.0427241187977
1520.4110681618404 2822.386420027811
1521.1884100526604 2753.1076481082087
1521.9655629803365 2773.6244680398568
1522.7425269954856 2966.6795634678465
1523.5193021487103 3156.941132888986
1524.2958884905856 2559.5540672045763
1525.0722860716687 2679.7873182928724
1525.848494942502 2628.9683824410754
1526.624515153595 2714.336131749895
1527.4003467554485 2690.428553836553
1528.175989798534 2979.4308219618615
1528.9514443333064 2801.1956275183084
1529.726710410203 3003.7952129352952
1530.5017880796331 2653.3837632113255
1531.276677391992 2719.8285093907302
1532.0513783976457 3080.5595152804076
1532.825891146953 2794.771666211069
1533.6002156902414 2863.715449338984
1534.3743520778207 2749.1744547058815
1535.1483003599806 2935.6370536060213
1535.9220605869923 2914.514293574367
1536.6956328091019 2846.441405618144
1537.4690170765407 2731.36016095725
1538.242213439511 2975.256699367464
1539.015221948208 2779.7314765725387
1539.78804265279 2756.599800833737
1540.560675603405 2607.8729481034497
1541.3331208501804 3115.695017172256
1542.1053784432224 3022.1604813241984
1542.8774484326168 2880.9836986572345
1543.649330868422 2793.733390960761
1544.4210258006842 2903.4413619977868
1545.1925332794308 2904.1354621469513
1545.9638533546604 2838.78496161549
1546.7349860763552 2747.286311051494
1547.5059314944829 3207.690771966948
1548.27668965898 2875.6374476718224
1549.0472606197673 2810.7083351081283
1549.817644426752 2781.4353277669748
1550.5878411298072 3019.0053787669767
1551.3578507787988 2919.9893212725638
1552.1276734235635 2803.767527096009
1552.8973091139233 2842.8889762544673
1553.6667578996767 3027.7140733750302
1554.436019830604 2813.450662537562
1555.20509495646 2810.9397190498066
1555.9739833269869 2811.459124166382
1556.7426849919011 2767.52055326184
1557.511200000903 3048.7019678298157
1558.2795284036674 2927.177066217842
1559.0476702498509 2797.13842681682
1559.8156255890954 2922.5392060813447
1560.5833944710157 3204.3286779746677
1561.3509769452048 2863.0167108156093
1562.1183730612447 2815.102175192356
1562.8855828686865 2800.440359969944
1563.6526064170703 3197.3602211963234
1564.4194437559127 3144.5697636836667
1565.1860949347047 2650.7930156104344
1565.9525600029283 3120.6313061527485
1566.7188390100328 3301.046204960005
1567.4849320054564 2869.0409704358194
1568.250839038612 2758.963151837218
1569.0165601588997 2831.927364365184
1569.7820954156887 3048.6069079496683
1570.5474448583373 2847.29914204909
1571.31260853618 2823.6460767605017
1572.0775864985299 2650.6950586483335
1572.8423787946813 2869.560648738204
1573.6069854739108 2744.2346984669866
1574.371406585471 2833.6254140427495
1575.1356421785986 2995.093286032789
1575.899692302506 2857.4362115286085
1576.6635570063845 2922.2401403996587
1577.4272363394157 2760.782794354872
1578.190730350747 2663.9235906447307
1578.9540390895163 2976.603048187623
1579.7171626048384 2488.274317291138
1580.480100945806 2712.683260867604
1581.2428541614918 2788.055968538738
1582.0054223009538 2808.4062975708175
1582.767805413223 2840.1831450770574
1583.5300035473156 2790.6664209834066
1584.292016752228 3054.6994044270346
1585.0538450769309 2915.877916312444
1585.8154885703807 2607.9366958323435
1586.5769472815136 2617.978336918261
1587.3382212592405 2839.125452369644
1588.099310552463 3034.3731695747188
1588.8602152100484 2972.670416741109
1589.6209352808564 3010.0670995565097
1590.3814708137234 2843.176324704383
1591.14182185746 3222.481284611662
1591.9019884608679 2737.679416224658
1592.6619706727215 2601.835089477693
1593.4217685417734 2882.167256635691
1594.1813821167616 3100.1909074120204
1594.9408114464022 2650.243317996991
1595.7000565793933 2808.29013439754
1596.459117564409 2977.1035489643073
1597.2179944501113 2750.3050477873458
1597.9766872851324 2695.2380114364773
1598.735196118092 2994.9083771720802
1599.4935209975883 2909.0871463217463
1600.2516619721973 3097.689578471333
1601.0096190904787 2768.668278601774
1601.7673924009723 2877.998530866098
1602.524981952196 2682.4920496348013
1603.2823877926476 2883.6133569730346
1604.0396099708087 2690.8734926540233
1604.7966485351371 2665.5443131863167
1605.5535035340745 2770.0232832098172
1606.3101750160404 3069.95520749371
1607.0666630294363 2704.7926547111992
1607.822967622642 2653.645924935553
1608.5790888440224 2707.2605197043986
1609.3350267419137 2927.2740138168742
1610.0907813646445 2873.784709951068
1610.8463527605145 2782.6030115712397
1611.601740977805 3020.5308973508004
1612.356946064785 2849.4292279693655
1613.1119680696902 2492.6829006061284
1613.8668070407512 2738.711663583767
1614.6214630261748 2734.9621672409144
1615.375936074137 2929.001967707852
1616.1302262328118 2783.107302047458
1616.8843335503425 2857.755923895538
1617.638258074854 2653.8585561283166
1618.391999854457 2778.6899337848763
1619.1455589372363 2904.2854577916614
1619.8989353712623 2877.6438435501664
1620.65212920458 2548.2490683964215
1621.4051404852235 2741.2040841213848
1622.1579692611976 2695.9862329213875
1622.9106155804966 2582.3988998365066
1623.663079491087 2613.770787554845
1624.4153610409248 2856.4904269177205
1625.1674602779385 2593.4528801897686
1625.9193772500403 2583.9019945487753
1626.6711120051277 3011.818202376776
1627.4226645910676 2807.692193835145
1628.174035055721 2541.265861148831
1628.9252234469168 2857.950648204026
1629.676229812474 2651.1997596946376
1630.4270542001905 3224.6369808249683
1631.1776966578382 2779.632661035705
1631.9281572331747 2720.186903519546
1632.678435973945 2974.9461736566795
1633.4285329278573 2859.4023008493195
1634.1784481426203 2444.1769556841327
1634.9281816659113 2842.5842428860105
1635.677733545388 2949.712863539381
1636.4271038286934 2655.744917927633
1637.176292563452 2857.1925300386783
1637.9252997972635 2815.774454944277
1638.674125577716 2898.2777267962233
1639.4227699523672 3142.0463023237685
1640.171232968767 2447.4387844359267
1640.9195146744423 2843.7677512332816
1641.6676151168977 3011.4645471544427
1642.4155343436178 3026.7087082032185
1643.1632724020765 2804.333737990645
1643.9108293397167 2748.6141885322368
1644.658205203974 2742.8035785125385
1645.4054000422566 2764.958219410343
1646.1524139019566 2786.9040777862065
1646.8992468304423 2680.373690177528
1647.6458988750728 2739.3724088086287
1648.3923700831765 2699.7311681063647
1649.1386605020743 2698.896234326249
1649.8847701790564 2991.3435843011266
1650.6306991614038 2863.205018540849
1651.3764474963682 2964.944978812141
1652.1220152311944 2494.2214269634146
1652.867402413096 2768.8544157281362
1653.6126090892776 2867.837302110146
1654.3576353069184 2963.6085503262343
1655.1024811131829 2885.12879384039
1655.8471465552066 2837.9153772371856
1656.5916316801213 3046.4286387475863
1657.3359365350298 2973.8109308164767
1658.0800611670165 2695.246014404006
1658.824005623148 2802.8311686498587
1659.5677699504722 2627.2970403279996
1660.3113541960192 2935.7987185639827
1661.054758406799 2687.060609569007
1661.7979826297997 2572.554123815059
1662.5410269119966 2608.2753403655443
1663.283891300338 2822.2499127242772
1664.0265758417645 2636.5403096866335
1664.7690805831826 2743.384350458088
1665.5114055714948 2903.334770971059
1666.2535508535748 3177.3793569590307
1666.9955164762814 2466.881564808614
1667.7373024864555 2645.5662997528852
1668.478908930916 2808.004256553496
1669.220335856462 2620.3639201878505
1669.9615833098778 2643.3976197707198
1670.7026513379296 2460.8943327388256
1671.44353998736 2708.660245176869
1672.1842493048916 2716.9094833131758
1672.9247793372379 2597.0947418805963
1673.6651301310812 2611.3992638778473
1674.4053017330934 2603.12188155456
1675.1452941899242 2739.3453959732
1675.885107548207 2215.026569228795
1676.6247418545518 2333.314134287268
1677.3641971555535 2453.9156303797963
1678.1034734977893 2657.810531478586
1678.8425709278108 2501.4244142732496
1679.5814894921605 2712.5145534605444
1680.320229237359 2770.577833013524
1681.0587902098978 2777.4872944027757
1681.7971724562685 2523.6519196778395
1682.5353760229264 2466.858053004536
1683.2734009563173 2683.945056060213
1684.0112473028657 2417.2417534726515
1684.7489151089794 2553.77345159435
1685.4864044210462 2606.037419980804
1686.2237152854377 2190.80493525773
1686.960847748498 2726.3613959523996
1687.6978018565642 2302.8826546177456
1688.434577655944 2345.4649949622326
1689.1711751929379 2184.3999380502537
1689.9075945138156 2420.9041447320024
1690.6438356648396 2362.821606819942
1691.3798986922448 2098.7517914168525
1692.1157836422499 2356.758472093329
1692.851490561059 2245.6926101375816
1693.587019494853 2305.5942799582913
1694.3223704897991 2067.790972960446
1695.0575435920364 2052.1716793152837
1695.792538847696 2536.6379965210367
1696.527356302886 2184.996369963237
1697.2619960036936 1985.755666300088
1697.9964579961907 2058.3887858345734
1698.730742326432 1817.258321468611
1699.4648490404488 1939.011603333988
1700.1987781842563 2094.630075643256
1700.9325298038548 2296.640964093308
1701.6661039452174 2441.0016378708883
1702.3995006543082 2195.253239003448
1703.1327199770658 2393.501552671109
1703.865761959416 2422.7730995234156
1704.598626647261 2452.2118840043267
1705.3313140864866 1967.7647951118736
1706.0638243229587 2113.8307117466393
1706.7961574025303 2249.867492704116
1707.528313371029 2226.7370855196505
1708.260292274268 1944.2684109094625
1708.9920941580403 2067.7071280645077
1709.7237190681226 2208.185523550363
1710.4551670502697 2103.744587167618
1711.18643815022 1843.5758598397558
1711.9175324136959 1960.5564568969617
1712.6484498863938 2077.7143163160276
1713.379190614005 1957.3844574732732
1714.109754642188 1947.6352694145608
1714.8401420165883 2026.4307552723608
1715.570352782839 2047.1256345129016
1716.3003869865497 2067.9403655603573
1717.0302446733076 1908.1966320548504
1717.7599258886876 2009.8269035637325
1718.4894306782444 2376.502246338562
1719.2187590875183 1869.199640308907
1719.9479111620203 2256.4976409708966
1720.6768869472544 1907.540483998576
1721.4056864887025 2306.772176448424
1722.1343098318284 2388.2065996769106
1722.8627570220742 2078.256099134739
1723.591028104871 1839.8154809709863
1724.3191231256242 1870.6444135415143
1725.0470421297232 2061.5742420037354
1725.7747851625427 2208.2429979168614
1726.5023522694337 2185.5203071482238
1727.2297434957363 2031.535539636118
1727.9569588867635 1854.679047146487
1728.6839984878152 2173.070187399537
1729.4108623441734 2157.6516933637517
1730.1375505011038 2142.4237003557128
1730.8640630038426 1925.7223370042182
1731.5903998976264 1815.5619441002714
1732.316561227657 1757.2767451307445
1733.0425470391274 1699.033893107701
1733.7683573772065 2006.8714761989675
1734.4939922870508 1978.1451541107133
1735.2194518137949 2036.763603993173
1735.9447360025606 1954.531588973894
1736.669844898439 1998.5143041092056
1737.3947785465189 1743.32490579686
1738.1195369918605 1791.4597224488757
1738.8441202795093 1928.954390431103
1739.5685284544943 2045.0927257394428
1740.292761561821 2110.7498423633624
1741.0168196464838 2092.1451732150113
1741.7407027534518 2062.7458419076347
1742.464410927687 2011.8524283310585
1743.187944214118 2000.8510907129591
1743.9113026576688 1939.2669631357828
1744.634486303241 1893.087753386221
1745.3574951957125 1900.7989145909592
1746.0803293799509 2090.296431913101
1746.8029889008048 1945.1209319326913
1747.5254738031017 2053.456759478991
1748.2477841316504 1927.3688399107875
1748.969919931249 1993.4437597081937
1749.6918812466665 1970.6899667438029
1750.4136681226646 2204.1860207680807
1751.1352806039777 2004.1440128929178
1751.856718735331 1605.1195687600289
1752.5779825614281 1683.7673169468137
1753.2990721269507 2018.4821303941767
1754.0199874765676 2002.0973811996096
1754.7407286549314 1761.9613972089453
1755.4612957066693 1947.1947900865064
1756.1816886763954 1687.4809919779022
1756.9019076087097 1927.348951978549
1757.6219525481865 1978.0774571736129
1758.3418235393856 1969.9383901966962
1759.061520626854 1951.4300796916893
1759.7810438551096 2225.811983408644
1760.5003932686614 1760.403538895164
1761.2195689119999 2166.6521060364053
1761.938570829594 2004.5110380687445
1762.657399065898 1850.1707844895195
1763.376053665348 1662.7846213417674
1764.0945346723602 1680.4526549111567
1764.812842131334 1663.6598489795088
1765.5309760866512 1646.9534699836718
1766.2489365826787 1679.9632584912765
1766.9667236637597 1880.3448825639239
1767.684337374223 1511.1055788836586
1768.401777758383 1630.4469382421244
1769.1190448605284 1771.4675437225021
1769.836138724937 1679.9590368971901
1770.5530593958665 1874.574527325392
1771.2698069175603 2208.574399832476
1771.9863813342326 2039.35874313076
1772.702782690094 1821.1364430008766
1773.4190110293293 1928.105733076148
1774.1350663961111 2027.1420069935011
1774.8509488345844 1775.8993310990663
1775.5666583888924 1976.0679333367523
1776.2821951031437 2069.3541060017337
1776.9975590214362 1837.2860230238343
1777.7127501878585 2127.423780099934
1778.4277686464684 2032.894249666037
1779.1426144413108 2149.9046518018
1779.8572876164162 2135.70499932144
1780.571788215797 1695.3243126991347
1781.2861162834415 1877.772022213554
1782.0002718633277 1726.8085512446057
1782.7142549994132 2024.8279108083316
1783.4280657356376 1968.7366866592565
1784.141704115922 1834.9797034190972
1784.855170184177 1824.3849759204663
1785.5684639842839 1904.1437195262938
1786.2815855601148 1954.0259652549544
1786.9945349555237 2003.9656744972478
1787.707312214343 1696.9654472817747
1788.4199173803918 1676.8778935861014
1789.132350497468 1656.9015401863792
1789.8446116093583 1790.0830573176277
1790.556700759822 1710.7184097302863
1791.2686179926077 1758.9999275169637
1791.9803633514493 1788.6846034242935
1792.6919368800554 1576.204240250351
1793.4033386221236 1972.2697730861448
1794.1145686213295 2082.2766252565752
1794.8256269213307 2205.5718193932225
1795.536513565774 1837.686866914762
1796.247228598284 1637.9198004003088
1796.9577720624693 1735.6469444726413
1797.6681440019165 1831.9084611795229
1798.3783444602013 1882.2548552382075
1799.0883734808776 2011.6458608137596
1799.7982311074884 1962.373844024854
1800.5079173835475 1931.8625389926929
1801.2174323525633 1974.628358046613
1801.9267760580187 1812.534840358143
1802.635948543386 1907.1409924257048
1803.3449498521113 1686.7439954924969
1804.0537800276325 2027.871351564693
1804.7624391133668 1803.9170326243943
1805.47092715271 1578.0462035901382
1806.1792441890484 1618.8676470039602
1806.8873902657433 1962.5840483269778
1807.5953654261448 1874.3084558857868
1808.3031697135812 1627.2583154214553
1809.0108031713662 1682.4630489853619
1809.71826584279 1744.3638056051136
1810.425557771141 1852.0702117847754
1811.1326789996747 1796.1307658426365
1811.839629571632 1740.0283025945766
1812.5464095302468 1733.3885983013722
1813.2530189187182 1737.5120573746622
1813.959457780249 1697.3561612190879
1814.6657261580076 2072.110347113402
1815.371824095153 1847.4509052604694
1816.0777516348262 1607.5959458909203
1816.78350882015 1819.0357872831541
1817.4890956942272 1660.1909952235067
1818.1945123001533 1778.2549363002017
1818.8997586809928 1666.199305294122
1819.6048348798067 1626.0793881498607
1820.3097409396287 1747.6797163642568
1821.0144769034796 2228.3261724611957
1821.7190428143622 1978.4424381145632
1822.423438715261 1966.6367137780148
1823.1276646491478 1765.767830899018
1823.8317206589727 1883.8804008773761
1824.5356067876692 1798.6574181958954
1825.2393230781581 1871.342755942405
1825.942869573335 1553.167778161267
1826.646246316086 1673.7294934736224
1827.3494533492758 1918.8163429201272
1828.052490715756 1761.983923183597
1828.7553584583547 1809.566606092599
1829.458056619891 1909.4081305448083
1830.1605852431585 1832.5857224149713
1830.8629443709433 1588.1892471952358
1831.5651340460063 1851.7405565296958
1832.2671543110919 1643.571910046237
1832.9690052089318 1899.1722061394412
1833.6706867822395 1569.517217891401
1834.3721990737104 1947.2991195916438
1835.0735421260233 1902.4513313419423
1835.774715981841 1819.7744225137315
1836.4757206838058 2075.3308722307056
1837.1765562745459 1730.602438755193
1837.8772227966747 1607.9340330720722
1838.5777202927839 1677.7445973875515
1839.2780488054523 1673.9922023521995
1839.9782083772352 1617.4017579470233
1840.6781990506806 2008.4708165880934
1841.378020868313 1798.3025949283656
1842.0776738726418 1784.981236729754
1842.777158106157 1660.4320356851117
1843.4764736113375 1630.7511879014887
1844.1756204306403 1913.577182913549
1844.8745986065078 1787.1739337967392
1845.5734081813607 1574.2148618971187
1846.2720491976124 1688.8749274234342
1846.970521697649 1570.2180155418123
1847.6688257238511 1775.6574861013482
1848.3669613185684 1749.0827283665876
1849.0649285241452 1441.160007359168
1849.7627273829057 1733.200843725913
1850.460357937156 1699.250502765833
1851.1578202291857 1395.1590421830588
1851.8551143012664 1711.5651037432858
1852.5522401956569 1706.1912312928882
1853.2491979545957 1939.6809969259841
1853.9459876203055 1554.3759772737044
1854.6426092349902 1641.2371923312828
1855.3390628408451 1592.188099978995
1856.0353484800362 1941.8180169451903
1856.7314661947203 1799.0797262798774
1857.4274160270397 1598.288559516393
1858.123198019115 1696.4059539679579
1858.8188122130487 1532.4541226907058
1859.5142586509319 1762.3110129337463
1860.209537374838 1768.018273946061
1860.9046484268183 1714.7275767134324
1861.599591848917 1970.378852263379
1862.294367683151 1669.521571161702
1862.988975971528 1735.9394719218453
1863.6834167560355 1765.8921216567499
1864.3776900786452 1916.8894129625194
1865.0717959813119 1681.2696037842784
1865.7657345059724 1592.6794487630636
1866.4595056945564 1774.478214796232
1867.1531095889586 1781.1029586593372
1867.846546231076 1506.4022613958236
1868.5398156627743 1590.7717646466958
1869.2329179259123 1675.305374136753
1869.9258530623283 1607.969856504588
1870.618621113843 1540.486040773649
1871.3112221222636 1592.6370655447163
1872.0036561293764 1549.9655927029476
1872.695923176956 1717.2634870415404
1873.3880233067594 1895.351815239052
1874.0799565605212 1528.8231992325932
1874.7717229799673 1581.9757289845875
1875.4633226068036 1976.4397363438438
1876.1547554827175 1821.8598545462864
1876.8460216493859 1561.9516223044466
1877.5371211484617 1679.8865833864675
1878.2280540215852 1590.138492231358
1878.9188203103804 1500.222030451938
1879.6094200564548 1651.115932034416
1880.299853301396 1547.7691674151397
1880.9901200867826 1871.0189277694876
1881.6802204541673 1775.6325634150703
1882.3701544450942 1856.0147534578086
1883.059922101087 1401.178104520192
1883.7495234636517 1488.9181869737517
1884.4389585742792 1576.754860498956
1885.1282274744517 1516.3310283970563
1885.8173302056166 1667.1352133769622
1886.506266809225 1818.1432181038558
1887.195037326701 1500.636454006521
1887.8836417994517 1628.5553552361594
1888.5720802688702 1998.1022928645482
1889.260352776333 1885.9564969528092
1889.9484593632042 1962.6277946968592
1890.63640007082 1644.2503842311235
1891.3241749405151 1581.9048073960969
1892.0117840135954 1834.5513958662657
1892.6992273313572 1674.3717335471688
1893.3865049350788 1541.7870733244667
1894.0736168660223 1646.9665634781613
1894.7605631654333 1752.2532636817843
1895.4473438745408 1514.7051477889786
1896.133959034556 1848.4958805385613
1896.820408686679 1745.879950134956
1897.506692872088 1723.890813520035
1898.192811631945 1701.8432804717158
1898.8787650073991 1625.0988823526757
1899.5645530395832 1952.6365440022084
1900.2501757696118 1811.8447237734338
1900.9356332385796 1958.120517921538
1901.620925487574 1592.1257469256395
1902.3060525576602 1748.267493923749
1902.9910144898859 1807.188160164703
1903.6758113252872 1531.7531816875673
1904.3604431048789 1810.0915101325602
1905.0449098696663 1898.646230235036
1905.7292116606295 1603.3823322881362
1906.4133485187394 1787.7936170745488
1907.0973204849488 1422.2400471334581
1907.7811276001976 1456.7067841599408
1908.4647699053967 1699.1527045630319
1909.1482474414588 1608.6846802986909
1909.8315602492694 1517.9624228632206
1910.5147083696957 1843.622220465358
1911.1976918436012 1638.2846159558553
1911.880510711815 1432.5303534487834
1912.5631650151681 1473.659476085049
1913.2456547944657 1514.80849639765
1913.927980090495 1519.5679175910716
1914.6101409440362 1555.7128098936878
1915.2921373958416 1747.076280110591
1915.9739694866603 1648.5471672063911
1916.655637257214 1832.9167187903986
1917.3371407482136 1727.8640194689647
1918.0184800003572 1857.9176085016916
1918.6996550543154 1823.1155896983048
1919.3806659507554 1769.6340405957103
1920.0615127303208 1613.8885375714385
1920.7421954336423 1877.6581816390276
1921.4227141013343 2071.031220368122
1922.103068773993 1727.1959674952454
1922.783259492202 1878.826370023916
1923.4632862965227 1537.3879996651915
1924.1431492275078 1614.7193713321858
1924.8228483256917 1492.7926231688084
1925.5023836315922 1625.382127088057
1926.1817551857057 1823.5713752827905
1926.8609630285227 1616.269609574142
1927.5400072005123 1863.9974700579405
1928.218887742125 1589.633559381993
1928.8976046938005 1477.8362296720948
1929.5761580959588 1895.683474355028
1930.2545479890086 1707.226820866104
1930.9327744133352 1308.8604727817951
1931.6108374093164 1641.5982067621321
1932.2887370173066 1507.896388317396
1932.9664732776473 1901.031634109567
1933.6440462306673 1787.0442880632
1934.3214559166754 1737.0063032989287
1934.9987023759659 1949.8436537579523
1935.675785648813 1822.1120838635743
1936.3527057754836 1931.1491988606153
1937.029462796223 2040.435532845592
1937.70605675126 1532.3906972134387
1938.3824876808085 1587.3505805298098
1939.058755625072 1670.084208494866
1939.7348606242267 1563.3093545535025
1940.4108027184448 1679.649414692613
1941.0865819478713 1835.4343351974217
1941.7621983526478 1602.198817252824
1942.4376519728921 1514.9516898007826
1943.1129428487038 1782.2535896402956
1943.7880710201734 1865.8089397097574
1944.4630365273733 1787.0949841058919
1945.1378394103576 1448.4320214034283
1945.8124797091714 1383.9347983526318
1946.4869574638324 1319.2611239231617
1947.161272714353 1491.2716425497533
1947.8354255007234 1483.4735887189463
1948.5094158629272 1475.6347818372346
1949.1832438409183 1754.6004274397524
1949.8569094746435 1888.8235984681658
1950.530412804037 1941.875688918095
1951.2037538690092 1872.7985591771335
1951.8769327094578 1508.4390592653567
1952.5499493652678 1683.655203206047
1953.222803876306 1897.0189886197077
1953.895496282421 1803.1007233810647
1954.5680266234522 1781.9904404261572
1955.2403949392155 1697.427793806001
1955.9126012695142 1406.9392980627747
1956.5846456541403 1644.9504210351217
1957.2565281328643 1670.425966380649
1957.9282487454457 1862.0933956056317
1958.5998075316202 1814.5466822238723
1959.27120453112 1508.6691872907654
1959.9424397836501 1583.3184125233888
1960.613513328908 1813.946719898397
1961.2844252065697 1600.5845575480198
1961.9551754563017 1746.6184201195272
1962.6257641177453 1550.9302861659905
1963.29619123054 1540.1944274549232
1963.966456834296 1533.3001004283835
1964.6365609686181 1467.2828933368583
1965.306503673086 1770.4415518344645
1965.976284987275 1483.669437032766
1966.645904950734 1615.536862782716
1967.315363603002 1378.6010490290305
1967.9846609836077 1584.4253886975216
1968.6537971320486 1607.7254535682546
1969.3227720878222 1701.0789118708112
1969.9915858904042 1665.0687565938206
1970.660238579252 1746.6470955468424
1971.3287301938108 1557.5563614703808
1971.997060773514 1547.445092764319
1972.665230357772 1484.0750406733937
1973.3332389859843 1619.8343691381094
1974.0010866975335 1414.0257442209925
1974.6687735317864 1643.4019755391905
1975.3362995280932 1723.262720353256
1976.003664725793 1774.3681517764314
1976.6708691642052 1403.8145586159005
1977.3379128826364 1609.7470398635874
1978.004795920373 1862.6355328286343
1978.6715183166925 1602.6886250203563
1979.3380801108524 1757.1085936026836
1980.0044813420973 1550.7012402339456
1980.6707220496555 1366.0808758360074
1981.3368022727373 1746.6186519261469
1982.0027220505417 1862.9980700355027
1982.66848142225 1165.321800493724
1983.3340804270283 1282.6081792357268
1983.999519104027 1624.7236071365433
1984.6647974923835 1710.661044462612
1985.329915631215 1832.9145146451647
1985.99487355963 1629.5867055120495
1986.6596713167146 1831.3745266158585
1987.3243089415428 1456.2782824939386
1987.9887864731754 1869.8674277323942
1988.6531039506553 1466.8428266124752
1989.3172614130071 1495.362935750217
1989.9812588992481 1523.9558220640115
1990.645096448372 1194.502298713343
1991.3087740993633 1545.932791378617
1991.9722918911848 1524.0461830830118
1992.635649862792 1673.577599700091
1993.2988480531185 1601.0500375433223
1993.9618865010852 1529.9597816978915
1994.6247652455968 1458.7935685464354
1995.287484325545 1563.255471190741
1995.9500437798033 1489.5732984066858
1996.6124436472292 1619.9666126043865
1997.2746839666706 1790.5711522174201
1997.936764776954 1530.7524761667444
1998.598686116895 1533.6179916276787
1999.2604480252903 1978.5910540737939
1999.9220505409212 1787.772981554619
2000.5834937025593 1376.409391212026
2001.2447775489582 1586.7382305503393
2001.9059021188514 1665.494623735307
2002.5668674509616 1474.1166767758891
2003.2276735839987 1529.941056743127
2003.8883205566508 1811.8834510528827
2004.5488084075987 1508.3000355126294
2005.2091371755014 1601.3577721196955
2005.8693068990033 1339.706776890902
2006.5293176167397 1346.9999696472373
2007.1891693673224 1354.4271890253945
2007.848862189354 1366.140636971429
2008.5083961214223 1613.764965554599
2009.1677712020955 1508.5182583230746
2009.8269874699254 1399.999253248055
2010.4860449634598 1390.323923848357
2011.1449437212177 1380.7051916363112
2011.8036837817108 1916.7658158333911
2012.4622651834325 1806.490932505416
2013.1206879648653 1752.5761534466612
2013.7789521644736 1846.5846098437553
2014.4370578207036 1707.448555380112
2015.0950049719922 1567.8661797218188
2015.7527936567585 1840.2173540097604
2016.4104239134067 1483.7818810253787
2017.067895780323 1454.1709183503785
2017.725209295886 1424.4329747784639
2018.3823644984514 1846.4429425173698
2019.0393614263648 1673.7027748934438
2019.6962001179545 1483.4538873151419
2020.3528806115355 1912.5368154799785
2021.0094029454067 1721.0344787966274
2021.6657671578487 1463.8927392558867
2022.321973287133 1572.9074885659845
2022.9780213715148 1544.1446532065663
2023.6339114492293 1580.814582246109
2024.2896435585026 1616.6181865189958
2024.9452177375442 1666.609391089003
2025.600634024544 1870.9802814191214
2026.2558924576842 1712.2105080686026
2026.9109930751292 1883.8905288565409
2027.565935915025 1893.0963155841775
2028.2207210155066 1902.3101978733114
2028.8753484146964 2044.6849241600314
2029.529818150695 1964.7613339737516
2030.1841302615903 1884.4517667770438
2030.8382847854573 1358.602303954502
2031.4922817603601 1766.3402494593677
2032.1461212243357 1675.5161016439465
2032.7998032154192 1395.6476644830125
2033.4533277716218 1506.8681128771047
2034.1066949309443 1410.4809243478587
2034.7599047313688 1394.0716022671597
2035.4129572108704 1498.6061169560742
2036.0658524074006 1603.261357288066
2036.7185903589016 1626.531594933204
2037.3711711032956 1820.8884362362528
2038.023594678496 1667.9404252819907
2038.675861122394 1338.0490271477097
2039.3279704728757 1410.870783393151
2039.9799227678031 1483.9884208462267
2040.6317180450278 1642.2242694629738
2041.2833563423865 1553.2763986057523
2041.9348376977014 1902.1722239734215
2042.5861621487784 1744.215827613579
2043.2373297334088 1829.8473392212898
2043.8883404893695 1713.556208218923
2044.5391944544208 1853.740531998736
2045.1898916663158 1762.6008791857519
2045.8404321627804 1555.3483263744108
2046.4908159815368 1745.6423990286814
2047.1410431602853 1549.0054374483775
2047.7911137367173 1411.99866657436
2048.441027748504 1422.8009475160623
2049.090785233302 1433.5606423444842
2049.7403862287592 1390.4261622105491
2050.389830772503 1359.6175545023411
2051.0391189021466 1328.8183164056468
2051.688250655294 1645.4000967837087
2052.337226069527 1347.197481644604
2052.986045182417 1725.1698198167978
2053.634708031521 1725.9228315407763
2054.283214654375 1726.7933061017145
2054.931565088511 1429.2948158943484
2055.579759371436 1325.5172642884638
2056.2277975406523 1624.9917343256957
2056.8756796336384 1466.706701905346
2057.5234056878617 1308.0207086031953
2058.1709757407752 1506.7797957983332
2058.8183898298194 1868.5878378500402
2059.465647992416 1799.883411525248
2060.1127502659747 2027.8759176153649
2060.759696687888 1898.338506760451
2061.4064872955405 1768.7911095837378
2062.053122126292 1914.145325954205
2062.699601217497 1722.955487816003
2063.345924606485 1531.7830468892512
2063.992092330587 1744.4318679827975
2064.638104427102 1464.7898662871075
2065.283960933324 1554.5043531336846
2065.92966188653 1644.3144180455972
2066.5752073239855 1921.129210721207
2067.2205972829397 1809.426353937744
2067.86583180062 1697.6377826621138
2068.5109109142522 1470.8542423272443
2069.15583466104 1625.208112243626
2069.8006030781708 1308.2314775281243
2070.445216202821 1574.3051072737676
2071.089674072153 1820.0909245121256
2071.7339767233116 1694.333941313545
2072.3781241934303 1614.1119275758085
2073.0221165196253 1651.4190349625824
2073.6659537390024 1518.654077372418
2074.3096358886505 1798.3177296762358
2074.953163005637 1519.2635546301076
2075.596535127028 1253.6373608956278
2076.2397522898664 1362.0537048144472
2076.882814531182 1493.5253861917513
2077.5257218879924 1422.8414122805166
2078.1684743973 1352.056150670853
2078.8110720960885 1482.5891143925323
2079.453515021336 1579.943942556964
2080.095803209997 1677.3685453772446
2080.7379366990135 1689.7676978226907
2081.37991552532 1633.1186815725882
2082.0217397258275 1637.3872368557456
2082.6634093374414 1630.1666759548402
2083.3049243970418 1623.0051565904255
2083.9462849415067 1830.3667200362802
2084.587491007689 1598.6210077045585
2085.2285426324324 1584.8583121901204
2085.869439852564 1588.4962919152729
2086.510182704902 1530.8958245409356
2087.1507712262483 1521.8153896544559
2087.791205453381 1337.7589393903952
2088.4314854230743 1736.5640481074763
2089.0716111720867 1611.5033185864618
2089.7115827371617 1257.4632224556367
2090.351400155023 1366.64815701916
2090.991063462385 1476.096682316233
2091.6305726959527 1229.4817538351358
2092.2699278924047 1342.068515619972
2092.9091290884153 1454.9421529039118
2093.548176320641 1375.9138343922123
2094.187069625721 1762.2003503443102
2094.8258090402887 1772.9153278139886
2095.464394600951 1783.6558730852926
2096.102826344313 1541.5558675469686
2096.741104306955 1727.6967633373938
2097.379228525453 1366.2334553322487
2098.017199036358 1319.4832280667283
2098.6550158762147 1721.6693992289925
2099.2926790815527 1789.627128909581
2099.9301886888825 1575.4004482439466
2100.5675447347076 1580.6263010867406
2101.2047472555114 1811.9383514531178
2101.841796287761 1542.510769972913
2102.47869186792 1558.3937175169924
2103.1154340324265 1456.765562590942
2103.752022817709 1573.6657392288653
2104.388458260184 1594.4347719005325
2105.024740396251 1534.2505569905343
2105.660869262292 1556.2524992468482
2106.296844894685 1555.6427515099158
2106.93266732978 1555.0692836073279
2107.5683366039284 1297.189954367789
2108.2038527534532 1629.5327891156949
2108.8392158146726 1791.1417277567743
2109.4744258238843 1384.9236342765441
2110.1094828173755 1587.584739656276
2110.744386831422 1633.0045864313547
2111.3791379022787 1678.5696289350421
2112.01373606619 1909.0470472733377
2112.648181359389 1650.3673432524592
2113.28247381809 1829.3055861503217
2113.916613478492 1777.0684559330377
2114.550600376786 1673.6282663878203
2115.1844345491445 1516.3739161495967
2115.818116031729 1420.72039739951
2116.451644860679 1630.4700896402928
2117.085021072133 1301.7113974676977
2117.718244702204 1493.3029558860471
2118.3513157869984 1453.1133053986364
2118.984234362604 1421.342415935769
2119.617000465092 1433.5046468376413
2120.249614130529 1529.5209104175983
2120.8820753949585 1625.691358783666
2121.5143842944162 1494.587290048758
2122.14654086492 1464.0066944333282
2122.7785451424734 1652.2086601376293
2123.4103971630702 1672.486278225789
2124.042096962681 1692.995038325846
2124.6736445772767 1920.8706542848074
2125.305040042802 1478.9631251340304
2125.936283395191 1478.5027105217728
2126.567374670365 1679.772333664399
2127.198313904233 1575.2180724538416
2127.8291011326855 1500.01787901771
2128.4597363916037 1424.4820979179674
2129.0902197168507 1485.405560809813
2129.720551144279 1384.5391384234358
2130.3507307097225 1918.4347309514408
2130.980758449008 1955.7981597579615
2131.6106343979427 1937.6260720652558
2132.2403585923203 1919.333221998965
2132.8699310679276 1881.6082524669941
2133.499351860526 1791.373461695531
2134.1286210058715 1561.1476826713401
2134.7577385397053 1765.0437740459984
2135.3867044977487 1969.2406518601115
2136.0155189157176 1935.4289548467937
2136.644181829308 1927.9948313084085
2137.2726932742025 1594.8650553600344
2137.901053286074 1474.4992089702673
2138.5292619005777 1353.9976955717702
2139.1573191533535 1363.979980207689
2139.7852250800315 1880.7383983645996
2140.4129797162295 1790.597519921234
2141.0405830975433 1390.4248653620537
2141.6680352595613 1415.0748498572907
2142.2953362378576 1439.7881651381754
2142.9224860679915 1439.9270719700658
2143.549484785508 1533.6521911087066
2144.1763324259373 1594.6386780140633
2144.803029024799 1575.8733042916942
2145.429574617594 1398.4737259723338
2146.0559692398165 1415.4978473577512
2146.682212926942 1432.4325326492867
2147.308305714432 1474.0625003065854
2147.9342476377333 1843.7807830476381
2148.5600387322847 2026.8305094304026
2149.185679033506 1628.2388947501886
2149.8111685768017 1552.8752111047506
2150.4365073975678 1406.1372381649076
2151.061695531187 1529.8724310607265
2151.686733013021 1941.4072796565458
2152.311619878423 1786.1177179483245
2152.9363561627342 1458.996043348327
2153.560941901278 1392.5509111515207
2154.1853771293663 1613.1508369375729
2154.809661882293 1746.6514355664644
2155.433796195348 2018.8350403868997
2156.0577801037944 1971.0920678497891
2156.681613642895 1923.1030204195176
2157.3052968478896 1469.8049697299002
2157.928829754006 1786.8658082444654
2158.552212396462 1745.1034119465264
2159.1754448104566 1758.80397647276
2159.7985270311783 1399.0183351433052
2160.4214590938027 1020.8777994889986
2161.0442410334927 1077.1526849152233
2161.6668728853874 1273.7334013313498
2162.289354684628 1470.7164074606492
2162.911686466332 1479.8234370622918
2163.533868265602 1865.7641069578651
2164.1559001175337 2131.7761484577513
2164.7777820572046 1736.5870361355378
2165.399514119681 1602.9389327993472
2166.021096340013 1449.5765108742366
2166.6425287532384 1903.2093222006374
2167.263811394385 1301.0133351949132
2167.8849442984574 1844.0963433236616
2168.505927500455 1351.8326312914883
2169.126761035366 1674.5215374516697
2169.7474449381552 1457.0327645954562
2170.367979243778 1643.5025228845636
2170.9883639871823 1830.5456201379282
2171.608599203293 1473.480358204472
2172.2286849270276 2126.009890196506
2172.8486211932886 2299.9105750143267
2173.4684080369625 1658.566393433691
2174.0880454929265 1318.961188361026
2174.7075335960417 1188.5097988401533
2175.3268723811543 1297.1213100454495
2175.9460618831 1406.0246369517574
2176.565102136701 1760.539729174922
2177.1839931767627 1670.5754339350478
2177.802735038078 1580.3973728872822
2178.421327755432 1453.367372120622
2179.0397713635866 1415.2830652480102
2179.658065897298 1442.4472146719
2180.276211391305 1459.5858441413882
2180.8942078803357 1476.6905066475226
2181.5120553991 1734.1949434250873
2182.129753982299 1648.967910622147
2182.7473036646206 1563.5581922026172
2183.3647044807367 1695.7120396711337
2183.9819564653044 1392.2871022526829
2184.599059652968 1459.9996197898386
2185.216014078367 1749.105646432649
2185.832819776113 1793.7691454279109
2186.4494767808137 1838.4360280868798
2187.065985127063 1507.4501181576325
2187.682344849436 1458.7955725451284
2188.298555982501 1519.0813359214874
2188.9146185608097 1579.374253619815
2189.530532618901 1655.3472474861578
2190.1462981912937 1825.2421864924413
2190.761915312507 1749.2298297401758
2191.377384017036 1654.0971841965686
2191.9927043393654 1682.896532392328
2192.6078763139667 1231.5953643285459
2193.2228999753006 1381.6819816155983
2193.837775357808 1532.0960888927186
2194.452502495922 1201.1337323939426
2195.0670814240602 1690.0110797596342
2195.6815121766285 1261.1611643689162
2196.2957947880186 1226.0572690816116
2196.9099292926057 1190.886776588016
2197.523915724758 1575.8431511624178
2198.137754118825 1490.7752511865483
2198.7514445091456 2003.789906217192
2199.3649869300443 2090.2613649219984
2199.9783814158327 2177.0225734340224
2200.5916280008096 2199.049763829484
2201.2047267192593 1981.577234895495
2201.8176776054515 1817.6676192708887
2202.430480693649 1446.4761603589197
2203.0431360180955 1784.794497966363
2203.6556436130195 1869.2790217313286
2204.268003512645 1110.6761302413424
2204.8802157511727 1494.7216707010962
2205.492280362796 1502.4723074019496
2206.1041973816937 1510.282227101165
2206.715966842032 1564.3776543250628
2207.3275887779655 1702.7947347151799
2207.93906322363 1748.6315073643134
2208.550390213153 1807.0015651408605
2209.1615697806465 1803.1941849356742
2209.7726019602105 1345.0087437543486
2210.3834867859277 1281.0257466779703
2210.9942242918787 1516.1308236225836
2211.6048145121167 1643.9669501303895
2212.2152574806914 2393.663537642788
2212.825553231638 2402.464117319144
2213.435701798975 2411.4287753693457
2214.045703216707 1712.2648357502817
2214.655557518832 1226.2775824182784
2215.2652647393297 1423.0151746618226
2215.874824912169 1228.6478097842235
2216.4842380713 1734.4597091927492
2217.09350425067 1334.015989960646
2217.7026234842033 1969.558667675698
2218.311595805819 1882.1874481979346
2218.9204212494133 1574.607477972202
2219.52909984888 2071.015922016076
2220.137631638092 1935.8430730046734
2220.7460166509154 1800.2676488487145
2221.354254921198 1496.580832920435
2221.9623464827764 1645.8008846086564
2222.5702913694713 1736.3904071293225
2223.178089615096 1845.8450097470836
2223.7857412534486 1421.5633348806373
2224.39324631831 1231.2894879005905
2225.000604843457 1416.953647491529
2225.607816862641 1959.3204279507195
2226.214882409611 1887.23623376165
2226.8218015180973 1882.841885347158
2227.4285742218217 1622.3117186067225
2228.0352005544864 1624.725555842229
2228.6416805497847 1210.0739780051208
2229.248014241399 1714.840194248969
2229.8542016629945 1235.9887771769943
2230.460242848223 1736.9852077049618
2231.0661378307304 1593.6091117853646
2231.671886644139 1450.1083156085795
2232.277489322065 1276.6764762838034
2232.8829458981127 1065.244177482423
2233.48825640587 1717.6378600559
2234.0934208789095 2301.019737685624
2234.6984393507955 1861.2040556144977
2235.3033118550793 2034.5017011089203
2235.9080384252975 1595.459697972536
2236.5126190949723 1444.8640096897102
2237.1170538976166 1397.805634314577
2237.721342866729 1290.7454424034393
2238.32548603579 1391.3126022066708
2238.9294834382763 1623.838182187003
2239.533335107646 1689.6203971232676
2240.1370410773434 1696.8134095777016
2240.740601380803 1712.0858981757312
2241.3440160514474 1727.3994862456825
2241.9472851226783 1862.6046899166463
2242.550408627896 1715.5168684293192
2243.1533866004793 1849.5244935708185
2243.756219073799 1492.9117641496246
2244.3589060812064 1532.582024867816
2244.961447656049 1322.7808748018313
2245.5638438316564 1635.8718087578359
2246.166094641343 1612.2681014814275
2246.7682001184166 1406.5064961998712
2247.3701602961664 1545.7589605135229
2247.971975207871 1665.997849601452
2248.5736448867974 1513.1450724295908
2249.175169366197 1780.6684704415027
2249.7765486793123 1621.5233000441456
2250.3777828593684 1655.5931658662562
2250.9788719395783 1551.0088697253195
2251.579815953146 1766.8172463467151
2252.1806149332606 1438.1590047029786
2252.781268913097 1728.7151506710022
2253.381777925817 1556.4461682419849
2253.9821420045737 1750.242094453016
2254.5823611825035 1733.3847543076383
2255.1824354927303 1608.7667295040767
2255.782364968365 1460.814435314219
2256.38214964251 1312.702884455381
2256.9817895482483 1486.1842180579765
2257.5812847186553 1574.4099100882654
2258.180635186791 1402.9068056075614
2258.779840985704 1569.5020818990458
2259.37890214843 1491.1052447290936
2259.97781870799 1642.3144896319209
2260.5765906973957 1793.8076006813717
2261.175218149645 1649.0329167232117
2261.773701097718 1559.1030815935444
2262.3720395745895 1468.9763561690584
2262.970233613216 1462.614404107021
2263.568283246548 1584.8840009101448
2264.1661885075137 1328.4696850721712
2264.763949429038 1481.041589292527
2265.3615660440246 1429.7198333852425
2265.959038385374 1378.333109810945
2266.5563664859637 1836.7025456623614
2267.153550378669 1512.696110644632
2267.7505900963424 1449.2821614992026
2268.3474856718312 1385.8598568906489
2268.9442371379664 1599.1670457224297
2269.5408445275643 1439.0165697722025
2270.1373078734377 1726.2856560222285
2270.7336272083758 1513.9743210381944
2271.32980256516 1390.0125462415706
2271.925833976562 1862.036588934951
2272.5217214753357 1952.9158711213909
2273.117465094223 1421.886965420855
2273.7130648659586 1532.440863540888
2274.308520823257 1444.679585784094
2274.903832998827 1837.3599090181542
2275.4990014253563 1391.9777811195902
2276.094026135528 1769.8881288129874
2276.6889071620117 1355.9560488776524
2277.2836445374614 1636.99200206434
2277.878238294519 1692.4897822715927
2278.472688465812 1438.2749531554316
2279.066995083962 1183.6275936397192
2279.6611581815705 1655.963189730071
2280.255177791232 1463.1983326071331
2280.8490539455233 1750.162685858801
2281.442786677013 2037.7061119176567
2282.0363760182554 1877.7585099546545
2282.6298220017943 1614.832686712763
2283.223124660155 1934.6230074842774
2283.816284025859 1613.6527563298744
2284.4093001314086 1589.7293572920444
2285.002173009292 1565.7838933090613
2285.5949026919952 1857.4200374988402
2286.1874892119777 1715.2861711147066
2286.7799326016993 1626.136035480775
2287.3722328936 1370.0938758939678
2287.964390120109 1081.9708118076899
2288.556404313642 1686.0423746141066
2289.1482755066027 2160.2645341790017
2289.7400037313873 1767.6944062413884
2290.3315890203703 1410.7676591909224
2290.9230314059205 1423.736488808665
2291.5143309203904 1436.770621313994
2292.1054875961236 1493.4121846786225
2292.6965014654506 2011.1604381567697
2293.287372560684 1475.6866942415768
2293.878100914131 1474.0626797646933
2294.468686558086 1472.4826608944663
2295.059129524827 1707.9278650896565
2295.649429846617 1680.3398409699264
2296.239587555716 1652.6442086050422
2296.8296026843636 1630.388474560312
2297.419475264791 2313.967401332845
2298.0092053292137 1385.6336611650602
2298.598792909839 2060.390420910547
2299.1882380388597 1709.710927949974
2299.777540748455 1743.764944702707
2300.3667010707904 1777.7531863367585
2300.9557190380256 1926.392132343796
2301.544594682302 1621.6522025933575
2302.1333280357503 2110.750849619113
2302.721919130485 1855.6026465350417
2303.3103679986198 2088.2708193618337
2303.898674672242 1970.6720106599819
2304.486839183437 1579.3657239075499
2305.0748615642697 1606.6456631057977
2305.6627418468015 1574.4345771519293
2306.2504800630704 1653.7215371134873
2306.8380762451143 1602.243518259686
2307.425530424949 1642.9439296604119
2308.012842634582 1683.72496085773
2308.6000129060103 2050.758656510826
2309.187041271214 1730.613029167595
2309.773927762164 2082.3150983018504
2310.3606724108213 1821.7962717354756
2310.9472752491274 1517.4912553734775
2311.5337363090184 1743.0061801072188
2312.120055622414 1802.3808987951295
2312.706233221221 1691.7137294812878
2313.2922691373424 1868.3102376397546
2313.8781634026564 1436.6864784085135
2314.463916049037 1601.03944812003
2315.049527108342 1890.745141486559
2315.6349966124235 2128.417374885995
2316.2203245931123 1809.465614193406
2316.8055110822315 1398.9713070117944
2317.3905561115935 1547.5724883949101
2317.9754597129977 1550.95004061823
2318.560221918229 1501.3629848943315
2319.1448427590603 1451.696083732657
2319.729322267256 1405.2885523911414
2320.313660474563 1456.8795190227531
2320.8978574127195 1653.436978357308
2321.481913113452 1850.5970635949657
2322.0658276084705 1597.9051730065999
2322.6496009294806 1773.9267386715323
2323.233233108165 1891.8981246838744
2323.8167241762058 1678.4215357090518
2324.4000741652617 1766.2829031235651
2324.983283106987 1958.4123156028436
2325.5663510330232 2211.389516753902
2326.1492779749933 1818.1026792444568
2326.7320639645204 1937.8365487969804
2327.3147090332004 1517.7428958451421
2327.897213212629 1660.6440806785872
2328.4795765343843 1803.615639711265
2329.0617990300307 1502.1779508934192
2329.643880731124 2015.5786982507998
2330.22582166921 1673.3855006429926
2330.807621875816 1522.2099626439026
2331.3892813824623 1370.9229275540213
2331.9708002206517 1363.6919703884387
2332.5521784218818 1954.3514994120535
2333.133416017634 1713.2513776869953
2333.7145130393765 1471.6934516015895
2334.295469518571 1977.5778591014805
2334.876285486658 2022.3758212563196
2335.456960975076 1980.2222051923218
2336.037496015242 1938.0086633191288
2336.6178906385667 1796.4788413593
2337.198144876451 1690.6369612807237
2337.778258760278 1869.3052307630176
2338.3582323214214 1844.8793941240351
2338.938065591243 1820.3504647175282
2339.517758601087 2020.3337315955991
2340.0973113822965 1888.1133416388416
2340.676723966193 1679.6476966462312
2341.255996384094 1855.763288125768
2341.835128667295 1810.983356942918
2342.4141208470883 1923.5568846735182
2342.992972954751 1857.973738425495
2343.5716850215467 1970.8121895530371
2344.1502570787306 1744.5404043300873
2344.7286891575386 1517.7478302841146
2345.3069812892045 2106.7002265140477
2345.885133504944 1789.9671098140607
2346.4631458359618 1732.0613801593586
2347.04101831345 1456.1744382031952
2347.6187509685915 1511.129097023679
2348.196343832553 1553.9109232825438
2348.7737969364935 1457.976484028182
2349.351110311558 1361.953331435519
2349.9282839888765 1493.935426627258
2350.5053179995757 1307.8415209128448
2351.0822123747585 1378.8441189366013
2351.658967145526 1345.8024065866455
2352.2355823429643 1312.7838094280755
2352.812057998144 1612.3355790853875
2353.3883941421263 1508.5152635781228
2353.9645908059647 1763.2757527097788
2354.540648020693 1465.9005157481286
2355.116565817336 1407.5832458241787
2355.6923442269126 1827.2467736017438
2356.2679832804224 1712.6901272533662
2356.8434830088518 1764.0317484709954
2357.41884344318 1574.711715855657
2357.994064614377 1498.3194384574394
