#exp_cfg={"servo_angle": 0.0, "laser_lim": 100.0, "servo_angle_to": 18.0, "laser_wup": 0.0, "bt_dev": "EnSpectr-25AE3", "laser_wdn_max": 0.0, "frames": 10.0, "servo_used": 0, "servo_calib_use": 0, "laser_wdn_min": 0.0, "servo_pix_from": 90.0, "cooler_tout": 300.0, "servo_angle_from": 0.0, "servo_calib": "[-1.9174921013161362e-09, 3.9322238269163779e-05, -0.27385609119055809, 653.59552119713567]", "laser_autoctl": 0, "servo_pix_to": 3682.0, "laser_pw": 100.0, "cooler_on": 0, "laser_volt": 4.0, "cooler_autoctl": 0, "cooler_curr": 70.0, "cooler_startup": 10.0, "laser_fixed_pw": 0, "gain": 1.3, "offset": 2.53059635486, "servo_calib_degree": 3.0, "laser_curr": 55.0, "shutter": 8200.0, "servo_calib_step": 1.0, "laser_fixed_curr": 0, "exp": 2000.0, "ccd_volt": 4.7, "bt_addr": "00:06:66:62:5A:E3", "servo_delay": 500.0, "laser_autooff": 1}
#proc_cfg={"flat_auto_wnd": 200.0, "flat_auto_fr": 200.0, "flat_auto_shift": 5.0, "yconv": 1, "flatten": 1, "flatten_strength": 100.0, "xfrom": 300.0, "auto_max_frame": 2000.0, "auto_signal": 48000.0, "flat_auto_tol": 0.1, "autoclip": 1, "xrel_range": 0.0, "flat_auto_to": 4000.0, "intensity_adj": 1.0, "xrel": 7852.0, "rmhot": 1, "flat_auto_slit": 4.999999999999997, "auto_ini_exp": 300.0, "auto_off": 0, "xto": 2860.0, "flat_auto_ref": "", "flat_auto_rank": 1, "autobackg": 0, "xrel_adj": 0.0, "auto_black_lvl": 1, "base_wnd": 100.0, "sub_baseline": 0, "xconv": 2, "auto_max_exp": 1000.0, "auto_total_exp": 10000.0, "auto_exp": 0, "rmripple": 0, "black_lvl": 8279.7625, "shutter_clip_adj": 0.0, "auto_bckg": 0, "flat_auto_thr": 0.9, "subbackg": 1}
316.8218498245369 24977.702779073188
317.89969571804795 24830.70243975403
318.977263876126 24697.243253028097
320.05455438786703 24494.2577397908
321.1315673423287 24411.786320836043
322.2083028285215 24403.847253480337
323.2847609354267 24286.1068882039
324.3609417519747 24193.15629424193
325.43684536705587 24025.158765196255
326.5124718695279 23931.02265178624
327.58782134820103 23860.40319789874
328.66289389184385 23907.93014601111
329.7376895891921 23580.33776760831
330.8122085289342 23587.375084847867
331.88645079971866 23664.74173014595
332.9604164901575 23516.46316274758
334.03410568881554 23386.108594213656
335.1075184842266 23564.774598170374
336.18065496487543 23287.61215313761
337.2535152192122 23345.540235025976
338.32609933564163 23303.293956797344
339.39840740253203 23287.544562560674
340.4704395082099 23173.964266070372
341.5421957409617 22992.07335456027
342.6136761890357 23198.876617232025
343.6848809406365 22976.592932763757
344.75581008392874 22800.999240732464
345.82646370703696 22757.180917903046
346.8968418980512 22765.417943854212
347.96694474501055 22802.554192761956
349.0367723359268 22757.155006763805
350.106324758759 22713.759381252494
351.1756021014353 22588.852690933953
352.2446044518383 22508.8198221291
353.31333189781435 22611.432171855806
354.38178452716966 22494.64156187227
355.449962427665 22423.68698459096
356.51786568702846 22364.567245045862
357.58549439294256 22601.144738758314
358.6528486330535 22490.10221293901
359.71992849496564 22353.668928551666
360.7867340662433 22386.43087353465
361.8532654344144 22346.585432111973
362.9195226869597 22464.908628999456
363.9855059113288 22309.074543061106
365.05121519492604 22196.77792657866
366.11665062511565 22348.304784280917
367.1818122892273 22277.549857188096
368.2467002745434 22373.301466598037
369.31131466831175 22382.216095710413
370.375655557742 22443.691271497904
371.4397230299983 22439.36752561995
372.5035171722102 22322.133392012467
373.5670380714637 22321.237903859674
374.6302858148101 22516.866468733824
375.6932604892554 22460.36615532623
376.7559621817709 22411.50770488883
377.81839097928605 22242.057583310278
378.8805469686886 22294.36821734114
379.94243023683157 22377.123099147142
381.0040408705263 22210.41808775638
382.0653789565458 22049.437186317136
383.1264445816196 22144.33104145213
384.1872378324406 22175.97607592721
385.2477587956637 22209.057377379624
386.3080075579037 21965.678111966772
387.3679842057336 21970.296729951944
388.4276888256918 22087.64708251924
389.48712150426945 21923.374200282226
390.54628232792857 21825.68200899181
391.6051713830857 21739.350725879718
392.66378875611736 21729.520099489815
393.7221345333637 21723.4097137735
394.7802088011249 21425.31649247525
395.838011645661 21492.880800217077
396.89554315319765 21304.88556540149
397.9528034099112 21230.136866837067
399.00979250194723 21048.11830313851
400.06651051541485 21055.289762325905
401.1229575363741 21030.836204484534
402.17913365085224 21028.679163803485
403.23503894483656 21019.632010929512
404.2906735042761 20921.284604724082
405.3460374150818 20823.675919906986
406.401130763119 20837.494457202843
407.455953634224 20824.483502879197
408.5105061141876 20845.103958660482
409.56478828876243 20681.988624693982
410.6188002436629 20693.17044217606
411.6725420645689 20626.97226960718
412.72601383711117 20635.107543633545
413.77921564689314 20651.46376476111
414.8321475794728 20512.925047634
415.88480972036814 20367.022523743817
416.93720215506437 20502.989942552813
417.9893249690049 20316.629642334694
419.04117824759123 20207.202959833314
420.09276207619223 20227.96239638585
421.144076540133 20188.224769193883
422.1951217247042 20158.83393255843
423.24589771515275 20132.534722125492
424.2964045966928 20016.262611544
425.34664245449494 20059.7503199501
426.3966113736933 19992.221259765636
427.4463114393875 19862.33874010687
428.49574273662984 19854.389506748434
429.5449053504417 19826.636939289583
430.5937993658026 19829.208074255668
431.6424248676558 19720.78853789693
432.6907819409007 19729.14281994523
433.73887067040596 19774.03721382614
434.7866911409965 19689.14968261407
435.8342434374608 19765.19702410537
436.88152764455117 19679.95767634515
437.9285438469724 19602.2286487218
438.9752921294057 19544.22036650354
440.02177257648145 19608.907595054443
441.06798527279716 19455.467143647846
442.1139303029122 19702.909837822997
443.1596077513459 19747.238599625707
444.2050177025794 19494.41879353428
445.25016024105753 19480.137390533975
446.2950354511886 19519.577247413217
447.33964341733736 19447.53877885132
448.383984223834 19484.025909394746
449.4280579549686 19436.980646957338
450.471864694995 19492.118350052264
451.5154045281306 19500.922954231894
452.5586775385509 19530.230244895694
453.60168381039693 19409.366808818762
454.64442342776783 19617.091583295016
455.6868964747264 19425.226147678994
456.7291030353008 19416.792132305956
457.77104319347563 19622.97901813869
458.8127170332027 19471.672594195516
459.854124638392 19446.32535092392
460.895266092919 19635.667558133122
461.93614148061897 19579.308893442732
462.97675088529104 19750.622467116696
464.01709439069236 19706.838957978518
465.0571720805492 19767.22438950184
466.0969840385442 19741.75259789358
467.1365303483253 20056.18352017992
468.17581109350067 19879.365148640085
469.2148263576437 19876.04504944685
470.2535762242878 19863.7260765767
471.29206077693016 19982.651747089807
472.33028009902773 20033.081083603975
473.3682342740012 19987.827197302475
474.40592338523857 19857.676079408968
475.4433475160804 20042.978085031937
476.4805067498364 19926.53295158782
477.51740116978 19866.193464232423
478.5540308591426 19922.92490140398
479.59039590112116 20081.148911773147
480.6264963788726 20020.173064250677
481.6623323755193 20184.74226674203
482.6979039741436 20271.040534211745
483.7332112577915 20450.31115091693
484.76825430947247 20639.06399640312
485.80303321215797 20625.327377280733
486.837548048783 20587.308421987385
487.8717989022425 20763.10730676245
488.90578585539697 20614.820269420296
489.9395089910686 20820.222723847386
490.97296839203955 20570.957192695074
492.00616414106116 20351.88884252955
493.0390963208429 20387.868926997202
494.0717650140559 20347.494166111894
495.10417030333883 20193.55036261141
496.1363122712901 20093.749909187587
497.16819100046814 19929.487185232538
498.1998065734024 19829.410499846614
499.2311590725767 19774.744491212157
500.26224858044407 19619.51077265763
501.2930751794156 19373.735846181935
502.3236389518679 19432.080234067114
503.35393998014115 19202.792486082104
504.38397834653733 19233.430002645622
505.4137541333221 19136.481199153204
506.4432674227228 19000.878671778984
507.4725182969323 18914.53746202128
508.5015068381035 18879.729914327923
509.53023312835467 18898.926276606802
510.55869724976765 18822.857929569105
511.58689928438434 18593.83983083638
512.6148393142121 18576.867746315453
513.6425174212218 18637.96356961003
514.6699336873462 18713.087859705258
515.6970881944835 18665.885338107826
516.7239810244901 18540.823591229353
517.7506122591931 18600.021881591434
518.7769819803761 18598.59548036663
519.8030902697901 18682.67990979492
520.8289372091476 18644.090036520465
521.8545228801249 18721.06360823601
522.8798473643619 18553.506401992876
523.9049107434621 18688.41178596207
524.9297130989908 18633.055049314677
525.9542545124805 18489.28489618812
526.9785350654201 18600.95035195615
528.0025548392696 18532.85703503476
529.0263139154504 18392.6791947611
530.0498123753423 18470.489854684
531.073050300296 18339.30925931294
532.0960277716204 18328.696809349356
533.1187448705896 18272.53502100083
534.1412016784416 18269.464716384744
535.1633982763833 18265.98624084353
536.1853347455726 18123.77306749465
537.2070111671401 18091.475353165548
538.2284276221817 18019.55204533498
539.2495841917516 17925.69980473554
540.2704809568677 17707.167696185854
541.2911179985167 17845.186961717798
542.3114953976419 17687.58959392507
543.3316132351592 17618.12051317517
544.3514715919409 17522.118691458483
545.3710705488247 17549.63652368044
546.3904101866156 17499.663067608424
547.4094905860784 17552.099185374776
548.4283118279418 17533.13103357588
549.4468739929034 17475.851529930133
550.4651771616191 17275.50228352044
551.4832214147063 17395.287556930187
552.501006832761 17414.576931846932
553.5185334963226 17418.55856621526
554.5358014859103 17427.885198167285
555.5528108820035 17373.00183608468
556.5695617650363 17251.518166203175
557.5860542154242 17464.611330130745
558.6022883135283 17295.272177137616
559.6182641396881 17200.762540271382
560.6339817741991 17343.59228482737
561.6494412973225 17403.360281810947
562.6646427892883 17443.930820303565
563.6795863302796 17307.845124253385
564.694272000459 17273.60700004718
565.7086998799423 17522.92241179878
566.7228700488104 17259.250345518212
567.7367825871115 17217.090955700955
568.7504375748576 17269.322312060292
569.7638350920224 17367.434260299422
570.7769752185486 17284.546563937034
571.7898580343353 17351.050824971688
572.802483619258 17215.230854290152
573.8148520531431 17469.25526201068
574.8269634157932 17419.55047208632
575.8388177869692 17304.549975685037
576.8504152463938 17373.128488347116
577.8617558737587 17528.96381943358
578.8728397487175 17433.39597370539
579.883666950891 17571.83858875359
580.8942375598654 17604.928896105772
581.9045516551851 17735.93099139595
582.9146093163617 17934.326759345746
583.924410622878 17756.03439307001
584.9339556541727 17749.948519690613
585.9432444896538 17898.725070181925
586.9522772086875 17862.451863488684
587.9610538906127 17911.16993832842
588.9695746147318 17694.483671211085
589.9778394603054 17811.86293879861
590.985848506567 17734.62539964909
591.9936018327098 17731.93541654929
593.0010995178891 17525.844923892022
594.0083416412344 17685.55924496466
595.0153282818283 17420.14804349312
596.0220595187293 17398.95010382212
597.0285354309508 17372.933811913877
598.0347560974806 17333.596289858673
599.0407215972609 17276.33904394662
600.0464320092051 17283.067865207926
601.0518874121954 17246.789303252328
602.0570878850685 17280.748130564618
603.062033506636 17313.500355106582
604.0667243556636 17328.226489885175
605.0711605108936 17199.21680942851
606.0753420510264 17616.73793095549
607.0792690547278 17491.360457466413
608.082941600629 17509.944185726625
609.0863597673306 17486.824387382218
610.0895236333909 17690.49538360398
611.0924332773357 17831.58662736191
612.0950887776617 17881.58297302198
613.0974902128219 17925.286618690003
614.0996376612384 18261.12503115346
615.1015312013005 18407.003236426986
616.1031709113595 18543.461571190976
617.1045568697336 18482.351575387907
618.1056891547069 18607.68119365612
619.1065678445229 18773.471224900743
620.1071930173985 19160.121690863365
621.1075647515099 19115.794877756292
622.1076831250048 19252.23866695041
623.1075482159849 19376.854547870546
624.1071601025305 19675.994311427105
625.1065188626781 19635.515146042864
626.105624574433 19977.677768746777
627.1044773157682 19995.44024410131
628.1030771646128 20090.399483270503
629.1014241988742 20209.25450873458
630.0995184964158 20350.48799454826
631.0973601350688 20407.53805695756
632.0949491926294 20545.51363258098
633.0922857468631 20288.706361488716
634.089369875499 20433.95556236976
635.0862016562278 20313.052996610382
636.0827811667077 19993.16761065839
637.0791084845641 20009.143833301314
638.0751836873878 19795.76096104105
639.0710068527369 19802.386225431044
640.0665780581294 19548.87667441484
641.0618973810506 19360.086213884802
642.0569648989604 19376.619923784492
643.0517806892676 19039.458617839722
644.0463448293649 19031.71745520517
645.040657396592 18907.479149674014
646.0347184682723 18678.267827238
647.0285281216875 18433.923580442723
648.0220864340772 18407.29465440817
649.0153934826558 18127.533857177346
650.0084493446047 18040.569805381485
651.0012540970674 17859.848802359786
651.9938078171526 17698.573338752616
652.9861105819346 17565.35350169079
653.9781624684565 17689.411903340137
654.9699635537254 17388.48475834233
655.9615139147136 17488.176981886725
656.9528136283589 17190.674062177837
657.9438627715699 17369.60657833538
658.9346614212154 17194.698728962045
659.925209654135 17057.527851489023
660.9155075471263 17020.31771850305
661.9055551769616 17128.248008003044
662.895352620375 17168.840921996627
663.8848999540678 17012.438418697984
664.8741972547068 16780.08700388988
665.863244598926 16912.604678870954
666.8520420633213 16992.85052097013
667.8405897244611 16847.82979008056
668.8288876588758 16598.527739879315
669.8169359430613 16922.34418028561
670.8047346534822 16762.625023455264
671.7922838665672 16643.642496195916
672.7795836587156 16855.668986796165
673.766634106285 16992.190698996383
674.7534352856092 16725.538364525924
675.7399872729766 16726.53802627139
676.7262901446538 16800.63696230805
677.712343976862 16752.059958904872
678.6981488457986 16785.758007765908
679.6837048276229 16681.377677379693
680.6690119984596 16652.56593604646
681.6540704344043 16697.812662223987
682.6388802115107 16546.675305720884
683.6234414058108 16591.402458595894
684.6077540932874 16387.6102699624
685.591818349907 16486.826871162757
686.575634251587 16413.04595297199
687.5592018742263 16347.982675216103
688.5425212936734 16190.78457601344
689.5255925857564 16404.956050427852
690.5084158262707 16267.468703113223
691.4909910909646 16164.64246620503
692.4733184555644 16055.458854084176
693.4553979957618 16156.92881907234
694.4372297872123 16196.92499166662
695.4188139055404 16112.513963667621
696.4001504263324 15988.42194119658
697.3812394251509 16165.853153353752
698.3620809775111 16200.160580125588
699.3426751589104 16069.505436792144
700.3230220448004 16058.365761682424
701.3031217106054 16191.19236951636
702.2829742317172 16431.416053981437
703.2625796834873 16197.497809195911
704.2419381412474 16109.486401855878
705.22104968028 16327.197784808948
706.1999143758458 16301.21993289029
707.178532303169 16334.421144430788
708.1569035374378 16417.325978689983
709.1350281538107 16423.431148657823
710.1129062274158 16428.909620023296
711.0905378333373 16554.842782754087
712.0679230466376 16564.688318522265
713.0450619423427 16847.72071664474
714.0219545954424 16969.59556895211
714.9986010808989 16855.759959451323
715.9750014736292 17051.58191391221
716.9511558485392 17252.518574148213
717.9270642804786 17223.47588754695
718.9027268442787 17365.287539447916
719.8781436147328 17253.12638179322
720.8533146666014 17187.354415435235
721.828240074612 17084.246818571122
722.8029199134635 16966.621009584604
723.7773542578125 16754.434416028802
724.751543182294 16666.89387060437
725.7254867615029 16551.14043750612
726.6991850700015 16217.355096001014
727.6726381823228 16293.90275600983
728.6458461729599 16329.791958416241
729.6188091163858 16191.836236925345
730.5915270870246 16170.069105595254
731.5640001592856 15977.703911483535
732.536228407529 16138.512115915762
733.5082119060917 16114.135600521293
734.4799507292755 16045.123395363044
735.4514449513481 16022.45785356993
736.4226946465496 16192.883972186693
737.3936998890786 16075.643883005672
738.3644607531078 15949.808324791957
739.3349773127793 15883.732917944453
740.3052496421951 15796.839381147769
741.27527781543 15587.78040395927
742.2450619065221 15528.139807355265
743.2146019894826 15578.029866694764
744.183898138288 15505.684533693824
745.1529504268801 15394.098321366637
746.1217589291682 15155.65208535034
747.0903237190341 15133.61551624894
748.058644870318 15211.015090234501
749.0267224568397 15054.910937878947
749.994556552374 14889.094463405458
750.9621472306771 15002.476350497009
751.9294945654583 14960.733766463189
752.8965986304011 14868.370193135726
753.8634594991636 14922.224826756781
754.8300772453586 15024.909229468078
755.7964519425768 14874.330224846228
756.762583664371 14991.857159343921
757.7284724842611 15000.774742862097
758.6941184757416 14902.021437665313
759.6595217122667 14951.153304452379
760.6246822672638 14827.09382950066
761.5896002141235 14688.137488441964
762.5542756262093 14854.39400994388
763.5187085768503 14847.638736909725
764.4828991393406 14771.4436286949
765.4468473869474 14705.866222604736
766.4105533929032 14736.365694498396
767.3740172304078 14705.294222382034
768.3372389726283 14799.866411948653
769.3002186926988 14571.6437806222
770.2629564637282 14537.018118988479
771.2254523587872 14522.997613444653
772.1877064509154 14428.251499340355
773.1497188131179 14249.99465470798
774.1114895183728 14217.481269282212
775.0730186396268 14305.453644666064
776.0343062497905 14180.89097943692
776.9953524217381 14103.973338576277
777.9561572283274 14208.361373077885
778.9167207423689 14175.495437745592
779.8770430366476 14161.591109770525
780.8371241839159 14113.17313852542
781.7969642568951 14076.149809570672
782.7565633282757 14300.949602686818
783.7159214707099 14041.265453516078
784.6750387568281 14155.639209750618
785.6339152592227 14038.198781481817
786.5925510504512 13989.154403577417
787.5509462030477 14012.628487770402
788.5091007895098 13997.803254220256
789.4670148823006 14054.610276765326
790.4246885538596 14079.114873724815
791.3821218765861 13960.483863829755
792.3393149228505 13861.523324066968
793.2962677649975 13992.401789939318
794.2529804753303 14064.486467049113
795.20945312613 14084.703260171631
796.1656857896378 13968.095892345522
797.1216785380675 13884.664850089419
798.0774314435985 14234.472760065142
799.0329445783846 14236.072318369925
799.9882180145414 14195.17314521976
800.9432518241574 14149.238077937014
801.89804607929 14446.156757296227
802.852600851962 14477.012772476606
803.8069162141637 14490.225251632906
804.760992237856 14609.728726528134
805.714828994971 14637.52760141021
806.6684265574077 14650.287699685767
807.6217849970271 14590.528839244213
808.574904385674 14563.9587567524
809.527784795142 14587.710637432345
810.4804262972102 14759.724995642548
811.4328289636178 14323.31120406689
812.3849928660748 14222.586713906556
813.3369180762638 14195.101025254442
814.2886046658241 14221.078430119373
815.2400527063783 14038.025797300355
816.1912622695108 13972.017377559958
817.1422334267718 13910.845737024976
818.0929662496856 13807.486151663557
819.0434608097457 13616.974922974376
819.9937171784059 13590.608238927158
820.9437354271013 13568.018560874789
821.8935156272255 13607.987234716973
822.8430578501484 13384.031261217688
823.7923621672016 13187.74985387395
824.7414286496896 13350.140355367326
825.6902573688876 13290.854125529973
826.6388483960363 13226.00545852753
827.5872018023492 13168.097324728591
828.5353176590033 13402.799279901836
829.4831960371503 13139.806269717854
830.4308370079016 13189.670160780373
831.3782406423525 13189.31882453468
832.3254070115545 13133.661598038734
833.2723361865319 12988.709221866451
834.2190282382799 12954.995892634572
835.1654832377644 13098.017062195833
836.1117012559116 12951.155601203684
837.0576823636256 13130.471737754682
838.003426631778 12836.669857819177
838.9489341312074 12867.637836393611
839.8942049327197 13093.969152061134
840.8392391070975 13086.716202240339
841.7840367250865 12929.992182900018
842.7285978573982 12837.478583872644
843.672922574724 13064.307767477016
844.6170109477152 12951.478435827663
845.560863046996 12924.099285797347
846.5044789431595 12906.368577311623
847.4478587067697 12871.383363096744
848.3910024083561 13009.7858072827
849.333910118421 12862.229638145549
850.2765819074339 12784.223896203603
851.2190178458332 12930.245492174694
852.161218004032 12875.55187695965
853.1031824524016 12818.452745122235
854.0449112612987 12715.02030247996
854.9864045010327 12888.596706542108
855.9276622418947 12774.009175461308
856.8686845541379 12686.343145710505
857.8094715079915 12661.17329162072
858.7500231736467 12897.700433772368
859.690339621271 12764.976447075063
860.6304209209939 12702.01958090207
861.5702671429244 12568.800049856325
862.5098783571284 12749.903911410362
863.4492546336569 12730.205723575276
864.3883960425155 12672.318180293198
865.3273026536863 12671.62070127692
866.2659745371238 12664.417748502216
867.2044117627465 12780.77248886787
868.1426144004472 12707.556503150201
869.0805825200823 12789.959420294248
870.0183161914847 12845.858572824598
870.9558154844526 12858.196187971658
871.8930804687552 12845.131691735562
872.8301112141307 12737.782789063633
873.7669077902865 12923.991242404853
874.7034702669062 13085.963401665455
875.6397987136315 12964.264835393977
876.5758932000863 13047.565456098764
877.5117537958522 13147.26619669539
878.4473805704911 13111.946986579944
879.3827735935283 13049.317452501247
880.3179329344603 13197.314576846762
881.2528586627541 13214.023985069498
882.1875508478479 13256.57009092924
883.1220095591489 13074.523010408662
884.0562348660296 12984.080572936786
884.9902268378391 13119.751863878986
885.9239855438955 12923.062620109911
886.8575110534839 12869.460733094242
887.7908034358588 12800.060562608098
888.7238627602474 12775.61654585051
889.6566890958475 12756.407691832677
890.5892825118208 12579.553900119487
891.5216430773125 12544.705621875153
892.4537708614189 12614.578521075427
893.3856659332196 12500.820940856323
894.3173283617652 12347.76151838553
895.2487582160684 12453.450639791503
896.179955565116 12312.779695542291
897.110920477864 12205.903310677899
898.0416530232451 12116.980695793765
898.9721532701478 12037.575519517854
899.9024212874428 12162.869885220573
900.8324571439662 11935.041990283607
901.7622609085302 11940.694058095289
902.6918326499072 11846.578533305195
903.6211724368477 11931.260983937877
904.5502803380696 12005.311240861029
905.4791564222614 12021.602327948227
906.4078007580792 11697.360445302667
907.3362134141571 11752.66945372911
908.2643944590909 11891.473546805213
909.1923439614493 11739.580256798474
910.1200619897754 11662.658143319804
911.0475486125779 11828.697810929229
911.9748038983344 11751.1694069676
912.9018279155007 11648.602979947744
913.8286207324982 11522.471195584912
914.7551824177117 11659.744926095944
915.6815130395116 11614.057536550328
916.6076126662283 11532.311563983392
917.533481366163 11502.165623556592
918.4591192075914 11612.475622933887
919.3845262587565 11654.847336441217
920.3097025878706 11449.828755000883
921.2346482631237 11501.94366929467
922.1593633526682 11514.832496434514
923.0838479246304 11484.394214829696
924.0081020471061 11653.86430903864
924.9321257881656 11362.372441434356
925.8559192158464 11425.700501959618
926.7794823981512 11348.467100444072
927.7028154030686 11338.571767939753
928.6259182985414 11290.481360376285
929.5487911524906 11501.949315472146
930.4714340328119 11474.228691751117
931.3938470073608 11177.45267467681
932.3160301439748 11310.794204181993
933.2379835104548 11376.104545280588
934.1597071745709 11412.984420655104
935.0812012040769 11417.336376187575
936.002465666681 11548.690055152463
936.9235006300696 11505.419346790888
937.8443061619055 11435.453760194312
938.7648823298077 11248.029955552647
939.6852292013809 11264.380948689717
940.6053468441951 11468.391923362453
941.5252353257874 11181.868277342188
942.4448947136698 11350.188849469432
943.364325075323 11287.108666885017
944.2835264782043 11355.558538980313
945.2024989897309 11300.95331449856
946.1212426773054 11358.47490160567
947.0397576082851 11370.500695392451
947.9580438500125 11500.808453449536
948.8761014697939 11481.467875858552
949.7939305349064 11584.98238617007
950.7115311125999 11345.43270642414
951.6289032700952 11377.16469920838
952.5460470745875 11532.601707300348
953.4629625932339 11381.925250517734
954.3796498931715 11525.782594343607
955.2961090415029 11500.1236139435
956.2123401053068 11465.420137224515
957.1283431516276 11393.627769441799
958.0441182474842 11347.418237298529
958.9596654598663 11547.972367958386
959.8749848557309 11376.088035355415
960.7900765020167 11301.139347851267
961.7049404656209 11244.285363924711
962.6195768134185 11290.931875469549
963.5339856122537 11312.752969499243
964.4481669289453 11360.676566067455
965.3621208302793 11213.246892617039
966.2758473830145 11207.151584301977
967.1893466538822 11430.155582163174
968.1026187095813 11081.86188167757
969.0156636167867 11029.965976805544
969.9284814421426 11266.687335666791
970.8410722522622 11127.265454636054
971.753436113735 11159.507881188127
972.6655730931161 11017.776152715629
973.5774832569368 11207.462476330798
974.4891666716958 11142.886003417023
975.4006234038698 11051.777359430042
976.3118535198955 11048.094029975837
977.2228570861935 11239.474908224356
978.1336341691494 11158.317471101418
979.0441848351202 11028.03219749244
979.9545091504333 11218.554028517921
980.864607181391 11214.256398128611
981.7744789942699 11170.295196837575
982.6841246553086 11162.558679554348
983.5935442307236 11250.561799850027
984.5027377867027 11318.320817978261
985.4117053894024 11281.56652710666
986.3204471049557 11249.405346056714
987.2289629994648 11311.169550676155
988.1372531390007 11507.44875661359
989.0453175896091 11372.321340607714
989.9531564173067 11444.25868043034
990.860769688079 11245.032773805002
991.7681574678918 11473.960666556102
992.6753198226706 11547.131924777688
993.582256818323 11505.944903390007
994.4889685207218 11659.249708938629
995.3954549957143 11912.18868870564
996.301716309119 11876.351281559488
997.2077525267232 11875.301966992334
998.1135637142943 11729.257063444073
999.0191499375615 11906.449491978128
999.924511262232 11786.512210341596
1000.8296477539861 11701.495816669418
1001.7345594784656 11553.099981681251
1002.6392465012996 11447.719415537016
1003.5437088880753 11483.509696786878
1004.4479467043584 11488.149112391313
1005.3519600156869 11139.924838847584
1006.2557488875718 11329.334919298868
1007.1593133854858 11312.62844222992
1008.0626535748888 11165.60874101038
1008.9657695212009 11008.503543274435
1009.8686612898182 11209.58293908599
1010.7713289461135 11121.6188271069
1011.6737725554212 10925.569218845154
1012.5759921830577 11017.269454550298
1013.4779878943027 11035.879349643668
1014.379759754418 11127.127671788752
1015.2813078286254 10907.168347984307
1016.18263218213 10790.75809812801
1017.0837328801026 10852.271310571337
1017.9846099876886 10975.586675853343
1018.8852635700023 10757.810867339893
1019.7856936921362 10659.217970182537
1020.6859004191447 10880.07368698386
1021.5858838160675 10694.77207648531
1022.4856439479063 10699.546398434022
1023.3851808796389 10544.87913594827
1024.2844946762143 10752.453324748065
1025.183585402554 10598.340041907195
1026.082453123554 10388.976558491895
1026.9810979040776 10561.761102833163
1027.8795198089647 10435.7991369363
1028.777718903024 10524.243092216711
1029.6756952510368 10405.912055158977
1030.5734489177648 10361.479455666125
1031.4709799679313 10383.005473478966
1032.3682884662358 10470.74845928828
1033.2653744773506 10226.686578523113
1034.1622380659192 10295.350692867167
1035.058879296559 10414.680276664527
1035.9552982338591 10484.931344010358
1036.8514949423825 10444.947946782417
1037.7474694866614 10354.535747693251
1038.6432219312028 10280.543529103785
1039.5387523404825 10601.673259968242
1040.4340607789582 10460.812960260635
1041.3291473110476 10457.939575864582
1042.2240120011465 10576.005630635242
1043.1186549136273 10647.440265385376
1044.0130761128294 10494.67645349025
1044.9072756630649 10580.114516375668
1045.8012536286205 10548.486645556563
1046.6950100737577 10629.60364516279
1047.588545062701 10792.988678145617
1048.481858659663 10659.931748124367
1049.3749509288118 10821.882684494776
1050.2678219343034 10638.887271847178
1051.1604717402515 10623.587196514965
1052.0529004107575 10503.792606503504
1052.9451080098825 10676.356983697595
1053.8370946016694 10527.548119479168
1054.7288602501267 10736.890581827496
1055.6204050192446 10604.68305961677
1056.511728972977 10643.609115676072
1057.402832175254 10558.448777075917
1058.2937146899785 10490.770371189066
1059.1843765810263 10601.065439984679
1060.0748179122456 10629.214007036255
1060.9650387474576 10580.589177355354
1061.855039150456 10561.093228898098
1062.7448191850071 10641.940763899129
1063.6343789148505 10544.04066569671
1064.5237184037014 10701.955976159068
1065.412837715241 10522.401368913295
1066.3017369131267 10499.319846408054
1067.190416060992 10581.327981539785
1068.0788752224398 10413.96755348936
1068.9671144610438 10427.850912119431
1069.8551338403558 10607.880446941705
1070.7429334239023 10649.669769253731
1071.6305132751695 10380.010467842814
1072.517873457633 10542.562936481105
1073.4050140347335 10437.614736165413
1074.2919350698776 10521.845124058422
1075.1786366264623 10364.994404476123
1076.0651187678395 10432.58423017526
1076.95138155735 10364.422218733012
1077.8374250582929 10383.186401942314
1078.7232493339507 10396.391379561155
1079.608854447577 10325.422097172737
1080.4942404623907 10263.687337593254
1081.3794074415982 10439.025588428225
1082.2643554483657 10467.067936148755
1083.149084545841 10352.937126120745
1084.033594797138 10290.051452477031
1084.9178862653516 10309.314875108308
1085.8019590135427 10526.643613487513
1086.6858131047484 10207.920723262654
1087.5694486019802 10380.564849838423
1088.4528655682225 10372.409239633122
1089.3360640664287 10584.264869556935
1090.2190441595321 10393.158791794009
1091.1018059104317 10394.649322254458
1091.98434938201 10468.437422902405
1092.866674637111 10517.149905554052
1093.748781738559 10446.682190077769
1094.6306707491512 10210.8719966429
1095.5123417316554 10454.850250225936
1096.3937947488157 10254.855247362842
1097.2750298633455 10278.508425419179
1098.156047137938 10136.840127757716
1099.0368466352556 10347.60639832156
1099.9174284179317 10455.195735350662
1100.7977925485757 10176.184295179051
1101.6779390897755 10178.424565907277
1102.5578681040806 10304.024586054367
1103.4375796540226 10208.8174058838
1104.3170738021054 10227.649390943
1105.1963506108077 9988.936098975832
1106.0754101425773 9937.744645758365
1106.9542524598382 10157.940664876392
1107.8328776249855 10067.407578648492
1108.7112857003904 10110.13691948278
1109.5894767483987 10086.361258737486
1110.4674508313292 10273.517287649916
1111.3452080114657 10120.16605987965
1112.2227483510815 10285.63658244981
1113.1000719124077 10384.485389889913
1113.9771787576592 10458.455273052377
1114.854068949022 10328.012665578843
1115.7307425486542 10592.804785099548
1116.6071996186893 10494.968978720543
1117.483440221229 10985.602133215583
1118.3594644183577 10610.216213309353
1119.235272272128 10747.180268856731
1120.1108638445658 10921.579132424546
1120.9862391976712 11276.730785247411
1121.8613983934229 11144.84838377077
1122.7363414937627 11166.705810261614
1123.6110685606182 11247.404967867378
1124.485579655884 11458.731491298026
1125.359874841426 11459.179510515556
1126.2339541790916 11445.896905767722
1127.1078177306936 11759.016735151527
1127.9814655580267 11447.057743925518
1128.854897722851 11577.805585641234
1129.7281142869106 11501.586007492948
1130.6011153119125 11554.030840065972
1131.473900859548 11637.994119082627
1132.3464709914697 11590.632434033347
1133.2188257693178 11349.589306406426
1134.0909652546961 11249.838977005598
1134.96288950919 11067.530460751032
1135.8345985943506 11245.271750808668
1136.7060925717087 10911.99081060338
1137.57737150277 10972.37686436322
1138.4484354490069 10999.118209323122
1139.3192844718778 10781.931912259282
1140.1899186327992 10490.053363680441
1141.060337993178 10634.600438405836
1141.930542614382 10484.140163723456
1142.8005325577597 10395.233601001717
1143.670307884635 10132.558577435786
1144.5398686563003 10385.175405699909
1145.409214934025 10298.549139234517
1146.2783467790541 9935.470327084186
1147.1472642526023 10041.523386844412
1148.0159674158622 10132.953112677487
1148.8844563300026 9978.6228900847
1149.7527310561618 9898.22465959848
1150.6207916554504 9803.503547178585
1151.4886381889592 9780.380098571977
1152.3562707177498 9885.389926446614
1153.2236893028585 9715.56979700084
1154.090894005296 9662.115541565563
1154.9578848860474 9733.038929607248
1155.8246620060709 9633.85697159916
1156.6912254262988 9523.410414970007
1157.5575752076438 9583.367186620391
1158.42371141098 9749.070392712449
1159.2896340971656 9736.846276293298
1160.1553433270346 9634.734027704822
1161.0208391613887 9706.037144581107
1161.8861216610057 9638.97674605465
1162.75119088664 9678.726900371057
1163.6160468990201 9591.8079436653
1164.4806897588442 9545.018149669184
1165.3451195267917 9652.210141759673
1166.2093362635114 9571.708275177749
1167.0733400296285 9617.61413119195
1167.9371308857444 9468.930389270176
1168.8007088924278 9455.00406373145
1169.6640741102328 9576.516156183312
1170.5272265996773 9518.650107970161
1171.390166421259 9387.034984376673
1172.252893635452 9604.701762064637
1173.1154083026995 9821.076069315484
1173.977710483421 9624.845833626952
1174.8398002380145 9401.621959695127
1175.7016776268483 9644.150114241913
1176.563342710264 9503.974238434577
1177.4247955485826 9587.541090601106
1178.2860362020947 9518.111793262504
1179.147064731069 9407.913382398237
1180.0078811957483 9586.709709527047
1180.8684856563486 9541.666562850067
1181.7288781730604 9464.359275117518
1182.589058806052 9514.449247513294
1183.4490276154593 9785.830039357741
1184.3087846614017 9559.36732537729
1185.1683300039676 9726.052207104456
1186.027663703222 9855.430904871664
1186.8867858192025 9722.567848865305
1187.7456964119228 9785.980074874604
1188.6043955413716 9874.44943887795
1189.4628832675116 9937.368137014153
1190.3211596502842 9984.354792105163
1191.179224749596 10046.208831773378
1192.0370786253388 9923.903877731198
1192.8947213373758 10137.080587640918
1193.7521529455407 10258.610747828428
1194.6093735096438 10012.349173886727
1195.466383089477 10074.798223053469
1196.3231817447977 10065.007950113142
1197.1797695353398 10225.101875813443
1198.0361465208189 10040.598991202267
1198.8923127609214 10072.448804972575
1199.7482683153048 10176.268697651849
1200.6040132436028 10353.37087458785
1201.459547605431 10067.684865270325
1202.3148714603722 10141.079498758576
1203.1699848679855 10101.871554714162
1204.0248878878065 10134.590417720476
1204.8795805793507 9821.318993242869
1205.7340630020935 10071.59750927416
1206.5883352155033 10184.737507607595
1207.4423972790064 10010.917974850654
1208.2962492520237 9907.991116417264
1209.1498911939307 9853.38281770155
1210.0033231640937 9877.888744627107
1210.8565452218427 9960.089022263
1211.7095574264913 9663.583446940966
1212.5623598373222 9746.60717694635
1213.4149525135963 9687.816324302994
1214.2673355145507 9826.23909271121
1215.1195088993936 9597.051788892812
1215.9714727273113 9683.535174105844
1216.8232270574663 9970.6965952024
1217.6747719489904 9544.877784792045
1218.5261074609934 9626.938270678798
1219.3772336525653 9707.60926323732
1220.2281505827668 9966.658955659452
1221.0788583106296 9819.203583214185
1221.9293568951707 9591.434043414669
1222.7796463953746 9559.014374774388
1223.629726870202 9796.003506286383
1224.4795983785934 9743.170486888721
1225.3292609794553 9689.986852165537
1226.1787147316809 9547.767576919976
1227.0279596941327 9762.209066387033
1227.8769959256424 9710.926286178552
1228.7258234850306 9774.652394314418
1229.5744424310833 9542.401344752496
1230.422852822563 9875.90803079617
1231.2710547182105 9963.816860006036
1232.119048176739 9804.963149168258
1232.9668332568417 9486.616896349562
1233.8144100171812 9895.605070793785
1234.6617785163999 9858.566599190766
1235.508938813111 9487.483541330666
1236.3558909659114 9622.363092934986
1237.2026350333617 9798.128954719363
1238.049171074008 9729.799452161618
1238.8954991463652 9600.850564735036
1239.741619308932 9566.02206370879
1240.587531620169 10618.382611688576
1241.4332361385277 9624.537268198921
1242.2787329224248 9423.647560866524
1243.1240220302534 9324.7663162092
1243.9691035203869 9292.897395940658
1244.813977451171 9614.95948031586
1245.6586438809263 9523.868556846242
1246.5031028679496 9179.118753265491
1247.3473544705157 9485.65328169477
1248.1913987468706 9406.223739516363
1249.0352357552383 9187.558333680561
1249.8788655538228 9239.581677594364
1250.7222882007918 9461.318900746523
1251.565503754302 9418.109164881032
1252.4085122724755 9051.06374501737
1253.2513138134182 9488.466392075523
1254.0939084352049 9292.458845904122
1254.9362961958905 9271.367957277189
1255.7784771535007 9211.699832381377
1256.6204513660432 9353.15733470798
1257.4622188915 9560.830065367345
1258.3037797878242 9256.378819828122
1259.1451341129468 9092.800435823288
1259.9862819247755 9309.11234749656
1260.8272232811978 9201.813295692407
1261.6679582400666 9376.477989343828
1262.5084868592203 9026.406887222125
1263.34880919647 9127.05140496781
1264.1889253095997 9226.261406265941
1265.0288352563712 9325.759211543318
1265.8685390945266 9096.444550525917
1266.7080368817751 9232.75746863221
1267.5473286758115 9323.858740158263
1268.386414534294 9268.521866431327
1269.2252945148703 8889.189688219738
1270.0639686751547 9166.595932480772
1270.9024370727402 9058.111087552867
1271.7406997651997 9041.237745869803
1272.5787568100714 8883.45325679667
1273.4166082648808 9012.24145994217
1274.2542541871244 9093.096179941738
1275.091694634275 9260.03491033865
1275.9289296637817 8859.54954608266
1276.7659593330663 9050.554449953926
1277.6027836995308 9010.309311139155
1278.4394028205552 9183.874130755217
1279.2758167534867 8951.019018919775
1280.112025555658 8947.317143954891
1280.9480292843746 8959.977640619865
1281.7838279969128 8812.283215427418
1282.6194217505326 8937.536875890059
1283.4548106024686 8652.790376676807
1284.289994609926 8895.563292895695
1285.1249738300921 8985.31742073657
1285.959748320127 8730.363419690355
1286.7943181371702 8891.251029526804
1287.6286833383328 8812.502164846344
1288.4628439807038 8936.772723656579
1289.2968001213521 8831.500318515444
1290.1305518173194 8844.120803093627
1290.9640991256183 8938.120407702132
1291.7974421032523 8801.715069383403
1292.630580807183 8659.998980663475
1293.463515294361 8860.535899889916
1294.29624562171 9126.910003005207
1295.12877184613 8770.370391553142
1295.961094024493 8780.915051588403
1296.79321221365 8962.909911237834
1297.6251264704333 9036.439134450779
1298.4568368516466 9343.233379722005
1299.2883434140658 9080.356569300924
1300.1196462144526 8868.595370344028
1300.9507453095375 9159.846554224623
1301.7816407560313 9092.48630695158
1302.6123326106172 9007.641528346032
1303.4428209299622 8920.171890107431
1304.2731057707024 9371.16523217408
1305.1031871894502 9089.789228889389
1305.933065242798 9258.082062387137
1306.7627399873181 9168.7022107986
1307.5922114795467 9581.63481570615
1308.4214797760123 9440.965971000098
1309.2505449332057 9237.67167258794
1310.0794070076026 9223.842756731994
1310.9080660556538 9519.367205269995
1311.736522133786 9519.774272608844
1312.5647752983987 9306.826560028592
1313.3928256058734 9059.170724231344
1314.2206731125661 9407.004724182665
1315.048317874809 9331.159643005705
1315.8757599489109 9251.206236849703
1316.7029993911547 9442.041565425636
1317.5300362578055 9554.481100132196
1318.356870605101 9124.63329365666
1319.183502489257 9242.319277319193
1320.0099319664623 9352.777679647286
1320.836159092889 9384.180873394975
1321.66218392468 9446.823250326659
1322.4880065179532 9200.458558099665
1323.3136269288134 9326.561420808344
1324.1390452133292 9513.583103912726
1324.9642614275563 9516.435865921263
1325.7892756275214 9304.433457054638
1326.6140878692295 9175.995116188864
1327.4386982086617 9645.882412748022
1328.2631067017755 9399.990117011923
1329.0873134045069 9298.342412068381
1329.911318372764 9163.815702324751
1330.735121662441 9234.314393694538
1331.558723329399 9093.021470519747
1332.3821234294774 9106.434593234737
1333.2053220185007 9233.976018068195
1334.0283191522612 9162.539139905044
1334.851114886529 9181.380392801122
1335.6737092770582 9005.7165751468
1336.4961023795695 9024.277379109022
1337.3182942497697 8943.876448369718
1338.1402849433325 8992.780013075919
1338.962074515921 8832.421607639544
1339.7836630231632 8733.872857139018
1340.6050505206676 9334.702021127294
1341.426237064028 9093.139179469415
1342.2472227088037 8773.23376927391
1343.0680075105338 8597.583799909547
1343.888591524741 8946.246086756148
1344.7089748069138 9034.988974077703
1345.5291574125276 8839.379295249493
1346.3491393970307 8568.252593290961
1347.168920815846 8951.08894377889
1347.9885017243778 8887.788487667282
1348.8078821780036 8828.448437293187
1349.6270622320844 8697.63016541003
1350.4460419419447 8590.45626546628
1351.2648213629054 8839.846592473517
1352.0834005502438 8523.493377322851
1352.90177955923 8641.28378559318
1353.7199584451064 8923.816435535835
1354.5379372630887 8722.704508819803
1355.355716068374 8638.655458568934
1356.1732949161305 8636.393480754947
1356.9906738615155 8683.644931053754
1357.8078529596478 8734.425163480248
1358.6248322656375 8721.580967286136
1359.441611834567 8506.237708435492
1360.2581917214866 8849.462528287346
1361.0745719814367 8560.40546597815
1361.890752669433 8527.806398857949
1362.7067338404577 8439.644200380228
1363.5225155494845 8858.273976495997
1364.3380978514506 8769.77936592622
1365.1534808012839 8378.96106547571
1365.9686644538815 8170.841913253265
1366.783648864117 8714.204336010338
1367.5984340868417 8773.759920790346
1368.413020176893 8724.923760699488
1369.2274071890715 8411.855931066588
1370.0415951781652 8646.749489311636
1370.8555841989346 8489.277972601838
1371.6693743061223 8571.676999776486
1372.48296555444 8252.586810882383
1373.2963579985844 8652.9176507146
1374.1095516932255 8503.218156241172
1374.9225466930166 8254.17839183078
1375.7353430525782 8495.136591460589
1376.5479408265164 8358.049880847513
1377.36034006941 8714.328594039784
1378.1725408358216 8684.22885948583
1378.9845431802805 8364.334107869006
1379.796347157304 8893.620842948138
1380.6079528213813 8626.994567591148
1381.4193602269788 8390.026736166841
1382.230569428546 8390.174960973627
1383.0415804805016 8809.67513178181
1383.852393437246 8755.83542692918
1384.6630083531563 8755.63335327278
1385.4734252825892 8522.212782994751
1386.2836442798798 8699.094423709046
1387.0936653993322 8638.309988431793
1387.9034886952395 8627.879093791013
1388.713114221864 8700.684698207446
1389.5225420334482 8620.975057719852
1390.331772184214 8542.100810611857
1391.1408047283585 8158.406762015194
1391.9496397200564 8359.458044433713
1392.758277213461 8611.832898189288
1393.5667172627054 8481.523628497154
1394.3749599218918 8404.952237826094
1395.1830052451114 8069.9186102292615
1395.9908532864265 8226.882763671612
1396.7985040998774 8389.821085517504
1397.6059577394808 7985.526837192224
1398.4132142592352 8066.3093292722015
1399.2202737131156 8016.89175882041
1400.027136155073 8223.36437428608
1400.8338016390353 7848.74409880568
1401.6402702189134 7825.134995190385
1402.446541948586 7987.834436000742
1403.2526168819204 7694.009608731787
1404.058495072757 7847.073279266672
1404.8641765749107 7807.338589025387
1405.6696614421799 7805.373171362109
1406.4749497283356 8149.462105364025
1407.280041487129 7567.8177993206045
1408.084936772295 7363.196840449278
1408.8896356375335 7937.893179183219
1409.6941381365323 7674.3639862957525
1410.498444322955 7454.162918965174
1411.3025542504402 7491.251902830986
1412.106467972606 7592.768867395818
1412.9101855430508 7647.450630046735
1413.7137070153458 7342.8995901360395
1414.5170324430437 7523.038981067852
1415.320161879672 7658.266572210619
1416.1230953787435 7818.341649711993
1416.925832993742 7411.178482286507
1417.7283747781275 7239.88572429299
1418.5307207853439 7596.515893832618
1419.3328710688093 7496.706178158184
1420.134825681922 7082.8991792002225
1420.9365846780584 7431.770953467295
1421.7381481105713 7633.023289939303
1422.539516032788 7517.521822323417
1423.3406884980232 7243.167489641713
1424.1416655595604 7241.146210063928
1424.942447270665 7278.208368655105
1425.7430336845828 7490.993847761825
1426.5434248545298 7223.363883187805
1427.3436208337116 7495.496656498095
1428.143621675301 7484.946348330486
1428.9434274324558 7617.129303798292
1429.7430381583108 7201.768447001372
1430.5424539059713 7378.322307383224
1431.3416747285337 7864.953238095995
1432.1407006790632 7484.739626305565
1432.9395318106053 7417.923843006611
1433.7381681761835 7222.926072589131
1434.5366098288014 7509.809858494303
1435.3348568214424 7517.421313932316
1436.1329092070573 7336.51499627924
1436.9307670385879 7403.5661049403325
1437.7284303689503 7517.146061542895
1438.5258992510335 7547.0992081794275
1439.3231737377118 7477.450842415838
1440.1202538818306 7365.889126871749
1440.9171397362225 7270.3297717985915
1441.7138313536925 7268.192715942461
1442.5103287870243 7158.449711183505
1443.3066320889775 7066.732121187792
1444.1027413122956 7514.676187376824
1444.8986565096966 7260.917643713375
1445.694377733882 7250.814381783086
1446.4899050375207 6949.703645232172
1447.2852384732687 7282.206855286537
1448.0803780937622 7338.141902994347
1448.8753239516063 7018.506908301645
1449.6700760993954 6860.84419426158
1450.464634589689 7052.731749481757
1451.2589994750397 7475.201081286284
1452.0531708079689 6989.528932100358
1452.8471486409799 6949.045251257262
1453.6409330265524 7328.177372538972
1454.4345240171442 6988.9965778964515
1455.2279216651987 6972.522215792875
1456.0211260231263 6997.721222354713
1456.8141371433194 7095.417618732444
1457.6069550781594 7126.124848945253
1458.3995798799897 6803.823862092373
1459.1920116011424 6820.583882304118
1459.98425029393 6763.024703370121
1460.7762960106338 6808.751081355785
1461.5681488035225 6964.939474094746
1462.3598087248392 6877.894029433666
1463.1512758268036 7102.199292596811
1463.942550161617 6739.800400160147
1464.7336317814625 6720.972524508752
1465.524520738496 6800.166895349942
1466.3152170848552 6774.94204330836
1467.1057208726506 6795.81983043388
1467.8960321539817 6639.427471303439
1468.6861509809169 6526.485394172261
1469.4760774055085 6545.997060572947
1470.265811479785 6641.322384733763
1471.055353255755 6356.682021465999
1471.844702785409 6375.309658202676
1472.6338601207044 6376.938807526562
1473.4228253135934 6644.005058844146
1474.2115984159936 6306.379782665792
1475.0001794798063 6182.652637284812
1475.7885685569145 6537.716567519925
1476.576765699172 6470.609076871195
1477.3647709584238 6385.280092021518
1478.1525843864802 6590.774874412622
1478.9402060351367 6542.789532403613
1479.7276359561693 6563.975923496029
1480.514874201328 6345.77055899783
1481.3019208223468 6095.122527532
1482.0887758709323 6046.131042384767
1482.8754393987747 6497.704700847398
1483.6619114575406 6128.900487686399
1484.4481920988783 6328.509511951374
1485.2342813744108 6240.786611830132
1486.0201793357446 6590.33917397486
1486.8058860344572 6190.679084233286
1487.591401522117 6219.521650790777
1488.3767258502594 6322.126653160003
1489.1618590704056 6246.764506853687
1489.9468012340494 5961.553426186824
1490.7315523926754 6340.794976385788
1491.5161125977356 6425.285238365575
1492.3004819006637 6368.62420865732
1493.084660352877 6165.175149984027
1493.8686480057622 6363.81239489964
1494.6524449106964 6582.290141061417
1495.4360511190262 6558.03529236075
1496.219466682087 6327.112449975901
1497.0026916511779 6354.65860444209
1497.7857260775945 6291.946110194545
1498.5685700125996 6440.931444156127
1499.3512235074395 6090.870502322011
1500.133686613337 6102.818873381712
1500.9159593814966 6156.251418365009
1501.698041863101 6757.458772275126
1502.4799341093094 5984.91656122426
1503.2616361712662 5991.100907536157
1504.043148100087 6271.152063340067
1504.8244699468742 6256.076272027361
1505.6056017626997 6063.752018981149
1506.3865435986281 6009.417805517195
1507.1672955056893 6247.238162911139
1507.9478575348967 6047.239191908829
1508.7282297372512 6467.106064920468
1509.5084121637192 6205.58622332919
1510.2884048652577 6205.486926311517
1511.0682078927948 6144.769151530116
1511.8478212972423 6001.378561755026
1512.6272451294917 6076.8750765136465
1513.4064794404076 6235.03603127487
1514.1855242808433 6231.169601236839
1514.9643797016215 6155.828841028347
1515.743045753552 6334.581254414883
1516.5215224874191 6246.488629070207
1517.2998099539836 5907.20141999734
1518.077908203999 6148.440242287745
1518.8558172881785 6079.613929247681
1519.633537257234 6204.44760217999
1520.4110681618404 6182.123235825012
1521.1884100526604 6269.347237054132
1521.9655629803365 6169.790178038524
1522.7425269954856 6414.475365229927
1523.5193021487103 6600.083842279761
1524.2958884905856 6022.4801581284155
1525.0722860716687 5965.029072738399
1525.848494942502 6052.808936993106
1526.624515153595 6125.868141484748
1527.4003467554485 6139.3690231081555
1528.175989798534 6340.993668037492
1528.9514443333064 6231.51047509866
1529.726710410203 6544.779526211056
1530.5017880796331 6014.973165433837
1531.276677391992 6128.591876659659
1532.0513783976457 6468.635209457892
1532.825891146953 6270.683089180774
1533.6002156902414 6320.647847853596
1534.3743520778207 6185.217671739516
1535.1483003599806 6212.896870019124
1535.9220605869923 6297.0708443453605
1536.6956328091019 6408.86551703747
1537.4690170765407 6179.208674882362
1538.242213439511 6351.347669355625
1539.015221948208 6255.365369792458
1539.78804265279 6156.8978711271575
1540.560675603405 6045.205813800668
1541.3331208501804 6379.127007956374
1542.1053784432224 6517.744526384336
1542.8774484326168 6263.752870965673
1543.649330868422 6265.368285278431
1544.4210258006842 6281.87506454261
1545.1925332794308 6309.172264011902
1545.9638533546604 6372.470252137352
1546.7349860763552 6220.660124301364
1547.5059314944829 6594.012394940199
1548.27668965898 6256.981268511826
1549.0472606197673 6333.2224833225355
1549.817644426752 6200.69796604664
1550.5878411298072 6462.904321529555
1551.3578507787988 6382.830416896569
1552.1276734235635 6284.919499665587
1552.8973091139233 6400.94836126816
1553.6667578996767 6508.379593675251
1554.436019830604 6353.492508234531
1555.20509495646 6374.389616215178
1555.9739833269869 6271.14517921526
1556.7426849919011 6183.784995287614
1557.511200000903 6596.5788308750825
1558.2795284036674 6409.60397251358
1559.0476702498509 6393.9120302082065
1559.8156255890954 6633.153929184245
1560.5833944710157 6621.5917003832055
1561.3509769452048 6308.13198864636
1562.1183730612447 6331.635962086606
1562.8855828686865 6402.188071193853
1563.6526064170703 6775.225891213003
1564.4194437559127 6564.853160288764
1565.1860949347047 6247.671049732447
1565.9525600029283 6769.912472757189
1566.7188390100328 6817.291140577063
1567.4849320054564 6434.897045756871
1568.250839038612 6417.236478116411
1569.0165601588997 6377.327908338875
1569.7820954156887 6571.216911119261
1570.5474448583373 6449.017739816786
1571.31260853618 6374.616844399043
1572.0775864985299 6236.361971387634
1572.8423787946813 6499.6812002264915
1573.6069854739108 6288.273934323906
1574.371406585471 6521.900236200561
1575.1356421785986 6573.296367665562
1575.899692302506 6404.559417756621
1576.6635570063845 6463.1782375902585
1577.4272363394157 6357.361775705219
1578.190730350747 6219.226397488398
1578.9540390895163 6487.971868981192
1579.7171626048384 6114.1290665678625
1580.480100945806 6200.418881983094
1581.2428541614918 6329.869573127981
1582.0054223009538 6527.232709726704
1582.767805413223 6379.352681740986
1583.5300035473156 6418.059026376871
1584.292016752228 6481.121741677265
1585.0538450769309 6507.934623561986
1585.8154885703807 6077.057131449425
1586.5769472815136 6112.055010141814
1587.3382212592405 6319.581603681678
1588.099310552463 6532.747855867245
1588.8602152100484 6311.859168434458
1589.6209352808564 6400.681542269385
1590.3814708137234 6305.684407895826
1591.14182185746 6316.4118185950365
1591.9019884608679 6242.2314779122335
1592.6619706727215 6026.341892576536
1593.4217685417734 6310.165834403486
1594.1813821167616 6517.1415258466295
1594.9408114464022 5955.83272184552
1595.7000565793933 6140.979237425163
1596.459117564409 6255.698478351709
1597.2179944501113 6100.995062455163
1597.9766872851324 6074.576795204681
1598.735196118092 6332.93336342856
1599.4935209975883 6192.675181891673
1600.2516619721973 6392.557578894037
1601.0096190904787 6108.151544621775
1601.7673924009723 6059.747988053493
1602.524981952196 5983.9823885455835
1603.2823877926476 6044.896915534317
1604.0396099708087 5984.452061703623
1604.7966485351371 5794.357463711569
1605.5535035340745 6008.29931416791
1606.3101750160404 6290.982025328483
1607.0666630294363 6001.900029317826
1607.822967622642 5695.61399025488
1608.5790888440224 6007.522510683594
1609.3350267419137 6169.754353072437
1610.0907813646445 6052.220361982247
1610.8463527605145 6000.452974516592
1611.601740977805 6128.409704978987
1612.356946064785 6102.261172228818
1613.1119680696902 5680.242810516713
1613.8668070407512 5823.468113233466
1614.6214630261748 5897.853843465061
1615.375936074137 6041.370353308259
1616.1302262328118 5915.297645414442
1616.8843335503425 5873.502697037487
1617.638258074854 5736.186342445123
1618.391999854457 5936.284503748643
1619.1455589372363 6023.752904653941
1619.8989353712623 5975.237126102066
1620.65212920458 5517.427025158899
1621.4051404852235 5762.3938223501955
1622.1579692611976 5797.94282117134
1622.9106155804966 5581.872978829297
1623.663079491087 5748.7795265563345
1624.4153610409248 5908.9335001592135
1625.1674602779385 5613.999152743016
1625.9193772500403 5550.041011638217
1626.6711120051277 6039.5352597557085
1627.4226645910676 5853.378914982777
1628.174035055721 5519.203280655436
1628.9252234469168 5681.666223708224
1629.676229812474 5687.997744751961
1630.4270542001905 5961.684826968454
1631.1776966578382 5705.588580319518
1631.9281572331747 5618.718874082209
1632.678435973945 5821.056764862822
1633.4285329278573 5632.058115860013
1634.1784481426203 5373.478524760548
1634.9281816659113 5592.840286596363
1635.677733545388 5805.6649876147
1636.4271038286934 5549.98995760402
1637.176292563452 5604.092477202843
1637.9252997972635 5672.899563332119
1638.674125577716 5676.499339577521
1639.4227699523672 6113.252931004436
1640.171232968767 5314.007672262616
1640.9195146744423 5556.144821638727
1641.6676151168977 5885.2248599273435
1642.4155343436178 5839.2740372444805
1643.1632724020765 5564.976083633279
1643.9108293397167 5576.7586429316925
1644.658205203974 5451.500826023037
1645.4054000422566 6195.519421016206
1646.1524139019566 5523.804927053078
1646.8992468304423 5478.387824186774
1647.6458988750728 5630.941760267287
1648.3923700831765 5574.507249855536
1649.1386605020743 5485.182338401592
1649.8847701790564 5799.86459843354
1650.6306991614038 5766.179174968309
1651.3764474963682 5719.134020408456
1652.1220152311944 5394.015761095358
1652.867402413096 5709.99310621269
1653.6126090892776 5732.551921295001
1654.3576353069184 5846.298275759282
1655.1024811131829 5672.574451218445
1655.8471465552066 5589.880770024909
1656.5916316801213 5856.332773955111
1657.3359365350298 5747.101042492586
1658.0800611670165 5580.079254123301
1658.824005623148 5557.768621040905
1659.5677699504722 5446.071194913466
1660.3113541960192 5752.77041001398
1661.054758406799 5517.679156478975
1661.7979826297997 5458.967231517932
1662.5410269119966 5365.413997060392
1663.283891300338 5611.730084280772
1664.0265758417645 5428.658899505977
1664.7690805831826 5578.2442782278795
1665.5114055714948 5667.716784834205
1666.2535508535748 5981.365762473697
1666.9955164762814 5148.798257044359
1667.7373024864555 5488.62377808412
1668.478908930916 5499.26707121578
1669.220335856462 5439.931602043211
1669.9615833098778 5361.05696446006
1670.7026513379296 5259.910533632622
1671.44353998736 5441.868668841582
1672.1842493048916 5558.779358245683
1672.9247793372379 5305.704766593845
1673.6651301310812 5600.414670371471
1674.4053017330934 5337.943492223212
1675.1452941899242 5529.779985506774
1675.885107548207 4964.720890293716
1676.6247418545518 5029.289905403535
1677.3641971555535 5227.135945194554
1678.1034734977893 5463.048032177458
1678.8425709278108 5382.325772340804
1679.5814894921605 5501.559420171913
1680.320229237359 5335.128659561959
1681.0587902098978 5373.994459382066
1681.7971724562685 5177.9958497477255
1682.5353760229264 5082.502141188463
1683.2734009563173 5259.38598722967
1684.0112473028657 4940.890478112122
1684.7489151089794 5232.790262343988
1685.4864044210462 5218.21476597362
1686.2237152854377 4751.352252560936
1686.960847748498 5301.891255969522
1687.6978018565642 4858.081462700644
1688.434577655944 4827.523842261032
1689.1711751929379 4815.2174611822475
1689.9075945138156 4961.229155138618
1690.6438356648396 4880.052252295758
1691.3798986922448 4495.325243956533
1692.1157836422499 4799.773103230147
1692.851490561059 4672.410153733662
1693.587019494853 4865.239498677302
1694.3223704897991 4540.058564496276
1695.0575435920364 4527.2947192292
1695.792538847696 5121.106086967119
1696.527356302886 4705.696436991795
1697.2619960036936 4411.897009952087
1697.9964579961907 4397.22595940076
1698.730742326432 4287.522401129768
1699.4648490404488 4213.667121770812
1700.1987781842563 4490.664216721322
1700.9325298038548 4584.853887951411
1701.6661039452174 4786.306478522955
1702.3995006543082 4552.302530217228
1703.1327199770658 4686.776719288193
1703.865761959416 4078.0622343938
1704.598626647261 4720.95368327694
1705.3313140864866 4265.606265532836
1706.0638243229587 4384.186913952783
1706.7961574025303 4483.884358360427
1707.528313371029 4323.976247583515
1708.260292274268 4094.945717782915
1708.9920941580403 4412.192495592927
1709.7237190681226 4282.138216982869
1710.4551670502697 4255.961699340769
1711.18643815022 3954.8302710730545
1711.9175324136959 4669.773206545697
1712.6484498863938 4281.081144135245
1713.379190614005 4088.717434236924
1714.109754642188 4196.277152167894
1714.8401420165883 4169.124516025475
1715.570352782839 4789.080618141324
1716.3003869865497 4253.836123992083
1717.0302446733076 4023.0974957463636
1717.7599258886876 4117.694143886672
1718.4894306782444 4531.752301440958
1719.2187590875183 3957.6021951840567
1719.9479111620203 4425.16473194127
1720.6768869472544 4058.596774465056
1721.4056864887025 4398.273071316415
1722.1343098318284 4462.03250787678
1722.8627570220742 4117.883599837487
1723.591028104871 3915.7309185941713
1724.3191231256242 3813.792968425234
1725.0470421297232 4128.7878773930925
1725.7747851625427 4253.581281957242
1726.5023522694337 4291.608216603179
1727.2297434957363 4017.494774406013
1727.9569588867635 3852.938855638663
1728.6839984878152 4223.602366487311
1729.4108623441734 3769.430146007625
1730.1375505011038 4193.118221046825
1730.8640630038426 3843.511340202239
1731.5903998976264 3856.863861256434
1732.316561227657 4094.0668336745575
1733.0425470391274 3750.1147331758243
1733.7683573772065 4090.0036890868455
1734.4939922870508 3863.22346947786
1735.2194518137949 3989.478145063652
1735.9447360025606 3965.7935191880943
1736.669844898439 3886.1164956035964
1737.3947785465189 3837.2605104507757
1738.1195369918605 3705.494009729061
1738.8441202795093 3935.4873328696385
1739.5685284544943 3900.113252377904
1740.292761561821 4081.816302900484
1741.0168196464838 4114.979780611056
1741.7407027534518 3988.703299760097
1742.464410927687 4000.3179108539807
1743.187944214118 3895.435140465801
1743.9113026576688 3776.032831714057
1744.634486303241 3824.9785231279993
1745.3574951957125 3801.2133244960505
1746.0803293799509 3979.3178875046424
1746.8029889008048 3830.534220643367
1747.5254738031017 3893.6825382065254
1748.2477841316504 3678.3468597876854
1748.969919931249 3874.455668641103
1749.6918812466665 3764.6347044027434
1750.4136681226646 3955.804471802625
1751.1352806039777 3831.183933377044
1751.856718735331 3528.741413278846
1752.5779825614281 3668.5194500933235
1753.2990721269507 3939.374158750611
1754.0199874765676 3962.545220299801
1754.7407286549314 3672.3928358502935
1755.4612957066693 3801.935374974074
1756.1816886763954 3622.919968430169
1756.9019076087097 3976.24419292908
1757.6219525481865 3936.2079147790887
1758.3418235393856 3916.003483124693
1759.061520626854 3742.7046657355613
1759.7810438551096 4051.632057099744
1760.5003932686614 3605.074418514465
1761.2195689119999 4072.545248989975
1761.938570829594 3836.797720386011
1762.657399065898 3796.5104121316713
1763.376053665348 3607.969654339312
1764.0945346723602 3615.2037235113594
1764.812842131334 3935.8270360300185
1765.5309760866512 3584.047900258479
1766.2489365826787 3550.244859623877
1766.9667236637597 3715.3327307293475
1767.684337374223 3451.361194147862
1768.401777758383 3486.5599052653065
1769.1190448605284 3604.258922012729
1769.836138724937 3422.8942583674448
1770.5530593958665 3765.4066021114586
1771.2698069175603 4116.638182126858
1771.9863813342326 3849.406369670573
1772.702782690094 3683.2509425018275
1773.4190110293293 3747.490436485913
1774.1350663961111 3739.7790403329127
1774.8509488345844 3627.1990830849622
1775.5666583888924 3801.6201356162346
1776.2821951031437 3854.6439646113963
1776.9975590214362 3544.6366837404667
1777.7127501878585 3883.173523206386
1778.4277686464684 3812.352347675038
1779.1426144413108 3969.2396758454256
1779.8572876164162 3818.6429449889683
1780.571788215797 3423.9650496800327
1781.2861162834415 3621.7475143325078
1782.0002718633277 3608.460771344265
1782.7142549994132 3694.1685872506714
1783.4280657356376 3667.0768291063823
1784.141704115922 3476.761192103004
1784.855170184177 3599.1185850883676
1785.5684639842839 3661.643932064565
1786.2815855601148 3238.181024452712
1786.9945349555237 3764.7934928578557
1787.707312214343 3414.578690772871
1788.4199173803918 4045.414737118191
1789.132350497468 3389.642166901911
1789.8446116093583 3518.0541500656677
1790.556700759822 3440.5373694682517
1791.2686179926077 3558.2776375768162
1791.9803633514493 3541.1189666789955
1792.6919368800554 3372.192230467056
1793.4033386221236 3692.673572873283
1794.1145686213295 3745.686889824702
1794.8256269213307 3813.473152255146
1795.536513565774 3693.80179154789
1796.247228598284 3224.596959066156
1796.9577720624693 3397.017474014546
1797.6681440019165 3706.9496476474974
1798.3783444602013 3445.009541711787
1799.0883734808776 3655.741899897251
1799.7982311074884 3640.0829822197147
1800.5079173835475 3582.119675332092
1801.2174323525633 3704.568675904815
1801.9267760580187 3566.0213877054157
1802.635948543386 3565.9466503377384
1803.3449498521113 3349.9202969678167
1804.0537800276325 3524.9339825219186
1804.7624391133668 3610.7319239357357
1805.47092715271 3228.5843577323894
1806.1792441890484 3306.1293950847744
1806.8873902657433 3660.116589334725
1807.5953654261448 3592.9606896572623
1808.3031697135812 3298.9624865544856
1809.0108031713662 3415.223325624146
1809.71826584279 3552.3707880929223
1810.425557771141 3513.0851977668294
1811.1326789996747 4040.825667293973
1811.839629571632 3378.792833777231
1812.5464095302468 3331.274780620076
1813.2530189187182 3551.357017521996
1813.959457780249 3404.310156908499
1814.6657261580076 3663.713187522356
1815.371824095153 3487.3324423928834
1816.0777516348262 3684.4135284902236
1816.78350882015 3004.763699641804
1817.4890956942272 3238.8258135812657
1818.1945123001533 3430.5527633342876
1818.8997586809928 3390.5973047548187
1819.6048348798067 3338.039563255981
1820.3097409396287 3428.713294126303
1821.0144769034796 3782.7236427213675
1821.7190428143622 3603.1944986804942
1822.423438715261 3572.7268610988076
1823.1276646491478 3320.3405080845164
1823.8317206589727 3422.1062326048063
1824.5356067876692 3417.9322093756405
1825.2393230781581 3347.2811033652624
1825.942869573335 3031.9448928846923
1826.646246316086 3240.2629500677335
1827.3494533492758 3454.584216814236
1828.052490715756 3501.6775616246878
1828.7553584583547 3380.606124970388
1829.458056619891 3460.7101852563087
1830.1605852431585 3195.817343418965
1830.8629443709433 3222.27870065967
1831.5651340460063 3220.2718266665897
1832.2671543110919 3328.870610474466
1832.9690052089318 3458.02422345807
1833.6706867822395 3124.2654876375677
1834.3721990737104 3444.880454869051
1835.0735421260233 3506.951271237462
1835.774715981841 3313.3728413640697
1836.4757206838058 3647.8721240230307
1837.1765562745459 3256.306978768197
1837.8772227966747 3202.693504223903
1838.5777202927839 3309.9202972194566
1839.2780488054523 3266.4511876575366
1839.9782083772352 3295.143150202958
1840.6781990506806 3597.7862368701803
1841.378020868313 3317.49520920182
1842.0776738726418 3324.7241965793373
1842.777158106157 3217.6672812184247
1843.4764736113375 3112.328529899222
1844.1756204306403 3469.237746971618
1844.8745986065078 3299.3980316247494
1845.5734081813607 3025.887348352927
1846.2720491976124 3089.019987721037
1846.970521697649 3099.3365100817036
1847.6688257238511 3285.4526827438217
1848.3669613185684 3200.568716433242
1849.0649285241452 3000.133065177702
1849.7627273829057 3400.4283750771365
1850.460357937156 3255.873411664419
1851.1578202291857 2971.6306192508428
1851.8551143012664 3255.6547137483903
1852.5522401956569 3343.9367944198702
1853.2491979545957 3547.4356707735233
1853.9459876203055 3095.402278610164
1854.6426092349902 3147.625391041436
1855.3390628408451 2952.024938041467
1856.0353484800362 3520.8527500403516
1856.7314661947203 3375.8376627495236
1857.4274160270397 3016.421333300029
1858.123198019115 3085.39642857534
1858.8188122130487 2954.5663559881805
1859.5142586509319 3044.365750319262
1860.209537374838 3194.9578908028834
1860.9046484268183 3078.5724900751093
1861.599591848917 3533.182918256175
1862.294367683151 3021.5147779369845
1862.988975971528 3127.168789534432
1863.6834167560355 3239.897652937424
1864.3776900786452 3393.679996242943
1865.0717959813119 3180.8862927407176
1865.7657345059724 3053.271345048993
1866.4595056945564 3224.816954830669
1867.1531095889586 3174.943183078981
1867.846546231076 3040.332685944058
1868.5398156627743 3306.181317038906
1869.2329179259123 2961.4934451755116
1869.9258530623283 3334.659187498413
1870.618621113843 2941.1072609960543
1871.3112221222636 3005.803526375894
1872.0036561293764 3028.3503973025995
1872.695923176956 3270.601374424349
1873.3880233067594 3339.0209957755847
1874.0799565605212 2993.826227488153
1874.7717229799673 3100.9631441045512
1875.4633226068036 3321.176976383299
1876.1547554827175 3309.7451577203633
1876.8460216493859 3006.0117723388475
1877.5371211484617 3123.3561413588195
1878.2280540215852 3329.317916706345
1878.9188203103804 2972.559715744274
1879.6094200564548 3100.6871963087624
1880.299853301396 2911.5703541694506
1880.9901200867826 3274.0058534531877
1881.6802204541673 3192.9864723293376
1882.3701544450942 3213.093643807749
1883.059922101087 2828.588006015377
1883.7495234636517 3378.7075188640883
1884.4389585742792 2963.3997886435272
1885.1282274744517 2919.0541789503486
1885.8173302056166 2999.01553159161
1886.506266809225 3079.0883305981633
1887.195037326701 2687.440563176932
1887.8836417994517 2974.330422483157
1888.5720802688702 3364.519041525582
1889.260352776333 3251.602851346938
1889.9484593632042 3313.2076379050436
1890.63640007082 2983.3544238209074
1891.3241749405151 2896.9822978820084
1892.0117840135954 3167.770948507426
1892.6992273313572 3005.109831637977
1893.3865049350788 2888.01287623163
1894.0736168660223 3509.4493088730114
1894.7605631654333 3227.586122079155
1895.4473438745408 2859.5326098077812
1896.133959034556 3401.6472552220775
1896.820408686679 3161.0375838339583
1897.506692872088 3233.3392710306375
1898.192811631945 3049.088823671953
1898.8787650073991 3016.523415608888
1899.5645530395832 3284.318837879337
1900.2501757696118 3267.520645845933
1900.9356332385796 2802.555745321725
1901.620925487574 2971.2126038711936
1902.3060525576602 3140.393821964498
1902.9910144898859 3256.980395703292
1903.6758113252872 2925.7644983947716
1904.3604431048789 3110.9454590235528
1905.0449098696663 3165.397482345058
1905.7292116606295 2998.3318027200135
1906.4133485187394 3183.373029815797
1907.0973204849488 2696.8395558693246
1907.7811276001976 2854.3857137080918
1908.4647699053967 3072.6287484051268
1909.1482474414588 2478.708673705208
1909.8315602492694 2919.8116203343334
1910.5147083696957 3279.796350846557
1911.1976918436012 3038.8834885556907
1911.880510711815 2865.5208097893124
1912.5631650151681 3357.5769097366597
1913.2456547944657 2898.2951915866824
1913.927980090495 3012.8529126202584
1914.6101409440362 2930.083447375031
1915.2921373958416 3150.139918835589
1915.9739694866603 2987.9484185442257
1916.655637257214 3241.767679757965
1917.3371407482136 3008.200382094086
1918.0184800003572 3333.7382390614925
1918.6996550543154 3183.2103394045907
1919.3806659507554 3045.31964632458
1920.0615127303208 3115.002117664844
1920.7421954336423 3204.1156061108672
1921.4227141013343 3260.683590475262
1922.103068773993 2967.68108100919
1922.783259492202 3364.631751640799
1923.4632862965227 2866.7504398176416
1924.1431492275078 2871.336595136051
1924.8228483256917 2856.506564702605
1925.5023836315922 2983.5589869773025
1926.1817551857057 2651.7037887029596
1926.8609630285227 3349.7718941961407
1927.5400072005123 3019.7927665390084
1928.218887742125 2904.6196134344113
1928.8976046938005 2823.133193618566
1929.5761580959588 3116.73147953808
1930.2545479890086 2992.5163463483927
1930.9327744133352 2683.9745182299816
1931.6108374093164 2955.3001676113236
1932.2887370173066 2773.229403221249
1932.9664732776473 2590.6654589601785
1933.6440462306673 2990.130371309552
1934.3214559166754 2905.4862611023846
1934.9987023759659 3314.4740114589868
1935.675785648813 3047.0355159397627
1936.3527057754836 2586.5594768586025
1937.029462796223 2697.9592985759255
1937.70605675126 2809.6600785367464
1938.3824876808085 2845.1029731024187
1939.058755625072 2798.7897298739335
1939.7348606242267 2841.080577264484
1940.4108027184448 3024.752945112027
1941.0865819478713 3010.083642260512
1941.7621983526478 2739.9297880949916
1942.4376519728921 2695.162987260567
1943.1129428487038 2926.3956721356726
1943.7880710201734 2942.098726796351
1944.4630365273733 2954.8687060764178
1945.1378394103576 2677.0621388449217
1945.8124797091714 2668.6904112954035
1946.4869574638324 2660.2087320751975
1947.161272714353 2833.488477547227
1947.8354255007234 3081.3762223610465
1948.5094158629272 2789.377422880144
1949.1832438409183 2986.3275090318484
1949.8569094746435 3081.9559215297563
1950.530412804037 3216.5117462353874
1951.2037538690092 3021.503307956375
1951.8769327094578 2827.0793503335276
1952.5499493652678 2901.3962988159033
1953.222803876306 3206.188186840536
1953.895496282421 2916.6875552411557
1954.5680266234522 2974.2854515980234
1955.2403949392155 3120.5189009713313
1955.9126012695142 2734.4015191599515
1956.5846456541403 2928.3679154835536
1957.2565281328643 2832.6206216397854
1957.9282487454457 3052.435926995667
1958.5998075316202 3082.015973255905
1959.27120453112 2772.213269073935
1959.9424397836501 2800.860157610572
1960.613513328908 3077.5592059872843
1961.2844252065697 3283.07431537504
1961.9551754563017 2716.253010240681
1962.6257641177453 2711.365060850758
1963.29619123054 2649.3211948243293
1963.966456834296 2732.6432583737287
1964.6365609686181 2561.0398044356903
1965.306503673086 2936.702382183493
1965.976284987275 2668.289447441295
1966.645904950734 2939.759526967542
1967.315363603002 2561.421516242813
1967.9846609836077 2832.872670683845
1968.6537971320486 2685.8762604200897
1969.3227720878222 2865.4947045416307
1969.9915858904042 2663.9124642049737
1970.660238579252 2861.4283630058862
1971.3287301938108 2785.4633200847425
1971.997060773514 2788.8130126827796
1972.665230357772 2710.372753061794
1973.3332389859843 2707.398542089923
1974.0010866975335 2535.1868608496925
1974.6687735317864 2863.74015595693
1975.3362995280932 2834.460646180928
1976.003664725793 2874.5608641126787
1976.6708691642052 2446.172349350179
1977.3379128826364 2750.3265759128144
1978.004795920373 2898.373398938476
1978.6715183166925 2674.385463165281
1979.3380801108524 2450.1335544322205
1980.0044813420973 2896.437627682507
1980.6707220496555 2441.2301898044743
1981.3368022727373 2749.644688350354
1982.0027220505417 2877.8384674082963
1982.66848142225 2394.174774485067
1983.3340804270283 2579.73739583153
1983.999519104027 2789.823105760296
1984.6647974923835 2857.875145698501
1985.329915631215 3074.6958922202216
1985.99487355963 2712.7101227650837
1986.6596713167146 2989.9786885977283
1987.3243089415428 2599.7954329011623
1987.9887864731754 2900.4494350107007
1988.6531039506553 2667.8125080401614
1989.3172614130071 2601.421524560229
1989.9812588992481 2534.956857394489
1990.645096448372 2416.8248923363763
1991.3087740993633 2723.7984010535315
1991.9722918911848 2613.808881909285
1992.635649862792 2762.328718886709
1993.2988480531185 2946.724090027412
1993.9618865010852 3180.3648277247644
1994.6247652455968 2659.659207100528
1995.287484325545 2455.7803818477773
1995.9500437798033 2734.920818981161
1996.6124436472292 2654.4277250804507
1997.2746839666706 2956.0906363423883
1997.936764776954 2684.381577793997
1998.598686116895 2619.984101948872
1999.2604480252903 3071.368303770286
1999.9220505409212 2937.2573472619333
2000.5834937025593 2595.0007868677158
2001.2447775489582 2717.035141010472
2001.9059021188514 2764.9219546037198
2002.5668674509616 2711.6117222735365
2003.2276735839987 2668.3038764037947
2003.8883205566508 3022.301103423159
2004.5488084075987 2645.1434087428197
2005.2091371755014 2753.456495338014
2005.8693068990033 2337.437813474839
2006.5293176167397 2947.193475776312
2007.1891693673224 2561.155220265353
2007.848862189354 2493.135333694584
2008.5083961214223 2627.7234837349224
2009.1677712020955 2633.863000746061
2009.8269874699254 2557.946209503976
2010.4860449634598 2512.7466305053154
2011.1449437212177 2467.576694786044
2011.8036837817108 3016.6522942032266
2012.4622651834325 3025.21152828663
2013.1206879648653 2830.5402209098165
2013.7789521644736 2585.480939155791
2014.4370578207036 2942.2269794941053
2015.0950049719922 2706.5767132729297
2015.7527936567585 2831.914942264626
2016.4104239134067 2611.0758568391075
2017.067895780323 3205.046650373993
2017.725209295886 3157.6387416356947
2018.3823644984514 3110.021948850167
2019.0393614263648 2786.0525962528973
2019.6962001179545 2623.8972862566447
2020.3528806115355 2943.7570697405877
2021.0094029454067 2694.9986850002033
2021.6657671578487 2355.898145393752
2022.321973287133 2682.204304826442
2022.9780213715148 2677.5527192761683
2023.6339114492293 2576.499831419952
2024.2896435585026 2622.472166999746
2024.9452177375442 2618.1505398027725
2025.600634024544 2963.1714207813134
2026.2558924576842 2801.9462515768714
2026.9109930751292 2917.096458347117
2027.565935915025 2575.4127584167063
2028.2207210155066 3033.494225106778
2028.8753484146964 3175.607956119341
2029.529818150695 3069.7864489244866
2030.1841302615903 2963.4237883566648
2030.8382847854573 2457.7730121789987
2031.4922817603601 2792.671718141982
2032.1461212243357 2657.167551945229
2032.7998032154192 2347.73651515076
2033.4533277716218 2589.4750524691967
2034.1066949309443 2461.131272085066
2034.7599047313688 2511.5831509194973
2035.4129572108704 2765.556946510457
2036.0658524074006 2672.9282597548595
2036.7185903589016 2744.410415980808
2037.3711711032956 2931.953029541699
2038.023594678496 2661.8595832234846
2038.675861122394 2404.7860277294376
2039.3279704728757 2989.353347757925
2039.9799227678031 2591.9260345438856
2040.6317180450278 2529.740711561738
2041.2833563423865 2588.516379016986
2041.9348376977014 3129.9808917054984
2042.5861621487784 2923.4471123748253
2043.2373297334088 2854.416954923541
2043.8883404893695 2816.2239098450673
2044.5391944544208 2654.822259111912
2045.1898916663158 2888.5750257275936
2045.8404321627804 3121.324819697613
2046.4908159815368 2555.909313440744
2047.1410431602853 2566.4591988387147
2047.7911137367173 2379.5778282495467
2048.441027748504 2855.133960493316
2049.090785233302 2442.4664593104617
2049.7403862287592 2522.129232280205
2050.389830772503 2370.5576358079225
2051.0391189021466 2218.910314860412
2051.688250655294 2666.3631286565037
2052.337226069527 2319.282994908097
2052.986045182417 2847.613533933452
2053.634708031521 2841.90132418168
2054.283214654375 2836.3714432197908
2054.931565088511 2331.101708812097
2055.579759371436 2296.998607508188
2056.2277975406523 2743.074205674466
2056.8756796336384 2766.581525244246
2057.5234056878617 2218.2310957060463
2058.1709757407752 2458.176920291701
2058.8183898298194 2835.020674731717
2059.465647992416 2892.275279070941
2060.1127502659747 2917.603289766484
2060.759696687888 2272.000421462292
2061.4064872955405 2731.242398908735
2062.053122126292 2847.273461907898
2062.699601217497 2205.0655856569347
2063.345924606485 2573.100672509133
2063.992092330587 2782.696388985077
2064.638104427102 2416.066337652723
2065.283960933324 2890.4641833692613
2065.92966188653 2661.1146133523293
2066.5752073239855 2982.6787982511714
2067.2205972829397 2368.992945881111
2067.86583180062 2604.314535117227
2068.5109109142522 2467.82661118375
2069.15583466104 2577.1116554856026
2069.8006030781708 2351.6848758176943
2070.445216202821 2522.5341107321306
2071.089674072153 2796.1064899503644
2071.7339767233116 2827.0259737615875
2072.3781241934303 2643.5040368921354
2073.0221165196253 2733.816200957584
2073.6659537390024 2377.768594915867
2074.3096358886505 2370.5227197543136
2074.953163005637 2363.362383759498
2075.596535127028 2296.189991619918
2076.2397522898664 2407.563724500763
2076.882814531182 2658.8474948042604
2077.5257218879924 2795.818895913136
2078.1684743973 2364.0192801973512
2078.8110720960885 2356.303814087764
2079.453515021336 2975.5658769144784
2080.095803209997 2649.776924569225
2080.7379366990135 2551.1784463130125
2081.37991552532 2653.7100182341687
2082.0217397258275 2557.212750162338
2082.6634093374414 2278.7214209532963
2083.3049243970418 2532.2912753758687
2083.9462849415067 2749.440798165031
2084.587491007689 2567.9454181131855
2085.2285426324324 2628.8270820301614
2085.869439852564 2584.809023469333
2086.510182704902 2382.3572415896715
2087.1507712262483 2422.635185812342
2087.791205453381 2218.4960977983174
2088.4314854230743 2765.2847636363417
2089.0716111720867 2671.2371840763526
2089.7115827371617 2235.619213324498
2090.351400155023 2296.8290523239293
2090.991063462385 2358.2644138364567
2091.6305726959527 2260.40642594743
2092.2699278924047 2717.3608772292328
2092.9091290884153 2385.323248875553
2093.548176320641 2317.820460568159
2094.187069625721 2645.4934079832947
2094.8258090402887 2239.780103753119
2095.464394600951 2797.8226180743177
2096.102826344313 2575.6157025808534
2096.741104306955 2744.1099025369044
2097.379228525453 2329.6823542183643
2098.017199036358 2055.6035834972186
2098.6550158762147 2708.4691284807295
2099.2926790815527 2654.7954772022795
2099.9301886888825 2553.7137912677886
2100.5675447347076 2319.9467385316516
2101.2047472555114 2845.598430111576
2101.841796287761 2445.740141520332
2102.47869186792 2614.4241700532452
2103.1154340324265 2402.312397082923
2103.752022817709 2463.180669826031
2104.388458260184 2413.5202219923717
2105.024740396251 2469.8127778228522
2105.660869262292 2355.6993186530176
2106.296844894685 2721.4045908202634
2106.93266732978 2515.368650939702
2107.5683366039284 2306.514456347616
2108.2038527534532 2665.255321193826
2108.8392158146726 2781.3542287323417
2109.4744258238843 2434.0535962214517
2110.1094828173755 2478.0636966788625
2110.744386831422 2865.512012627839
2111.3791379022787 2643.739627537713
2112.01373606619 2806.658445588004
2112.648181359389 2591.490907924543
2113.28247381809 2586.395321540352
2113.916613478492 2600.5879842922504
2114.550600376786 2528.4987698174646
2115.1844345491445 2256.7873069844127
2115.818116031729 2334.7141448166644
2116.451644860679 2592.91938064925
2117.085021072133 2174.903425972721
2117.718244702204 2381.963121462361
2118.3513157869984 2326.6911929265834
2118.984234362604 2235.764591482711
2119.617000465092 2362.361828925526
2120.249614130529 2811.1106746598407
2120.8820753949585 2465.3408810045116
2121.5143842944162 2371.718415552244
2122.14654086492 2308.7793688778793
2122.7785451424734 2554.334861071672
2123.4103971630702 2105.7521664442365
2124.042096962681 2694.50674221273
2124.6736445772767 2662.2755529455303
2125.305040042802 2226.3164388366995
2125.936283395191 2422.2344218374683
2126.567374670365 2582.646093992214
2127.198313904233 2335.401021839888
2127.8291011326855 2247.3897653783433
2128.4597363916037 2158.9273042785503
2129.0902197168507 2388.335703967902
2129.720551144279 2157.529423523916
2130.3507307097225 2749.2480194326017
2130.980758449008 2929.180744443999
2131.6106343979427 2303.8333480306205
2132.2403585923203 2639.3560342809487
2132.8699310679276 2668.133605554259
2133.499351860526 2474.64868519292
2134.1286210058715 2454.6150801753815
2134.7577385397053 2652.7211261551647
2135.3867044977487 2851.1628425090043
2136.0155189157176 3004.341309576306
2136.644181829308 2653.3015408621645
2137.2726932742025 2610.1778906422724
2137.901053286074 2746.4624857706867
2138.5292619005777 2338.3524513095786
2139.1573191533535 2298.9485275432385
2139.7852250800315 2620.397006312435
2140.4129797162295 2485.6300135965116
2141.0405830975433 2171.7712053310806
2141.6680352595613 2210.4042876362937
2142.2953362378576 2249.1365419909957
2142.9224860679915 2263.960792253001
2143.549484785508 2455.8668770423487
2144.1763324259373 2312.6849491817375
2144.803029024799 2311.069673992402
2145.429574617594 2384.1583358222515
2146.0559692398165 2636.170391358036
2146.682212926942 2117.3708995135103
2147.308305714432 2286.560412202239
2147.9342476377333 2712.732823066468
2148.5600387322847 2845.3888049514235
2149.185679033506 2410.3665515246194
2149.8111685768017 2276.913232610617
2150.4365073975678 2160.0512187271397
2151.061695531187 2117.2541089716333
2151.686733013021 2667.3192300857827
2152.311619878423 2594.618113275211
2152.9363561627342 2283.7016374936743
2153.560941901278 2042.536142052472
2154.1853771293663 2447.141162295281
2154.809661882293 2483.755669903442
2155.433796195348 2883.591325381638
2156.0577801037944 2748.926443768997
2156.681613642895 2613.8515397044152
2157.3052968478896 2228.984478269015
2157.928829754006 2572.0574262327173
2158.552212396462 2578.235024251442
2159.1754448104566 2368.2522516810586
2159.7985270311783 2187.9190725980493
2160.4214590938027 1726.4987351004347
2161.0442410334927 2085.2695283893395
2161.6668728853874 2107.713978172637
2162.289354684628 2130.2928055329817
2162.911686466332 2416.8832178643597
2163.533868265602 2666.394791758629
2164.1559001175337 2831.99932170858
2164.7777820572046 2520.4023239673948
2165.399514119681 2357.511319670876
2166.021096340013 2251.504452919608
2166.6425287532384 2219.489880783254
2167.263811394385 2187.550304038659
2167.8849442984574 2623.3516054768525
2168.505927500455 2311.839165931814
2169.126761035366 2523.367867389653
2169.7474449381552 2161.858885526696
2170.367979243778 1954.0109629039646
2170.9883639871823 2722.0642584760885
2171.608599203293 2215.3060295249597
2172.2286849270276 2943.7565470809295
2172.8486211932886 2997.6806121485542
2173.4684080369625 2311.1225057260726
2174.0880454929265 2249.391173949037
2174.7075335960417 2030.2745882937656
2175.3268723811543 2138.6134675946896
2175.9460618831 2247.25576539405
2176.565102136701 2149.3766906364517
2177.1839931767627 2277.001286865573
2177.802735038078 2404.995875964748
2178.421327755432 2248.4428591818
2179.0397713635866 2134.0882387210404
2179.658065897298 2303.6445917406427
2180.276211391305 2583.089436232825
2180.8942078803357 2273.06651940579
2181.5120553991 2397.5353919528143
2182.129753982299 2173.593806154503
2182.7473036646206 2359.9358676902348
2183.3647044807367 2522.569049702966
2183.9819564653044 1984.6566569922275
2184.599059652968 2230.919834253262
2185.216014078367 2584.373563574286
2185.832819776113 2549.697832913906
2186.4494767808137 2514.793904939582
2187.065985127063 2284.6920758249908
2187.682344849436 2278.7965201030006
2188.298555982501 2702.547737104686
2188.9146185608097 2433.3559929025378
2189.530532618901 2543.9716057777014
2190.1462981912937 2397.8605227873145
2190.761915312507 2433.8885206340065
2191.377384017036 2429.2318391493545
2191.9927043393654 2375.613408349729
2192.6078763139667 2628.9496173482225
2193.2228999753006 2042.3082812020034
2193.837775357808 2252.8613468616554
2194.452502495922 1933.582413981932
2195.0670814240602 2254.7179228242007
2195.6815121766285 2032.11834258737
2196.2957947880186 2041.713056545085
2196.9099292926057 2051.3342456831933
2197.523915724758 2349.151300183644
2198.137754118825 2388.8201900795766
2198.7514445091456 2689.17909339965
2199.3649869300443 2712.26850157068
2199.9783814158327 2735.5257467233787
2200.5916280008096 2942.2103146188474
2201.2047267192593 2545.615207225525
2201.8176776054515 2356.068880519733
2202.430480693649 2277.149894877493
2203.0431360180955 2542.8542448143935
2203.6556436130195 2561.5143548580486
2204.268003512645 1943.2476003218467
2204.8802157511727 2247.491842006785
2205.492280362796 2710.671136592119
2206.1041973816937 2326.8496513947966
2206.715966842032 2352.7006085211347
2207.3275887779655 2403.780322269543
2207.93906322363 2297.297594398624
2208.550390213153 2528.042696002326
2209.1615697806465 2470.0132105428697
2209.7726019602105 2040.6056641809096
2210.3834867859277 2008.1516249217864
2210.9942242918787 2219.6578856667766
2211.6048145121167 2371.8328758486996
2212.2152574806914 3164.2288772145844
2212.825553231638 2195.690318785718
2213.435701798975 3271.819772652469
2214.045703216707 2339.635274639567
2214.655557518832 1844.1968377806504
2215.2652647393297 1830.2491561528398
2215.874824912169 1703.0059159584962
2216.4842380713 2500.6341086866587
2217.09350425067 2105.4051347819313
2217.7026234842033 2625.1286382399644
2218.311595805819 2641.2662656280168
2218.9204212494133 2140.4095302474097
2219.52909984888 2617.449631207203
2220.137631638092 2577.3079833534775
2220.7460166509154 2536.919837764928
2221.354254921198 1938.5650645350208
2221.9623464827764 2352.271767929878
2222.5702913694713 2515.341967225186
2223.178089615096 2674.4083490785397
2223.7857412534486 2223.553887512614
2224.39324631831 2008.0930636249468
2225.000604843457 2081.995489165879
2225.607816862641 2473.4120519296876
2226.214882409611 2443.6225043234836
2226.8218015180973 2280.6559163905704
2227.4285742218217 2117.284917352567
2228.0352005544864 2326.9282509857976
2228.6416805497847 1886.6005304704427
2229.248014241399 2326.5329266854014
2229.8542016629945 2055.2706960269456
2230.460242848223 2347.884826778821
2231.0661378307304 2245.490644650901
2231.671886644139 2143.038672178486
2232.277489322065 1811.6820095885098
2232.8829458981127 1769.2284735532023
2233.48825640587 2150.0476452785265
2234.0934208789095 2299.9279997110775
2234.6984393507955 2450.045174363988
2235.3033118550793 2549.4132009597
2235.9080384252975 2237.6550186878812
2236.5126190949723 1919.6728191381349
2237.1170538976166 2229.4762455856226
2237.721342866729 1816.0360684962575
2238.32548603579 2091.1761331089483
2238.9294834382763 2229.0703163820685
2239.533335107646 2241.1013551953815
2240.1370410773434 2115.2409220756826
2240.740601380803 2049.3649850832335
2241.3440160514474 2200.8457838792538
2241.9472851226783 2458.47644881834
2242.550408627896 2353.08725937678
2243.1533866004793 2729.180877234104
2243.756219073799 2259.821016481238
2244.3589060812064 2099.5082757033956
2244.961447656049 2228.3855317621696
2245.5638438316564 2215.651087714476
2246.166094641343 2214.788114629683
2246.7682001184166 2008.1314123158995
2247.3701602961664 2411.8435183462016
2247.971975207871 2347.4581145130232
2248.5736448867974 2581.4440597620896
2249.175169366197 2234.476903421898
2249.7765486793123 2228.9900467686443
2250.3777828593684 2181.6451432372974
2250.9788719395783 2341.2298192058392
2251.579815953146 2295.1101431758552
2252.1806149332606 1947.390403255395
2252.781268913097 2141.202786492954
2253.381777925817 1978.1470859154192
2253.9821420045737 2200.6033423317017
2254.5823611825035 2433.8442246028285
2255.1824354927303 2257.287953563292
2255.782364968365 2168.940581732878
2256.38214964251 2080.5385139869472
2256.9817895482483 2203.5878035096316
2257.5812847186553 2118.228732428646
2258.180635186791 1881.0595133822403
2258.779840985704 2103.6966827082783
2259.37890214843 2165.7334818724858
2259.97781870799 2711.4570798784293
2260.5765906973957 2407.825793896323
2261.175218149645 2586.540763453292
2261.773701097718 2206.68404185824
2262.3720395745895 1907.7418692928754
2262.970233613216 1921.407078578657
2263.568283246548 2047.0629751425993
2264.1661885075137 1819.7799735063331
2264.763949429038 2003.0263009525756
2265.3615660440246 2031.7270967395489
2265.959038385374 2060.477036643847
2266.5563664859637 2385.6239889885483
2267.153550378669 2045.3141682000805
2267.7505900963424 2331.635884921794
2268.3474856718312 2108.3045253494456
2268.9442371379664 2224.7291725473424
2269.5408445275643 2149.175635363841
2270.1373078734377 2276.756474860031
2270.7336272083758 2037.4981516775697
2271.32980256516 2087.124318950439
2271.925833976562 2316.1451211201575
2272.5217214753357 2451.981584798258
2273.117465094223 2024.3554095864831
2273.7130648659586 1904.8851065233607
2274.308520823257 2056.0233572384013
2274.903832998827 2473.9467733248007
2275.4990014253563 2006.0516125578365
2276.094026135528 2393.8055267398677
2276.6889071620117 2012.8860514811518
2277.2836445374614 2251.2022243264973
2277.878238294519 2367.5514211433483
2278.472688465812 2059.656191328909
2279.066995083962 1751.2264233229234
2279.6611581815705 2078.193092239096
2280.255177791232 1918.3379889710063
2280.8490539455233 2204.8865609732134
2281.442786677013 2492.0411195147844
2282.0363760182554 2428.9878052945646
2282.6298220017943 2021.7533902610721
2283.223124660155 2501.015759826541
2283.816284025859 2062.041394062166
2284.4093001314086 1968.3107648162495
2285.002173009292 1874.4033017079746
2285.5949026919952 2208.6968187841994
2286.1874892119777 2183.020205889529
2286.7799326016993 2292.2120316697383
2287.3722328936 1887.5626555189624
2287.964390120109 1659.7298530819523
2288.556404313642 2306.8429407514977
2289.1482755066027 2803.655375746448
2289.7400037313873 2203.4076158993707
2290.3315890203703 2039.3978357199126
2290.9230314059205 2314.312295261797
2291.5143309203904 1968.3955142073423
2292.1054875961236 2150.5135459372163
2292.6965014654506 2632.4462675460136
2293.287372560684 2121.373942406908
2293.878100914131 2079.1624339076698
2294.468686558086 2036.9277272907534
2295.059129524827 2085.3023805658113
2295.649429846617 1992.8408538013387
2296.239587555716 1900.1223985118982
2296.8296026843636 2144.5971223969264
2297.419475264791 2048.430158556945
2298.0092053292137 1951.9569660023521
2298.598792909839 2335.9891396073767
2299.1882380388597 2097.608349908186
2299.777540748455 2252.9138637739547
2300.3667010707904 2408.2843615583415
2300.9557190380256 2594.1920283155678
2301.544594682302 2651.7886054780765
2302.1333280357503 1997.925856516018
2302.721919130485 2273.8062306534607
2303.3103679986198 2672.3434854894067
2303.898674672242 2587.3366753551754
2304.486839183437 1993.6321857736905
2305.0748615642697 2359.7985962246175
2305.6627418468015 2223.490491740055
2306.2504800630704 2011.1192319475372
2306.8380762451143 2255.9976865730628
2307.425530424949 2339.5456795854107
2308.012842634582 2423.2672120166603
2308.6000129060103 2541.2368396407146
2309.187041271214 2311.0040215826366
2309.773927762164 2080.281984556193
2310.3606724108213 2392.150814015118
2310.9472752491274 2467.6046360545347
2311.5337363090184 2543.2953674615283
2312.120055622414 2203.2277955799905
2312.706233221221 2012.8734096851113
2313.2922691373424 1766.3130332608248
2313.8781634026564 1867.7334349621383
2314.463916049037 1969.372965679319
2315.049527108342 2262.80958007002
2315.6349966124235 2380.732178754708
2316.2203245931123 2482.4005602143197
2316.8055110822315 1828.4402337588533
2317.3905561115935 1969.2622430389463
2317.9754597129977 1963.186028487165
2318.560221918229 1919.0291695533829
2319.1448427590603 1874.8138974611877
2319.729322267256 1799.034887265423
2320.313660474563 2027.2517972144383
2320.8978574127195 2184.6166063729765
2321.481913113452 2342.506838995743
2322.0658276084705 1885.2861868937173
2322.6496009294806 2041.6656224691428
2323.233233108165 2210.2121801524636
2323.8167241762058 2079.282381647051
2324.4000741652617 2055.2805094527353
2324.983283106987 2482.9795431790717
2325.5663510330232 2517.931246686132
2326.1492779749933 2126.6623606258386
2326.7320639645204 2364.6746492386724
2327.3147090332004 1875.7767159542072
2327.897213212629 2021.4701769886738
2328.4795765343843 2167.2103636146594
2329.0617990300307 1752.7522194953312
2329.643880731124 2582.5791250085763
2330.22582166921 2267.849882034498
2330.807621875816 1889.3187352759646
2331.3892813824623 2347.7319995824664
2331.9708002206517 1886.6879888919987
2332.5521784218818 2447.29134099741
2333.133416017634 2228.7993610991325
2333.7145130393765 2009.9103397993374
2334.295469518571 2376.6712155473315
2334.876285486658 2285.459498615617
2335.456960975076 2437.3935744014134
2336.037496015242 2013.6486927364356
2336.6178906385667 2183.669446605827
2337.198144876451 2215.346937862656
2337.778258760278 2084.153113445346
2338.3582323214214 2181.053600686548
2338.938065591243 2278.124548524888
2339.517758601087 2380.508243490278
2340.0973113822965 2176.305864010821
2340.676723966193 2251.0297757364124
2341.255996384094 2350.0291557470764
2341.835128667295 2406.002226546926
2342.4141208470883 2275.2213207516766
2342.992972954751 2104.3468582493374
2343.5716850215467 2155.0204984512206
2344.1502570787306 1372.7246553843313
2344.7286891575386 1691.8871378503322
2345.3069812892045 2670.428345719478
2345.885133504944 2498.5591928971967
2346.4631458359618 1812.5920047709399
2347.04101831345 1843.41316855397
2347.6187509685915 2085.1576579640264
2348.196343832553 2014.8943209557542
2348.7737969364935 2318.0996956473223
2349.351110311558 2195.5438763891593
2349.9282839888765 1908.6019138660026
2350.5053179995757 1714.0550859172022
2351.0822123747585 1701.3474879166952
2351.658967145526 1788.5639533029157
2352.2355823429643 1876.0316208187523
2352.812057998144 2116.4372336075944
2353.3883941421263 1921.765005361824
2353.9645908059647 2277.1798551574802
2354.540648020693 1908.1791162665522
2355.116565817336 1823.9106847299215
2355.6923442269126 2295.1948370319756
2356.2679832804224 2172.321584451292
2356.8434830088518 1773.3137997658819
2357.41884344318 1950.3594390254952
2357.994064614377 1918.6283793667244
