#exp_cfg={"servo_angle": 0.0, "laser_lim": 100.0, "servo_angle_to": 18.0, "laser_wup": 0.0, "bt_dev": "EnSpectr-25AE3", "laser_wdn_max": 0.0, "frames": 10.0, "servo_used": 0, "servo_calib_use": 0, "laser_wdn_min": 0.0, "servo_pix_from": 90.0, "cooler_tout": 300.0, "servo_angle_from": 0.0, "servo_calib": "[-1.9174921013161362e-09, 3.9322238269163779e-05, -0.27385609119055809, 653.59552119713567]", "laser_autoctl": 0, "servo_pix_to": 3682.0, "laser_pw": 100.0, "cooler_on": 0, "laser_volt": 4.0, "cooler_autoctl": 0, "cooler_curr": 70.0, "cooler_startup": 10.0, "laser_fixed_pw": 0, "gain": 1.3, "offset": 2.53059635486, "servo_calib_degree": 3.0, "laser_curr": 55.0, "shutter": 8200.0, "servo_calib_step": 1.0, "laser_fixed_curr": 0, "exp": 2000.0, "ccd_volt": 4.7, "bt_addr": "00:06:66:62:5A:E3", "servo_delay": 500.0, "laser_autooff": 1}
#proc_cfg={"flat_auto_wnd": 200.0, "flat_auto_fr": 200.0, "flat_auto_shift": 5.0, "yconv": 1, "flatten": 1, "flatten_strength": 100.0, "xfrom": 300.0, "auto_max_frame": 2000.0, "auto_signal": 48000.0, "flat_auto_tol": 0.1, "autoclip": 1, "xrel_range": 0.0, "flat_auto_to": 4000.0, "intensity_adj": 1.0, "xrel": 7852.0, "rmhot": 1, "flat_auto_slit": 4.999999999999997, "auto_ini_exp": 300.0, "auto_off": 0, "xto": 2860.0, "flat_auto_ref": "", "flat_auto_rank": 1, "autobackg": 0, "xrel_adj": 0.0, "auto_black_lvl": 1, "base_wnd": 100.0, "sub_baseline": 0, "xconv": 2, "auto_max_exp": 1000.0, "auto_total_exp": 10000.0, "auto_exp": 0, "rmripple": 0, "black_lvl": 8281.45, "shutter_clip_adj": 0.0, "auto_bckg": 0, "flat_auto_thr": 0.9, "subbackg": 1}
316.8218498245369 21803.435181563378
317.89969571804795 21642.50567725999
318.977263876126 21574.442924549574
320.05455438786703 21455.06262060944
321.1315673423287 21373.910269226304
322.2083028285215 21414.125722647816
323.2847609354267 21343.422669230236
324.3609417519747 21306.712911824907
325.43684536705587 21145.59418407257
326.5124718695279 21122.262320785743
327.58782134820103 21042.37892928301
328.66289389184385 21161.455467524203
329.7376895891921 20956.98167789326
330.8122085289342 20925.614511780685
331.88645079971866 20943.063173986964
332.9604164901575 20785.70890535761
334.03410568881554 20820.531062861075
335.1075184842266 20927.411229891055
336.18065496487543 20699.889109367552
337.2535152192122 20700.837375943236
338.32609933564163 20748.209150840434
339.39840740253203 20672.48963407677
340.4704395082099 20529.13079411869
341.5421957409617 20468.400746921026
342.6136761890357 20580.321334048444
343.6848809406365 20351.607304328252
344.75581008392874 20283.658044147396
345.82646370703696 20243.189490377157
346.8968418980512 20205.230217712353
347.96694474501055 20310.772968259927
349.0367723359268 20203.243490930392
350.106324758759 20186.14297293838
351.1756021014353 20014.087104434228
352.2446044518383 20018.756245963745
353.31333189781435 20141.402062730667
354.38178452716966 19989.218069741688
355.449962427665 19935.195194297226
356.51786568702846 19927.307371069983
357.58549439294256 20075.276360213793
358.6528486330535 20040.452913917172
359.71992849496564 19890.569488210564
360.7867340662433 19953.939836423244
361.8532654344144 19938.369053995975
362.9195226869597 20059.83707895019
363.9855059113288 19863.16409605195
365.05121519492604 19787.72068617981
366.11665062511565 19899.69998340578
367.1818122892273 19862.9537288895
368.2467002745434 19974.863369726823
369.31131466831175 19786.308468440206
370.375655557742 19838.59129303656
371.4397230299983 19831.73078619869
372.5035171722102 19881.371101457153
373.5670380714637 19774.81187832656
374.6302858148101 19862.294941935143
375.6932604892554 19849.793009880806
376.7559621817709 19887.276214342288
377.81839097928605 19746.710633712482
378.8805469686886 19750.13294265165
379.94243023683157 19855.04266418682
381.0040408705263 19764.34573711504
382.0653789565458 19570.035520817713
383.1264445816196 19629.266125907925
384.1872378324406 19652.638717329766
385.2477587956637 19651.389074166975
386.3080075579037 19505.559406287695
387.3679842057336 19400.644821905993
388.4276888256918 19579.167521070674
389.48712150426945 19498.740961333824
390.54628232792857 19352.866207216266
391.6051713830857 19360.840404610095
392.66378875611736 19357.764634351024
393.7221345333637 19361.59721604544
394.7802088011249 19198.74545762589
395.838011645661 19179.480085963136
396.89554315319765 19077.45692061494
397.9528034099112 19024.820993844864
399.00979250194723 18977.09818071482
400.06651051541485 18991.21753870393
401.1229575363741 19026.857883389155
402.17913365085224 18903.430747800045
403.23503894483656 18939.913633463668
404.2906735042761 18834.180554560946
405.3460374150818 18721.733426733736
406.401130763119 18782.03813068535
407.455953634224 18808.101304321917
408.5105061141876 18689.164595778406
409.56478828876243 18547.86691257339
410.6188002436629 18546.862877993826
411.6725420645689 18569.059295385006
412.72601383711117 18664.43950677038
413.77921564689314 18648.406691686017
414.8321475794728 18531.228842017314
415.88480972036814 18376.005784159246
416.93720215506437 18501.8229436476
417.9893249690049 18391.97770583336
419.04117824759123 18261.748209823356
420.09276207619223 18238.676970512137
421.144076540133 18316.828411009203
422.1951217247042 18237.298768044522
423.24589771515275 18274.511618180615
424.2964045966928 18152.356863235436
425.34664245449494 18290.477119337327
426.3966113736933 18119.142070937716
427.4463114393875 18112.66712219704
428.49574273662984 18144.44314219121
429.5449053504417 17985.316287286005
430.5937993658026 18137.379611977805
431.6424248676558 17968.061350183198
432.6907819409007 17945.918889451375
433.73887067040596 18003.516476648834
434.7866911409965 17999.426208964942
435.8342434374608 18045.862540450787
436.88152764455117 17960.089003439385
437.9285438469724 17950.278099081577
438.9752921294057 17919.036153570465
440.02177257648145 17898.357254132017
441.06798527279716 17778.105500518028
442.1139303029122 18001.077173469355
443.1596077513459 17948.910394231738
444.2050177025794 17992.36481658557
445.25016024105753 18017.56617779917
446.2950354511886 17966.298039865487
447.33964341733736 17976.29332554226
448.383984223834 17976.182328771698
449.4280579549686 17878.36243530217
450.471864694995 17958.99401078181
451.5154045281306 18019.82224115951
452.5586775385509 17994.798785167193
453.60168381039693 17971.46142314436
454.64442342776783 18175.305655922777
455.6868964747264 18090.078989480182
456.7291030353008 18018.36307067069
457.77104319347563 18238.047043620627
458.8127170332027 18130.59025480416
459.854124638392 18181.203627039904
460.895266092919 18466.157912694285
461.93614148061897 18495.461605550958
462.97675088529104 18595.185866818196
464.01709439069236 18596.202384213346
465.0571720805492 18632.171685083897
466.0969840385442 18783.41406729757
467.1365303483253 18990.810551072347
468.17581109350067 18851.423933655147
469.2148263576437 18932.53681296038
470.2535762242878 18972.320022742395
471.29206077693016 19162.338258548705
472.33028009902773 19079.4793277073
473.3682342740012 19070.689783342834
474.40592338523857 19022.261635376937
475.4433475160804 19062.873296662776
476.4805067498364 18878.70015902197
477.51740116978 18853.5455731877
478.5540308591426 18856.675395445338
479.59039590112116 18865.31237235414
480.6264963788726 18717.77913967342
481.6623323755193 18849.382557827346
482.6979039741436 18781.71638830781
483.7332112577915 18939.380286798223
484.76825430947247 18913.878237123197
485.80303321215797 18992.42078030896
486.837548048783 18869.118582088602
487.8717989022425 19034.360882062007
488.90578585539697 18975.548323371404
489.9395089910686 19168.00686309788
490.97296839203955 18869.810896465104
492.00616414106116 18751.119156727815
493.0390963208429 18724.102769134166
494.0717650140559 18664.212664623188
495.10417030333883 18493.8155558559
496.1363122712901 18455.72249101403
497.16819100046814 18292.505058611663
498.1998065734024 18157.281006953897
499.2311590725767 18084.361367703095
500.26224858044407 17992.577611855657
501.2930751794156 17900.298605047894
502.3236389518679 17903.837463860495
503.35393998014115 17737.139146055328
504.38397834653733 17802.837031759525
505.4137541333221 17784.501573591162
506.4432674227228 17690.798737925135
507.4725182969323 17700.580300940208
508.5015068381035 17728.84341312522
509.53023312835467 17570.693397073133
510.55869724976765 17627.54759088665
511.58689928438434 17532.105734150908
512.6148393142121 17388.52834987467
513.6425174212218 17485.990756329455
514.6699336873462 17526.928268358977
515.6970881944835 17430.54872807708
516.7239810244901 17374.475810382046
517.7506122591931 17390.89900043504
518.7769819803761 17347.369920201767
519.8030902697901 17333.125358127756
520.8289372091476 17262.207470611167
521.8545228801249 17387.507151063204
522.8798473643619 17294.341108706914
523.9049107434621 17176.205566177774
524.9297130989908 17203.15924712374
525.9542545124805 17140.830867730627
526.9785350654201 17095.53206077324
528.0025548392696 17095.15308787312
529.0263139154504 16993.671678183346
530.0498123753423 17011.10474346947
531.073050300296 16899.908340121106
532.0960277716204 16813.058210453644
533.1187448705896 16913.044257920832
534.1412016784416 16846.93328243713
535.1633982763833 16790.702020512545
536.1853347455726 16689.705595273266
537.2070111671401 16672.04890825479
538.2284276221817 16675.7309719049
539.2495841917516 16561.953865855554
540.2704809568677 16410.657635784217
541.2911179985167 16482.661973120004
542.3114953976419 16227.65293901107
543.3316132351592 16210.25289237347
544.3514715919409 16086.544041784486
545.3710705488247 16091.780969238913
546.3904101866156 15985.954581946638
547.4094905860784 16087.217810347507
548.4283118279418 16051.359312778814
549.4468739929034 16013.787844247223
550.4651771616191 15898.41462618165
551.4832214147063 15891.864641662722
552.501006832761 15924.192156589828
553.5185334963226 15852.760453863277
554.5358014859103 15858.59178733048
555.5528108820035 15803.81478080364
556.5695617650363 15746.171175197702
557.5860542154242 15786.675091578922
558.6022883135283 15733.557141964808
559.6182641396881 15663.233871018509
560.6339817741991 15762.992467805676
561.6494412973225 15797.800029487858
562.6646427892883 15771.76827941234
563.6795863302796 15623.744759521196
564.694272000459 15700.973341364434
565.7086998799423 15718.932407047041
566.7228700488104 15692.97086868606
567.7367825871115 15583.062085657226
568.7504375748576 15743.339304942103
569.7638350920224 15682.537044390216
570.7769752185486 15698.196682051339
571.7898580343353 15648.607173141252
572.802483619258 15575.472509696405
573.8148520531431 15838.541450551484
574.8269634157932 15709.088860393273
575.8388177869692 15653.678273748334
576.8504152463938 15657.936627527346
577.8617558737587 15821.275650790561
578.8728397487175 15797.641644709034
579.883666950891 15771.989852658331
580.8942375598654 15846.334427601763
581.9045516551851 16023.81745779161
582.9146093163617 16200.893737615042
583.924410622878 15998.933567824051
584.9339556541727 16012.687886524542
585.9432444896538 16196.62323827203
586.9522772086875 16167.040229114224
587.9610538906127 16155.049881847928
588.9695746147318 16062.882684267857
589.9778394603054 16140.589691999605
590.985848506567 15980.278650451728
591.9936018327098 16000.352832252844
593.0010995178891 15715.13039170645
594.0083416412344 15919.014283533354
595.0153282818283 15531.074764961435
596.0220595187293 15589.838464223427
597.0285354309508 15389.030846601036
598.0347560974806 15499.725578436774
599.0407215972609 15399.864507454888
600.0464320092051 15454.14998562782
601.0518874121954 15362.194383782311
602.0570878850685 15330.757026972866
603.062033506636 15339.288651208873
604.0667243556636 15323.766305421052
605.0711605108936 15139.42342125004
606.0753420510264 15456.395308747693
607.0792690547278 15309.468537523033
608.082941600629 15236.999869762984
609.0863597673306 15264.214930776856
610.0895236333909 15382.465357442434
611.0924332773357 15525.863230224297
612.0950887776617 15394.55741343008
613.0974902128219 15515.687078181576
614.0996376612384 15650.616883110493
615.1015312013005 15729.890547000303
616.1031709113595 15819.828371101346
617.1045568697336 15727.584932754104
618.1056891547069 15898.063094726933
619.1065678445229 15969.563326149673
620.1071930173985 16308.241626338835
621.1075647515099 16366.105928013052
622.1076831250048 16362.861567825734
623.1075482159849 16526.155628635628
624.1071601025305 16578.34319578649
625.1065188626781 16722.446483810254
626.105624574433 17143.133252528158
627.1044773157682 17065.132539419887
628.1030771646128 17156.2008873522
629.1014241988742 17374.037465060777
630.0995184964158 17483.732820169167
631.0973601350688 17536.595610145396
632.0949491926294 17695.7038355273
633.0922857468631 17472.477250296783
634.089369875499 17526.735722870148
635.0862016562278 17529.466587675215
636.0827811667077 17276.130795693593
637.0791084845641 17272.729533276164
638.0751836873878 17008.631861357026
639.0710068527369 17040.657485069944
640.0665780581294 16939.679073515264
641.0618973810506 16704.21944529657
642.0569648989604 16614.76526043479
643.0517806892676 16316.696825281766
644.0463448293649 16224.94257700226
645.040657396592 16071.94216176848
646.0347184682723 16001.785468946673
647.0285281216875 15701.189998503
648.0220864340772 15723.768351661129
649.0153934826558 15466.11989748161
650.0084493446047 15442.77968203706
651.0012540970674 15342.037587605513
651.9938078171526 15253.758621380894
652.9861105819346 15094.288056884496
653.9781624684565 15199.814037929906
654.9699635537254 14925.350865813909
655.9615139147136 15041.083672993738
656.9528136283589 14782.153125268911
657.9438627715699 14933.865420531534
658.9346614212154 14760.752504009437
659.925209654135 14559.682548927361
660.9155075471263 14602.452646431027
661.9055551769616 14617.80899692758
662.895352620375 14698.688214350264
663.8848999540678 14569.038831006914
664.8741972547068 14419.949926621886
665.863244598926 14482.942403567835
666.8520420633213 14495.10167764597
667.8405897244611 14405.490341620995
668.8288876588758 14216.309541353443
669.8169359430613 14442.678880517033
670.8047346534822 14368.961463481444
671.7922838665672 14229.697462801003
672.7795836587156 14267.940589651978
673.766634106285 14437.504109517113
674.7534352856092 14204.113572600932
675.7399872729766 14182.969930426883
676.7262901446538 14196.647120080332
677.712343976862 14171.21935665542
678.6981488457986 14306.20107201143
679.6837048276229 14145.709954310043
680.6690119984596 14174.801935884892
681.6540704344043 14086.060305865554
682.6388802115107 14054.482177301988
683.6234414058108 14090.51677273362
684.6077540932874 13957.711736079296
685.591818349907 14011.076398297515
686.575634251587 13971.752942053552
687.5592018742263 13894.928266605833
688.5425212936734 13773.623802945465
689.5255925857564 13952.064789065373
690.5084158262707 13766.673224166594
691.4909910909646 13693.973177630633
692.4733184555644 13608.030451036602
693.4553979957618 13729.72606756376
694.4372297872123 13727.501954240575
695.4188139055404 13637.328278198553
696.4001504263324 13527.66842798668
697.3812394251509 13676.098476359923
698.3620809775111 13516.042191107903
699.3426751589104 13543.603172561856
700.3230220448004 13540.313283299512
701.3031217106054 13601.105762065403
702.2829742317172 13681.773876890791
703.2625796834873 13397.789512192257
704.2419381412474 13464.379168524247
705.22104968028 13634.151890184294
706.1999143758458 13514.234141724908
707.178532303169 13471.997262233195
708.1569035374378 13574.048734350572
709.1350281538107 13599.600180222003
710.1129062274158 13608.388767085538
711.0905378333373 13711.981559995547
712.0679230466376 13690.822797170458
713.0450619423427 13805.93991239203
714.0219545954424 13867.019942797619
714.9986010808989 13778.142715162485
715.9750014736292 13857.016457303354
716.9511558485392 13956.74579493835
717.9270642804786 14093.904353788957
718.9027268442787 14109.87449200545
719.8781436147328 14003.239667829033
720.8533146666014 13971.605683824044
721.828240074612 13989.499343919753
722.8029199134635 13982.65155385085
723.7773542578125 13858.90832121517
724.751543182294 13834.60837574726
725.7254867615029 13833.23294495382
726.6991850700015 13596.521725505783
727.6726381823228 13659.380995828327
728.6458461729599 13576.226121717104
729.6188091163858 13407.256873080329
730.5915270870246 13418.662072632444
731.5640001592856 13263.508653085166
732.536228407529 13410.651146230619
733.5082119060917 13344.027047884767
734.4799507292755 13285.236696992792
735.4514449513481 13241.661869251067
736.4226946465496 13365.640922848412
737.3936998890786 13382.007772566843
738.3644607531078 13283.05764099753
739.3349773127793 13125.567698994482
740.3052496421951 13255.828447793227
741.27527781543 13141.699418942933
742.2450619065221 13014.934938737255
743.2146019894826 13097.615637794486
744.183898138288 13054.05215893644
745.1529504268801 12956.115315741525
746.1217589291682 12824.171272351432
747.0903237190341 12772.973218162462
748.058644870318 12868.97014663005
749.0267224568397 12774.479349138592
749.994556552374 12671.557944012464
750.9621472306771 12681.68088319401
751.9294945654583 12657.100242821096
752.8965986304011 12646.278774560564
753.8634594991636 12630.987814142454
754.8300772453586 12715.04716899914
755.7964519425768 12595.002408508362
756.762583664371 12829.424793113976
757.7284724842611 12723.269799976915
758.6941184757416 12605.528103922084
759.6595217122667 12633.902580235987
760.6246822672638 12601.843281754802
761.5896002141235 12491.163466357048
762.5542756262093 12677.88468711491
763.5187085768503 12659.170246171438
764.4828991393406 12536.484166781844
765.4468473869474 12516.906432104035
766.4105533929032 12564.999026421148
767.3740172304078 12515.520831591271
768.3372389726283 12637.186111443227
769.3002186926988 12440.444269962603
770.2629564637282 12357.66862816404
771.2254523587872 12403.981072443994
772.1877064509154 12308.20530193665
773.1497188131179 12129.200250313435
774.1114895183728 12170.925580805088
775.0730186396268 12091.068365868832
776.0343062497905 12078.169711341634
776.9953524217381 12028.22293566442
777.9561572283274 12055.614303261355
778.9167207423689 12120.075725057624
779.8770430366476 11975.911920159257
780.8371241839159 12046.450776662805
781.7969642568951 11989.545069828762
782.7565633282757 12232.455136156746
783.7159214707099 11919.103581870279
784.6750387568281 11992.187846212157
785.6339152592227 11930.281536026636
786.5925510504512 11862.219819002805
787.5509462030477 11967.78408957232
788.5091007895098 11869.870246047469
789.4670148823006 11850.567968303953
790.4246885538596 11829.328679566845
791.3821218765861 11744.86837736757
792.3393149228505 11700.258070817243
793.2962677649975 11831.21115142211
794.2529804753303 11832.344557474678
795.20945312613 11878.718464605605
796.1656857896378 11785.627406002495
797.1216785380675 11681.671913694563
798.0774314435985 11905.111739179058
799.0329445783846 11993.732083441866
799.9882180145414 11954.031333625691
800.9432518241574 11852.560062976887
801.89804607929 12046.368761459387
802.852600851962 11953.099258450224
803.8069162141637 11996.62064084072
804.760992237856 12081.875185373889
805.714828994971 12206.51489987188
806.6684265574077 12183.458297015994
807.6217849970271 12074.425632689523
808.574904385674 12034.027887750253
809.527784795142 12154.504264236906
810.4804262972102 12148.030412047307
811.4328289636178 12009.792748917507
812.3849928660748 11755.614742130705
813.3369180762638 11744.194484519541
814.2886046658241 11793.099990161856
815.2400527063783 11667.29308447076
816.1912622695108 11590.099647864632
817.1422334267718 11698.176733820237
818.0929662496856 11477.733316654178
819.0434608097457 11325.049795898078
819.9937171784059 11369.277275335407
820.9437354271013 11323.049357481064
821.8935156272255 11387.238266983692
822.8430578501484 11199.976822855488
823.7923621672016 11075.872985042995
824.7414286496896 11195.582100050939
825.6902573688876 11132.01170518627
826.6388483960363 11097.077657920456
827.5872018023492 10923.837282322816
828.5353176590033 11141.118693982376
829.4831960371503 10939.984514532629
830.4308370079016 10889.495398750241
831.3782406423525 10978.081174139705
832.3254070115545 10994.399151419204
833.2723361865319 10884.276954678578
834.2190282382799 10888.45704180449
835.1654832377644 10869.140130241012
836.1117012559116 10781.697049491751
837.0576823636256 10935.302351261296
838.003426631778 10719.894014926043
838.9489341312074 10742.50179330347
839.8942049327197 10861.18194974515
840.8392391070975 10911.831643957832
841.7840367250865 10838.093935170957
842.7285978573982 10693.461696193663
843.672922574724 10844.016444110144
844.6170109477152 10738.468337334652
845.560863046996 10740.330452233746
846.5044789431595 10793.047443164864
847.4478587067697 10738.784943395349
848.3910024083561 10877.395998326172
849.333910118421 10715.452097831952
850.2765819074339 10599.416972293837
851.2190178458332 10800.388467093382
852.161218004032 10795.173143422968
853.1031824524016 10743.709106696026
854.0449112612987 10620.956775511677
854.9864045010327 10814.21612297781
855.9276622418947 10589.834237953477
856.8686845541379 10676.410537635613
857.8094715079915 10586.32747595465
858.7500231736467 10821.759547724501
859.690339621271 10716.477979331397
860.6304209209939 10627.828476355575
861.5702671429244 10426.636093726887
862.5098783571284 10642.08422852655
863.4492546336569 10658.414224041906
864.3883960425155 10490.031499124761
865.3273026536863 10484.623915751192
866.2659745371238 10494.26898981439
867.2044117627465 10710.294797924296
868.1426144004472 10478.547373540212
869.0805825200823 10606.101898132632
870.0183161914847 10655.064707424728
870.9558154844526 10744.238365638845
871.8930804687552 10666.943790765192
872.8301112141307 10586.278595196167
873.7669077902865 10805.07461027753
874.7034702669062 10901.59044043127
875.6397987136315 10705.761398388939
876.5758932000863 10819.0523978292
877.5117537958522 10903.318589091896
878.4473805704911 10760.130556858727
879.3827735935283 10708.389276588605
880.3179329344603 10901.102599586073
881.2528586627541 11001.581790265649
882.1875508478479 10942.544722359255
883.1220095591489 10819.34105433107
884.0562348660296 10773.379562467926
884.9902268378391 10970.767853684263
885.9239855438955 10851.1401250642
886.8575110534839 10738.052258516338
887.7908034358588 10756.985479156081
888.7238627602474 10686.129349482959
889.6566890958475 10629.941790067804
890.5892825118208 10499.730489073681
891.5216430773125 10539.826699377725
892.4537708614189 10604.031804069096
893.3856659332196 10367.87465114971
894.3173283617652 10267.503541743836
895.2487582160684 10317.162121371573
896.179955565116 10258.031819431462
897.110920477864 10114.120001216
898.0416530232451 10127.149334985212
898.9721532701478 10038.176177562815
899.9024212874428 10147.635967447046
900.8324571439662 10001.906258829831
901.7622609085302 9975.048241132547
902.6918326499072 9954.339707357492
903.6211724368477 10011.747522645648
904.5502803380696 10067.349818066923
905.4791564222614 9988.47839180328
906.4078007580792 9877.837759961481
907.3362134141571 9889.066081317036
908.2643944590909 10052.157406331473
909.1923439614493 9828.724101940716
910.1200619897754 9819.70065623651
911.0475486125779 9986.22655459245
911.9748038983344 9906.877274494047
912.9018279155007 9781.134063216288
913.8286207324982 9680.600386302622
914.7551824177117 9761.672198673825
915.6815130395116 9641.850953806195
916.6076126662283 9606.349965350902
917.533481366163 9727.97631103684
918.4591192075914 9673.86028323596
919.3845262587565 9775.501556065255
920.3097025878706 9582.998992138144
921.2346482631237 9598.13484365271
922.1593633526682 9651.943463716325
923.0838479246304 9750.125207504667
924.0081020471061 9801.218748508236
924.9321257881656 9512.016118009193
925.8559192158464 9505.979077374506
926.7794823981512 9494.260492186291
927.7028154030686 9444.304243357174
928.6259182985414 9432.823720420263
929.5487911524906 9701.565501581968
930.4714340328119 9610.882972884066
931.3938470073608 9309.351539895531
932.3160301439748 9485.320302744029
933.2379835104548 9460.893135516464
934.1597071745709 9638.808236761133
935.0812012040769 9496.548031528786
936.002465666681 9544.009802535373
936.9235006300696 9604.798098677378
937.8443061619055 9473.617707602209
938.7648823298077 9306.69547513211
939.6852292013809 9346.322369720056
940.6053468441951 9533.166210460606
941.5252353257874 9294.36806693648
942.4448947136698 9431.334885480366
943.364325075323 9369.698924742912
944.2835264782043 9384.965043004744
945.2024989897309 9337.158754540093
946.1212426773054 9374.963342757701
947.0397576082851 9335.216995324947
947.9580438500125 9548.98396787039
948.8761014697939 9517.74928378564
949.7939305349064 9434.391878277227
950.7115311125999 9248.422267726382
951.6289032700952 9280.105827607627
952.5460470745875 9472.219541756702
953.4629625932339 9264.272429706876
954.3796498931715 9340.488680815582
955.2961090415029 9342.796728557201
956.2123401053068 9373.794631603518
957.1283431516276 9283.177214049882
958.0441182474842 9232.413737061983
958.9596654598663 9421.983024046389
959.8749848557309 9176.316228096597
960.7900765020167 9209.082577283083
961.7049404656209 9222.057130823889
962.6195768134185 9285.988113632799
963.5339856122537 9231.547915991323
964.4481669289453 9243.661717214298
965.3621208302793 9214.106700245387
966.2758473830145 9139.94969335807
967.1893466538822 9357.736226756564
968.1026187095813 9188.21209271633
969.0156636167867 9174.8001209857
969.9284814421426 9249.572402230093
970.8410722522622 9164.715084441012
971.753436113735 9137.772970048545
972.6655730931161 9149.542458950647
973.5774832569368 9262.915031002583
974.4891666716958 9155.083963550509
975.4006234038698 9088.797113797857
976.3118535198955 9088.264948869288
977.2228570861935 9260.731397686392
978.1336341691494 9214.916349628726
979.0441848351202 9018.005945984685
979.9545091504333 9154.430418029297
980.864607181391 9217.40593220135
981.7744789942699 9202.165244450913
982.6841246553086 9113.483444291498
983.5935442307236 9164.391852346562
984.5027377867027 9190.765774040989
985.4117053894024 9249.283798933608
986.3204471049557 9121.736979996325
987.2289629994648 9191.009090147929
988.1372531390007 9326.246249165735
989.0453175896091 9226.091317016268
989.9531564173067 9250.562001350554
990.860769688079 9114.212561720444
991.7681574678918 9246.563120876937
992.6753198226706 9242.437462028398
993.582256818323 9246.282973086702
994.4889685207218 9211.140518433534
995.3954549957143 9509.73214765204
996.301716309119 9485.815323010265
997.2077525267232 9247.177074102885
998.1135637142943 9249.926027381527
999.0191499375615 9443.701227382884
999.924511262232 9341.453557601384
1000.8296477539861 9294.541713901534
1001.7345594784656 9236.583079368862
1002.6392465012996 9181.244334631421
1003.5437088880753 9277.880991213602
1004.4479467043584 9174.902873536817
1005.3519600156869 8941.77253224442
1006.2557488875718 9213.322075802711
1007.1593133854858 9061.833413734827
1008.0626535748888 8978.162104050847
1008.9657695212009 8812.924191440436
1009.8686612898182 9089.014239018921
1010.7713289461135 9058.44059348719
1011.6737725554212 8918.431711232906
1012.5759921830577 8903.166254703006
1013.4779878943027 8944.36920876479
1014.379759754418 8969.001697025917
1015.2813078286254 8830.336644479292
1016.18263218213 8797.263350036821
1017.0837328801026 8789.416992925928
1017.9846099876886 8871.369331963993
1018.8852635700023 8681.429558820779
1019.7856936921362 8599.35578304014
1020.6859004191447 8763.561077062186
1021.5858838160675 8584.457464291894
1022.4856439479063 8548.250795836915
1023.3851808796389 8455.608917717822
1024.2844946762143 8752.068410240578
1025.183585402554 8730.484021509814
1026.082453123554 8472.295329200555
1026.9810979040776 8519.658744785418
1027.8795198089647 8360.591146431663
1028.777718903024 8430.020931942854
1029.6756952510368 8445.505894086624
1030.5734489177648 8369.122363601125
1031.4709799679313 8319.388274986599
1032.3682884662358 8563.618520036993
1033.2653744773506 8207.404962739864
1034.1622380659192 8264.544747239725
1035.058879296559 8319.700192968392
1035.9552982338591 8436.14111804417
1036.8514949423825 8327.913900047097
1037.7474694866614 8249.738575258802
1038.6432219312028 8260.513779585117
1039.5387523404825 8437.903927748344
1040.4340607789582 8303.729377105326
1041.3291473110476 8280.426307115184
1042.2240120011465 8468.52293543054
1043.1186549136273 8462.537160010086
1044.0130761128294 8394.728658677353
1044.9072756630649 8273.065468278453
1045.8012536286205 8445.470697713181
1046.6950100737577 8483.144208053836
1047.588545062701 8480.099751685882
1048.481858659663 8409.117051629724
1049.3749509288118 8536.504131942287
1050.2678219343034 8350.654891947586
1051.1604717402515 8454.335077525133
1052.0529004107575 8312.682950949778
1052.9451080098825 8446.128249860052
1053.8370946016694 8467.485880874043
1054.7288602501267 8438.739946601321
1055.6204050192446 8399.325007764108
1056.511728972977 8520.48377212416
1057.402832175254 8310.511807787541
1058.2937146899785 8219.731385049243
1059.1843765810263 8305.85395848774
1060.0748179122456 8392.110673194882
1060.9650387474576 8253.824045579691
1061.855039150456 8273.662943770101
1062.7448191850071 8295.725869340804
1063.6343789148505 8332.01515050427
1064.5237184037014 8468.358971290734
1065.412837715241 8242.136405227317
1066.3017369131267 8254.199471744909
1067.190416060992 8165.8027262437945
1068.0788752224398 8108.641072553129
1068.9671144610438 8075.513753097172
1069.8551338403558 8161.255570532792
1070.7429334239023 8186.242947901845
1071.6305132751695 8014.881275167863
1072.517873457633 8118.920867798503
1073.4050140347335 7945.975747651137
1074.2919350698776 8015.991026420292
1075.1786366264623 8033.972847235398
1076.0651187678395 8007.552468848829
1076.95138155735 7845.613135999627
1077.8374250582929 7954.842510219794
1078.7232493339507 7967.856593850598
1079.608854447577 7827.292917958561
1080.4942404623907 7798.678836274301
1081.3794074415982 7957.548740764296
1082.2643554483657 7899.936692879208
1083.149084545841 7900.294921186246
1084.033594797138 7747.218047811604
1084.9178862653516 7847.837360928535
1085.8019590135427 7935.276714911238
1086.6858131047484 7706.646189028359
1087.5694486019802 7760.211201980758
1088.4528655682225 7818.415804722985
1089.3360640664287 7857.300281259576
1090.2190441595321 7875.675854343981
1091.1018059104317 7793.308819590398
1091.98434938201 7869.69435075058
1092.866674637111 7934.386951172599
1093.748781738559 7783.777796315982
1094.6306707491512 7633.196431436256
1095.5123417316554 7843.677235570964
1096.3937947488157 7700.000036993323
1097.2750298633455 7764.87056063628
1098.156047137938 7645.3234461105385
1099.0368466352556 7728.410597820412
1099.9174284179317 7869.217404715596
1100.7977925485757 7580.526149558844
1101.6779390897755 7539.637207660146
1102.5578681040806 7673.303416684328
1103.4375796540226 7679.783689151894
1104.3170738021054 7586.49497881732
1105.1963506108077 7518.018418886908
1106.0754101425773 7521.607504316535
1106.9542524598382 7656.730275084557
1107.8328776249855 7569.451344267084
1108.7112857003904 7560.529358361925
1109.5894767483987 7552.806608517121
1110.4674508313292 7702.200063615269
1111.3452080114657 7564.860329233246
1112.2227483510815 7716.920354452562
1113.1000719124077 7740.161735001148
1113.9771787576592 7884.786246636456
1114.854068949022 7657.374700603823
1115.7307425486542 7701.883005099921
1116.6071996186893 7852.765726238193
1117.483440221229 8096.97764881392
1118.3594644183577 7826.730450756842
1119.235272272128 7901.523435169331
1120.1108638445658 7993.628842236007
1120.9862391976712 8236.490195066104
1121.8613983934229 8164.750920766224
1122.7363414937627 8131.21381602869
1123.6110685606182 8130.219207733693
1124.485579655884 8407.307244609154
1125.359874841426 8246.430203290342
1126.2339541790916 8297.592143398793
1127.1078177306936 8588.67191893524
1127.9814655580267 8287.74619444334
1128.854897722851 8362.52423908052
1129.7281142869106 8392.52163383968
1130.6011153119125 8451.151378086306
1131.473900859548 8481.068337237544
1132.3464709914697 8358.551584874123
1133.2188257693178 8255.53842360149
1134.0909652546961 8122.486314068767
1134.96288950919 8112.927687623703
1135.8345985943506 8381.40896684047
1136.7060925717087 7962.261479615168
1137.57737150277 8091.145140973256
1138.4484354490069 8084.706915781368
1139.3192844718778 7944.555349605316
1140.1899186327992 7749.7888815277165
1141.060337993178 7843.62913938205
1141.930542614382 7713.455008329863
1142.8005325577597 7641.136812810017
1143.670307884635 7480.335460417164
1144.5398686563003 7610.419828332053
1145.409214934025 7512.539453797508
1146.2783467790541 7337.046511381018
1147.1472642526023 7355.1302989604765
1148.0159674158622 7390.185204708253
1148.8844563300026 7236.534277751979
1149.7527310561618 7221.6655275368375
1150.6207916554504 7178.800486100401
1151.4886381889592 7021.470000894778
1152.3562707177498 7174.901144930649
1153.2236893028585 7005.819099696154
1154.090894005296 6995.258571693317
1154.9578848860474 7013.705334882383
1155.8246620060709 6969.960010315194
1156.6912254262988 6867.437420089009
1157.5575752076438 6822.21160873721
1158.42371141098 7038.7230912469995
1159.2896340971656 6994.699653124333
1160.1553433270346 6857.644524345205
1161.0208391613887 6898.510803436009
1161.8861216610057 6961.195844482105
1162.75119088664 6948.4197345879
1163.6160468990201 6871.531342900397
1164.4806897588442 6757.659640683727
1165.3451195267917 6929.391913926559
1166.2093362635114 6999.19918636779
1167.0733400296285 6837.954853237931
1167.9371308857444 6732.51878182592
1168.8007088924278 6764.598773880866
1169.6640741102328 6875.983121067712
1170.5272265996773 6796.0567927989705
1171.390166421259 6680.3777823047585
1172.252893635452 6940.798382495816
1173.1154083026995 6976.43670615445
1173.977710483421 6989.063922315372
1174.8398002380145 6791.618235832522
1175.7016776268483 7009.180309167199
1176.563342710264 6896.6775325575245
1177.4247955485826 6820.159612685531
1178.2860362020947 6937.504999011175
1179.147064731069 6757.76978381982
1180.0078811957483 6928.322064995604
1180.8684856563486 6802.01756413931
1181.7288781730604 6880.846016790249
1182.589058806052 6973.60184062338
1183.4490276154593 7112.298110736103
1184.3087846614017 6939.85061024156
1185.1683300039676 6963.016389818391
1186.027663703222 7199.342392817207
1186.8867858192025 6953.360453871346
1187.7456964119228 7062.657230256195
1188.6043955413716 7057.28678007901
1189.4628832675116 7234.492459799649
1190.3211596502842 7262.99872895826
1191.179224749596 7246.288541851764
1192.0370786253388 7118.88375027
1192.8947213373758 7272.866883057359
1193.7521529455407 7409.947541750245
1194.6093735096438 7136.860599513426
1195.466383089477 7202.302603192378
1196.3231817447977 7336.540942993286
1197.1797695353398 7455.794254025818
1198.0361465208189 7222.824190158353
1198.8923127609214 7223.379819488703
1199.7482683153048 7399.004583219054
1200.6040132436028 7529.455097825921
1201.459547605431 7306.1768123072015
1202.3148714603722 7379.695602306581
1203.1699848679855 7479.127411135807
1204.0248878878065 7597.032007227557
1204.8795805793507 7224.76893425004
1205.7340630020935 7377.310795768861
1206.5883352155033 7511.182796323928
1207.4423972790064 7501.600595292218
1208.2962492520237 7163.260163924674
1209.1498911939307 7224.093666208991
1210.0033231640937 7311.428645752443
1210.8565452218427 7300.7057645687355
1211.7095574264913 7002.575259537921
1212.5623598373222 7093.331204185817
1213.4149525135963 7101.387509384214
1214.2673355145507 7206.059830561438
1215.1195088993936 7017.995419440404
1215.9714727273113 7012.032364006011
1216.8232270574663 7186.435816983598
1217.6747719489904 6885.9290853669245
1218.5261074609934 7007.188239276348
1219.3772336525653 6983.5622229188275
1220.2281505827668 7066.108676628612
1221.0788583106296 6993.077136349896
1221.9293568951707 6822.763075967705
1222.7796463953746 6635.742929300235
1223.629726870202 6830.063503265951
1224.4795983785934 6812.369055538397
1225.3292609794553 6695.825930893252
1226.1787147316809 6578.0671340738045
1227.0279596941327 6718.284833638912
1227.8769959256424 6582.244727026894
1228.7258234850306 6679.823885309814
1229.5744424310833 6445.381313520921
1230.422852822563 6702.30794546182
1231.2710547182105 6729.355720118439
1232.119048176739 6548.903993355938
1232.9668332568417 6409.17018159237
1233.8144100171812 6693.385763079049
1234.6617785163999 6509.3702078641745
1235.508938813111 6260.170190988126
1236.3558909659114 6362.354026085621
1237.2026350333617 6561.982877951105
1238.049171074008 6548.475421315652
1238.8954991463652 6307.952695913556
1239.741619308932 6345.381458121876
1240.587531620169 5901.904631238687
1241.4332361385277 6479.7288778437005
1242.2787329224248 6303.294608134409
1243.1240220302534 6216.326986812502
1243.9691035203869 6234.746496881993
1244.813977451171 6500.32348463806
1245.6586438809263 6236.922947732179
1246.5031028679496 6076.400415430185
1247.3473544705157 6356.960646200092
1248.1913987468706 6270.786708514439
1249.0352357552383 5985.352412349782
1249.8788655538228 6109.964175422416
1250.7222882007918 6254.039292481864
1251.565503754302 6272.800147675888
1252.4085122724755 6007.557774766568
1253.2513138134182 6257.247395731842
1254.0939084352049 6177.641557697338
1254.9362961958905 6167.4642674098495
1255.7784771535007 6111.426059755742
1256.6204513660432 6165.351312654804
1257.4622188915 6425.678845176438
1258.3037797878242 6168.852182557728
1259.1451341129468 6017.27190632493
1259.9862819247755 6244.692020292006
1260.8272232811978 6157.947400715343
1261.6679582400666 6373.934781618316
1262.5084868592203 5961.135355311356
1263.34880919647 6008.273206678363
1264.1889253095997 6078.426156893544
1265.0288352563712 6293.576003231473
1265.8685390945266 5998.6707268564915
1266.7080368817751 6128.807919263082
1267.5473286758115 6257.171414277752
1268.386414534294 6144.796483549604
1269.2252945148703 5922.275766149218
1270.0639686751547 5985.274302275224
1270.9024370727402 6084.512033814292
1271.7406997651997 5942.135518818884
1272.5787568100714 5892.193481986568
1273.4166082648808 5934.438688261234
1274.2542541871244 5929.057457374625
1275.091694634275 6195.650666520776
1275.9289296637817 5835.425086415948
1276.7659593330663 5980.067770883429
1277.6027836995308 5901.29212451678
1278.4394028205552 6101.743857232552
1279.2758167534867 5881.901862008449
1280.112025555658 5808.88953584058
1280.9480292843746 6003.05277668121
1281.7838279969128 5750.15201943164
1282.6194217505326 5809.879076909724
1283.4548106024686 5678.956352084798
1284.289994609926 5822.5377884558575
1285.1249738300921 5953.778337476734
1285.959748320127 5719.357944720919
1286.7943181371702 5860.223211627497
1287.6286833383328 5854.760591493359
1288.4628439807038 5916.378231845419
1289.2968001213521 5653.775752074687
1290.1305518173194 5831.478746369974
1290.9640991256183 6010.914200339803
1291.7974421032523 5762.137135681759
1292.630580807183 5831.009010950129
1293.463515294361 5859.077976387356
1294.29624562171 6068.479898781889
1295.12877184613 5870.884608496831
1295.961094024493 5806.687370398227
1296.79321221365 5898.492741923253
1297.6251264704333 5995.907579281706
1298.4568368516466 6171.205647306385
1299.2883434140658 6002.507356075468
1300.1196462144526 5765.07671492695
1300.9507453095375 6062.851207006444
1301.7816407560313 5992.563337035454
1302.6123326106172 5954.998712611521
1303.4428209299622 5870.088142050545
1304.2731057707024 6232.463924400828
1305.1031871894502 5966.06258678453
1305.933065242798 6037.566235232199
1306.7627399873181 5978.688152396156
1307.5922114795467 6404.729961256758
1308.4214797760123 6520.542559802443
1309.2505449332057 6130.860771394895
1310.0794070076026 6226.751990373776
1310.9080660556538 6326.641752142364
1311.736522133786 6416.462206328598
1312.5647752983987 6086.57384918109
1313.3928256058734 5974.866627892614
1314.2206731125661 6235.399785188057
1315.048317874809 6232.830565456135
1315.8757599489109 6015.546070406721
1316.7029993911547 6102.640705787024
1317.5300362578055 6260.079408658034
1318.356870605101 6107.1377254697445
1319.183502489257 6001.586045407871
1320.0099319664623 6111.023222406001
1320.836159092889 6173.718254755392
1321.66218392468 6146.485083342735
1322.4880065179532 5968.244589587649
1323.3136269288134 6011.71643297239
1324.1390452133292 6167.713451912012
1324.9642614275563 6199.46151887363
1325.7892756275214 6070.3791289396095
1326.6140878692295 5917.022425545603
1327.4386982086617 6389.070923506473
1328.2631067017755 6138.320407731985
1329.0873134045069 6099.402745693257
1329.911318372764 6048.8431547829705
1330.735121662441 6082.324932298851
1331.558723329399 6008.561216437149
1332.3821234294774 6075.364704310535
1333.2053220185007 5952.427183116183
1334.0283191522612 5971.879297283522
1334.851114886529 6113.018036783699
1335.6737092770582 5876.923405310458
1336.4961023795695 5934.098341642123
1337.3182942497697 5818.218672066292
1338.1402849433325 5879.367645244152
1338.962074515921 5661.142715085478
1339.7836630231632 5728.238091700396
1340.6050505206676 6206.598193456519
1341.426237064028 6003.906829448233
1342.2472227088037 5815.386095582613
1343.0680075105338 5629.6765216780395
1343.888591524741 5775.294120175714
1344.7089748069138 6006.552573149831
1345.5291574125276 5753.673441189074
1346.3491393970307 5615.510005263012
1347.168920815846 5884.498961644819
1347.9885017243778 5860.413124996034
1348.8078821780036 5578.94817778628
1349.6270622320844 5652.230798087876
1350.4460419419447 5573.041585726544
1351.2648213629054 5747.873116347489
1352.0834005502438 5545.033624610104
1352.90177955923 5385.772969094107
1353.7199584451064 5814.150904970512
1354.5379372630887 5563.6496286697675
1355.355716068374 5535.649947307494
1356.1732949161305 5483.723956602199
1356.9906738615155 5539.25394776837
1357.8078529596478 5586.686520482492
1358.6248322656375 5584.549282138192
1359.441611834567 5462.8235477736125
1360.2581917214866 5573.856367828366
1361.0745719814367 5427.836695120666
1361.890752669433 5425.843157920679
1362.7067338404577 5367.342442813032
1363.5225155494845 5644.774787636441
1364.3380978514506 5595.046074730764
1365.1534808012839 5249.506608659877
1365.9686644538815 5212.774626632882
1366.783648864117 5584.70524404145
1367.5984340868417 5613.095463129023
1368.413020176893 5509.802881484104
1369.2274071890715 5372.173184488083
1370.0415951781652 5576.766954411161
1370.8555841989346 5437.463606879831
1371.6693743061223 5367.96950368798
1372.48296555444 5223.695586362371
1373.2963579985844 5466.817145355586
1374.1095516932255 5451.2120750278
1374.9225466930166 5166.358387204198
1375.7353430525782 5423.177369040741
1376.5479408265164 5258.706455802874
1377.36034006941 5369.654943469353
1378.1725408358216 5449.250747276199
1378.9845431802805 5144.534646831618
1379.796347157304 5706.135951611054
1380.6079528213813 5379.258452628628
1381.4193602269788 5154.819518143429
1382.230569428546 5227.546610246037
1383.0415804805016 5378.115491352815
1383.852393437246 5403.816113793944
1384.6630083531563 5245.400455873833
1385.4734252825892 5276.38939210007
1386.2836442798798 5265.971600078846
1387.0936653993322 5388.826185388637
1387.9034886952395 5243.202859389814
1388.713114221864 5360.570122347498
1389.5225420334482 5358.383071743579
1390.331772184214 5169.632149069388
1391.1408047283585 4952.591502474818
1391.9496397200564 5174.329497620651
1392.758277213461 5321.182152358446
1393.5667172627054 5326.088856439828
1394.3749599218918 5151.057581113566
1395.1830052451114 4996.865023505209
1395.9908532864265 5145.145823806399
1396.7985040998774 5241.03629586215
1397.6059577394808 5011.404847815498
1398.4132142592352 5094.904474439818
1399.2202737131156 5070.330876376903
1400.027136155073 5253.88757249124
1400.8338016390353 4943.894816344178
1401.6402702189134 5043.264541723062
1402.446541948586 5136.7847935131595
1403.2526168819204 4968.256195831001
1404.058495072757 4881.973616682668
1404.8641765749107 5029.186483737786
1405.6696614421799 5060.909616039545
1406.4749497283356 5373.357430621085
1407.280041487129 4852.795657330328
1408.084936772295 4783.723197580542
1408.8896356375335 5196.43295437554
1409.6941381365323 5082.474598968187
1410.498444322955 4823.762996246565
1411.3025542504402 4984.999568725344
1412.106467972606 5029.811660797489
1412.9101855430508 5063.855226870583
1413.7137070153458 4802.339605344277
1414.5170324430437 4922.155820573151
1415.320161879672 5060.865364284978
1416.1230953787435 5236.082382076675
1416.925832993742 4931.37062746924
1417.7283747781275 4833.551557415094
1418.5307207853439 5107.977049600804
1419.3328710688093 5057.517477424985
1420.134825681922 4714.700111764478
1420.9365846780584 4783.786904149522
1421.7381481105713 5143.380441886743
1422.539516032788 4932.054881131829
1423.3406884980232 4818.922967746425
1424.1416655595604 4838.15497837824
1424.942447270665 4961.113796299041
1425.7430336845828 4980.0175623222285
1426.5434248545298 4772.734251622993
1427.3436208337116 4969.015421903581
1428.143621675301 4926.70141196854
1428.9434274324558 5194.557033079188
1429.7430381583108 4794.602295218062
1430.5424539059713 4814.257077617474
1431.3416747285337 5152.613390995421
1432.1407006790632 5060.8548490639205
1432.9395318106053 4848.954573133663
1433.7381681761835 4735.764497224829
1434.5366098288014 5042.620343581975
1435.3348568214424 5122.860238745119
1436.1329092070573 4747.919683357959
1436.9307670385879 4939.259894116101
1437.7284303689503 5017.0604943398175
1438.5258992510335 5095.064594769829
1439.3231737377118 5004.2313281758425
1440.1202538818306 4863.394636181814
1440.9171397362225 4984.13074602054
1441.7138313536925 4923.633938728652
1442.5103287870243 4808.94201264144
1443.3066320889775 4719.109886699223
1444.1027413122956 5015.843502815911
1444.8986565096966 4827.419064676943
1445.694377733882 4798.145674384901
1446.4899050375207 4688.3200064233015
1447.2852384732687 4835.069495081248
1448.0803780937622 4984.134836611285
1448.8753239516063 4667.090118641192
1449.6700760993954 4594.952177496382
1450.464634589689 4673.960352486169
1451.2589994750397 5023.760017629966
1452.0531708079689 4532.808679255528
1452.8471486409799 4447.260584636564
1453.6409330265524 4672.745151660268
1454.4345240171442 4557.025396625595
1455.2279216651987 4531.900932477491
1456.0211260231263 4518.336999155908
1456.8141371433194 4980.768638218974
1457.6069550781594 4679.0545432127055
1458.3995798799897 4360.140320470568
1459.1920116011424 4411.029677775969
1459.98425029393 4367.327014194877
1460.7762960106338 4364.771239781422
1461.5681488035225 4375.516021285815
1462.3598087248392 4486.862588180358
1463.1512758268036 4685.062097932832
1463.942550161617 4376.404355523827
1464.7336317814625 4278.430612548891
1465.524520738496 4492.555762956823
1466.3152170848552 4254.377152971614
1467.1057208726506 4367.661249799933
1467.8960321539817 4366.992195832053
1468.6861509809169 4172.490536175835
1469.4760774055085 4259.750065997001
1470.265811479785 4332.814129231487
1471.055353255755 4151.409435552576
1471.844702785409 4126.853616630035
1472.6338601207044 4158.5814557292
1473.4228253135934 4291.983549732371
1474.2115984159936 4095.7928698575693
1475.0001794798063 3926.1004522220233
1475.7885685569145 4289.072158019953
1476.576765699172 4178.591859255277
1477.3647709584238 4120.429308874502
1478.1525843864802 4253.007231157153
1478.9402060351367 4272.408255269706
1479.7276359561693 4296.89856908869
1480.514874201328 4045.5320249940655
1481.3019208223468 4000.9760855412583
1482.0887758709323 3935.590832613582
1482.8754393987747 4314.623408382583
1483.6619114575406 3914.5816145629447
1484.4481920988783 4047.3688200002716
1485.2342813744108 4119.438686647454
1486.0201793357446 4351.660195579412
1486.8058860344572 3893.143748353261
1487.591401522117 3963.8255266194537
1488.3767258502594 4078.007613682554
1489.1618590704056 4098.548339895
1489.9468012340494 3731.6540091653806
1490.7315523926754 4026.742307767974
1491.5161125977356 4044.8515499530813
1492.3004819006637 4061.7099287740566
1493.084660352877 3838.375663743136
1493.8686480057622 4058.8754961778213
1494.6524449106964 4268.846914654856
1495.4360511190262 4276.682715259761
1496.219466682087 4050.4135540125003
1497.0026916511779 4024.0618653517267
1497.7857260775945 4215.919298332211
1498.5685700125996 4112.442893267134
1499.3512235074395 3773.0099357964855
1500.133686613337 3810.555721491301
1500.9159593814966 3993.8546228846158
1501.698041863101 4430.571802307008
1502.4799341093094 3868.284176914319
1503.2616361712662 3807.458431232209
1504.043148100087 4037.685222782692
1504.8244699468742 4107.317094291905
1505.6056017626997 3825.707610376828
1506.3865435986281 3855.367577302242
1507.1672955056893 4045.735264905544
1507.9478575348967 3894.159628181228
1508.7282297372512 4036.084499885948
1509.5084121637192 3962.120650965209
1510.2884048652577 3982.2806726512126
1511.0682078927948 3920.8522994448235
1511.8478212972423 3802.4733960528392
1512.6272451294917 3818.8794511518186
1513.4064794404076 3969.1480649452506
1514.1855242808433 4042.048139054534
1514.9643797016215 3920.8449833569625
1515.743045753552 3973.4443997853123
1516.5215224874191 4046.2457605472
1517.2998099539836 3682.223020349872
1518.077908203999 3905.8507178084355
1518.8558172881785 3839.942601475447
1519.633537257234 4066.9425281072554
1520.4110681618404 3964.3322958753247
1521.1884100526604 3891.65988897288
1521.9655629803365 3782.274223282768
1522.7425269954856 4133.340562478379
1523.5193021487103 4320.228102191645
1524.2958884905856 3789.2841681601594
1525.0722860716687 3859.5421110670345
1525.848494942502 3823.0789848804334
1526.624515153595 3913.5913267580377
1527.4003467554485 3886.2215132701303
1528.175989798534 3974.995418574433
1528.9514443333064 3878.0431531538466
1529.726710410203 4162.022629206617
1530.5017880796331 3857.3564532375713
1531.276677391992 3859.2296661198243
1532.0513783976457 4183.66199702869
1532.825891146953 3918.289628154984
1533.6002156902414 3900.8028890514775
1534.3743520778207 3980.277794741706
1535.1483003599806 3917.029594498087
1535.9220605869923 4033.2296391589343
1536.6956328091019 3999.3113104682425
1537.4690170765407 3898.0544196729143
1538.242213439511 4136.02531657966
1539.015221948208 4000.391784417852
1539.78804265279 3857.182557136759
1540.560675603405 3701.9193914901725
1541.3331208501804 4177.0296599696785
1542.1053784432224 4218.130807234705
1542.8774484326168 4042.9005119853587
1543.649330868422 3902.803626366573
1544.4210258006842 3980.1660380950116
1545.1925332794308 3986.573894635687
1545.9638533546604 3929.505202588249
1546.7349860763552 3898.891408301662
1547.5059314944829 4240.801203826737
1548.27668965898 4022.4401587751154
1549.0472606197673 4050.1390318065614
1549.817644426752 3842.6114956938627
1550.5878411298072 4069.2665857793872
1551.3578507787988 3996.3807774362685
1552.1276734235635 3859.7620548137747
1552.8973091139233 4031.4936929258
1553.6667578996767 4175.183192094787
1554.436019830604 4040.2239981074517
1555.20509495646 4018.6111888067135
1555.9739833269869 3881.1046722919064
1556.7426849919011 3910.769550312616
1557.511200000903 4355.475054725877
1558.2795284036674 4086.573890733033
1559.0476702498509 4004.158092130797
1559.8156255890954 4245.10276113115
1560.5833944710157 4468.090838801543
1561.3509769452048 4083.8596887582366
1562.1183730612447 4100.490700147884
1562.8855828686865 4111.789860615266
1563.6526064170703 4370.519018683771
1564.4194437559127 4246.2688480637935
1565.1860949347047 4072.1142481003203
1565.9525600029283 4429.119567245073
1566.7188390100328 4450.384893675375
1567.4849320054564 3996.484289255351
1568.250839038612 4051.5012654867883
1569.0165601588997 4121.109267497118
1569.7820954156887 4327.925857649954
1570.5474448583373 4107.033502468106
1571.31260853618 4032.867567632028
1572.0775864985299 3927.0345603608353
1572.8423787946813 4216.995673230537
1573.6069854739108 4047.6213617699223
1574.371406585471 4166.496461449655
1575.1356421785986 4173.696296383919
1575.899692302506 4003.697611911043
1576.6635570063845 4152.64214738687
1577.4272363394157 4003.102669164932
1578.190730350747 4070.666881687678
1578.9540390895163 4231.330117109362
1579.7171626048384 3868.838223227919
1580.480100945806 4002.4976648731563
1581.2428541614918 4089.7380513313183
1582.0054223009538 4162.252547327537
1582.767805413223 4169.718271858272
1583.5300035473156 3982.0047422166062
1584.292016752228 4235.704355576722
1585.0538450769309 4224.522682057482
1585.8154885703807 3867.59385075218
1586.5769472815136 3885.577999863156
1587.3382212592405 4065.5434260306183
1588.099310552463 4241.883830439549
1588.8602152100484 4255.115445719588
1589.6209352808564 4142.967047048442
1590.3814708137234 4039.250515846201
1591.14182185746 4274.682329476126
1591.9019884608679 4039.2820600227506
1592.6619706727215 3767.9862345512106
1593.4217685417734 4041.15293828214
1594.1813821167616 4195.95372149185
1594.9408114464022 3811.3223199998115
1595.7000565793933 3939.7163861767476
1596.459117564409 4005.534236702726
1597.2179944501113 3819.6891409011528
1597.9766872851324 3854.5970474851283
1598.735196118092 4073.68254722372
1599.4935209975883 4051.5880355699273
1600.2516619721973 4290.163366856653
1601.0096190904787 3852.0475955850466
1601.7673924009723 3877.3473776688006
1602.524981952196 3810.9677956035134
1603.2823877926476 3796.2255240194363
1604.0396099708087 3770.609153742317
1604.7966485351371 3790.0369951922453
1605.5535035340745 3763.310673295417
1606.3101750160404 4109.239511415628
1607.0666630294363 3737.380745627487
1607.822967622642 3672.824594973321
1608.5790888440224 3892.7205735831058
1609.3350267419137 3904.104433015057
1610.0907813646445 3914.6057591899066
1610.8463527605145 3752.9176745932937
1611.601740977805 3932.2874608065736
1612.356946064785 3798.9739411787423
1613.1119680696902 3503.4777887793025
1613.8668070407512 3754.527305545705
1614.6214630261748 3699.5209772797634
1615.375936074137 3882.4989601998723
1616.1302262328118 3798.6254146853244
1616.8843335503425 3944.0268717264216
1617.638258074854 3715.594907168021
1618.391999854457 3777.5936419398327
1619.1455589372363 4020.940666675871
1619.8989353712623 3788.461186469751
1620.65212920458 3564.9199898080906
1621.4051404852235 3685.147315038483
1622.1579692611976 3849.1085336252568
1622.9106155804966 3605.8572919489247
1623.663079491087 3655.0253022296506
1624.4153610409248 3862.349761822819
1625.1674602779385 3630.758067037785
1625.9193772500403 3584.401486683015
1626.6711120051277 4096.449930196828
1627.4226645910676 3717.8181360310286
1628.174035055721 3577.3445091647022
1628.9252234469168 3774.6286158535268
1629.676229812474 3606.3353814675806
1630.4270542001905 3970.56861892894
1631.1776966578382 3654.3045507548945
1631.9281572331747 3669.449754412138
1632.678435973945 3941.170550088995
1633.4285329278573 3853.5425422322865
1634.1784481426203 3524.1749875510386
1634.9281816659113 3795.293718789452
1635.677733545388 3883.356736011744
1636.4271038286934 3655.594409014187
1637.176292563452 3794.97826468881
1637.9252997972635 3679.8236979225812
1638.674125577716 3800.7080681470206
1639.4227699523672 4086.4148089075143
1640.171232968767 3459.2370174680646
1640.9195146744423 3720.0629740520903
1641.6676151168977 3805.5389336332905
1642.4155343436178 4057.338169671485
1643.1632724020765 3736.0870824831204
1643.9108293397167 3690.7121593651923
1644.658205203974 3690.3308525502725
1645.4054000422566 4247.269159109495
1646.1524139019566 3667.090218420936
1646.8992468304423 3523.650405400862
1647.6458988750728 3732.0605741487134
1648.3923700831765 3685.9124604268227
1649.1386605020743 3675.857984727799
1649.8847701790564 4032.4213533218776
1650.6306991614038 3780.4456020365046
1651.3764474963682 3881.4651023326087
1652.1220152311944 3477.2854751141167
1652.867402413096 3871.326448582142
1653.6126090892776 3817.9569527260637
1654.3576353069184 3964.6317172854638
1655.1024811131829 3701.4869276116924
1655.8471465552066 3729.559471988964
1656.5916316801213 3871.4341189709944
1657.3359365350298 3725.110130356523
1658.0800611670165 3720.4747229402537
1658.824005623148 3734.9669912016225
1659.5677699504722 3634.170869436447
1660.3113541960192 3777.8844981007446
1661.054758406799 3731.0585065825026
1661.7979826297997 3589.1250964046603
1662.5410269119966 3507.2179731046976
1663.283891300338 3861.1476075152686
1664.0265758417645 3630.8213420427005
1664.7690805831826 3769.879836980474
1665.5114055714948 3848.204680070953
1666.2535508535748 4077.9022866569017
1666.9955164762814 3495.073620766308
1667.7373024864555 3619.327225368891
1668.478908930916 3798.133134721242
1669.220335856462 3584.202976473493
1669.9615833098778 3573.7566818941364
1670.7026513379296 3477.8820705135595
1671.44353998736 3662.2591424863786
1672.1842493048916 3635.55526828392
1672.9247793372379 3544.2175533830077
1673.6651301310812 3657.019789093086
1674.4053017330934 3546.2115068061853
1675.1452941899242 3789.130075189731
1675.885107548207 3262.322674769341
1676.6247418545518 3272.1441539115986
1677.3641971555535 3504.7810333202788
1678.1034734977893 3666.6181289503575
1678.8425709278108 3426.377026447378
1679.5814894921605 3675.5659073557435
1680.320229237359 3658.822101942313
1681.0587902098978 3723.900033830809
1681.7971724562685 3413.788721862517
1682.5353760229264 3316.478551106701
1683.2734009563173 3604.0221848576994
1684.0112473028657 3332.8376702034047
1684.7489151089794 3573.9022678264155
1685.4864044210462 3517.0489420131066
1686.2237152854377 3161.740117630572
1686.960847748498 3639.4437905006366
1687.6978018565642 3344.8632977027655
1688.434577655944 3250.6710051250147
1689.1711751929379 3155.702699580153
1689.9075945138156 3374.955262718355
1690.6438356648396 3176.0576818819222
1691.3798986922448 2941.079813740895
1692.1157836422499 3189.6126406635663
1692.851490561059 3163.7021004101475
1693.587019494853 3273.8217727136794
1694.3223704897991 2907.517622818425
1695.0575435920364 2942.002588633396
1695.792538847696 3529.8883153099414
1696.527356302886 3079.3691004336442
1697.2619960036936 2959.492254760251
1697.9964579961907 2971.9027893534385
1698.730742326432 2775.137286234665
1699.4648490404488 2852.744513437411
1700.1987781842563 2951.0039899945623
1700.9325298038548 3207.0067231949133
1701.6661039452174 3230.912701121071
1702.3995006543082 3031.153648197813
1703.1327199770658 3130.101242484821
1703.865761959416 2595.9529721123686
1704.598626647261 3325.946799043052
1705.3313140864866 2850.3151252617454
1706.0638243229587 2941.160002643034
1706.7961574025303 3094.8810084881084
1707.528313371029 3009.0281380768092
1708.260292274268 2834.291385165639
1708.9920941580403 2959.152929702363
1709.7237190681226 3029.9918206114426
1710.4551670502697 2939.386867010142
1711.18643815022 2713.0220813180545
1711.9175324136959 3281.31582912351
1712.6484498863938 2974.1004299046053
1713.379190614005 2731.9468006993743
1714.109754642188 2863.7847135577085
1714.8401420165883 2859.3548987704557
1715.570352782839 3424.655489771822
1716.3003869865497 2961.1175774329513
1717.0302446733076 2697.164337808573
1717.7599258886876 2821.8748829851634
1718.4894306782444 3266.128204987359
1719.2187590875183 2745.404476195394
1719.9479111620203 3114.0134629174972
1720.6768869472544 2787.4798008033904
1721.4056864887025 3174.7366241597956
1722.1343098318284 3192.472221451686
1722.8627570220742 2869.720452687293
1723.591028104871 2661.989475489363
1724.3191231256242 2573.286555318341
1725.0470421297232 2939.204837641096
1725.7747851625427 2992.4335590861187
1726.5023522694337 2925.022753682423
1727.2297434957363 2862.596859051088
1727.9569588867635 2729.117916195055
1728.6839984878152 3010.994514236016
1729.4108623441734 2515.4212404734376
1730.1375505011038 2900.557820556912
1730.8640630038426 2673.1084926630156
1731.5903998976264 2720.176128421189
1732.316561227657 2894.1127266939216
1733.0425470391274 2595.777804962889
1733.7683573772065 2858.4022767271945
1734.4939922870508 2752.451755840992
1735.2194518137949 2803.616225037284
1735.9447360025606 2879.112410513678
1736.669844898439 2794.4802256967064
1737.3947785465189 2649.94351243063
1738.1195369918605 2565.9992331644758
1738.8441202795093 2710.997786313906
1739.5685284544943 2802.4654245213505
1740.292761561821 2854.850871235679
1741.0168196464838 2916.356936223826
1741.7407027534518 2852.966972344016
1742.464410927687 2742.7424089045926
1743.187944214118 2602.535460264668
1743.9113026576688 2684.943231080129
1744.634486303241 2710.0161088619443
1745.3574951957125 2746.853412758873
1746.0803293799509 2967.1221951571424
1746.8029889008048 2729.554170424509
1747.5254738031017 2843.2886043194335
1748.2477841316504 2617.6378394252474
1748.969919931249 2757.816140387077
1749.6918812466665 2655.384353923483
1750.4136681226646 2860.9219584128427
1751.1352806039777 2635.973519809729
1751.856718735331 2443.2247502367536
1752.5779825614281 2483.950014595134
1753.2990721269507 2905.10375961456
1754.0199874765676 2829.00622229729
1754.7407286549314 2482.2456828588593
1755.4612957066693 2659.6675707625045
1756.1816886763954 2638.0679501744094
1756.9019076087097 2796.688265586434
1757.6219525481865 2669.7201113168435
1758.3418235393856 2720.724236882618
1759.061520626854 2657.9840377620603
1759.7810438551096 2905.279141504986
1760.5003932686614 2448.799122915423
1761.2195689119999 2922.0198466509887
1761.938570829594 2700.617168448083
1762.657399065898 2721.7254584284005
1763.376053665348 2497.9573269531056
1764.0945346723602 2429.7388039010425
1764.812842131334 2802.939384406397
1765.5309760866512 2510.831447919711
1766.2489365826787 2520.191158884225
1766.9667236637597 2652.7455976957804
1767.684337374223 2352.972008347288
1768.401777758383 2443.150931122417
1769.1190448605284 2428.3743941766056
1769.836138724937 2548.3075441511046
1770.5530593958665 2675.704831004935
1771.2698069175603 2888.3456927080283
1771.9863813342326 2717.5056349381753
1772.702782690094 2483.3000622951604
1773.4190110293293 2653.061939592412
1774.1350663961111 2754.360018793476
1774.8509488345844 2615.427165510298
1775.5666583888924 2652.540325406145
1776.2821951031437 2827.008588629215
1776.9975590214362 2581.86562418345
1777.7127501878585 2748.497497191168
1778.4277686464684 2716.881588666178
1779.1426144413108 2879.3115440809356
1779.8572876164162 2794.3527316020804
1780.571788215797 2483.0269404090823
1781.2861162834415 2679.8982917859485
1782.0002718633277 2559.495462688195
1782.7142549994132 2689.2528761727417
1783.4280657356376 2633.797337410514
1784.141704115922 2589.3703315721896
1784.855170184177 2576.1692373498013
1785.5684639842839 2616.1019857191764
1786.2815855601148 2211.2915644354903
1786.9945349555237 2814.037495930866
1787.707312214343 2446.1059553371283
1788.4199173803918 2454.5890224979835
1789.132350497468 2463.3001694773084
1789.8446116093583 2574.55108042323
1790.556700759822 2533.4136421088942
1791.2686179926077 2509.3770505224225
1791.9803633514493 2535.022062196829
1792.6919368800554 2397.589938466442
1793.4033386221236 2516.975864043782
1794.1145686213295 2680.693627142572
1794.8256269213307 2897.0757541436296
1795.536513565774 2651.95107282042
1796.247228598284 2330.0541623076724
1796.9577720624693 2476.102779780082
1797.6681440019165 2631.455681972951
1798.3783444602013 2534.567699799324
1799.0883734808776 2716.442194503982
1799.7982311074884 2648.854523008147
1800.5079173835475 2572.741598654792
1801.2174323525633 2663.8708287543996
1801.9267760580187 2489.886893838605
1802.635948543386 2605.6099459673796
1803.3449498521113 2384.8335636723336
1804.0537800276325 2584.072422310339
1804.7624391133668 2537.6445026640185
1805.47092715271 2378.512677579505
1806.1792441890484 2339.440952818967
1806.8873902657433 2652.9519708534945
1807.5953654261448 2527.8051617290344
1808.3031697135812 2447.3778142115602
1809.0108031713662 2382.6233202972135
1809.71826584279 2517.389222855955
1810.425557771141 2553.178372920854
1811.1326789996747 2505.992881560444
1811.839629571632 2458.615610530518
1812.5464095302468 2461.5056189528595
1813.2530189187182 2542.709473712344
1813.959457780249 2508.738308968409
1814.6657261580076 2659.2291522754067
1815.371824095153 2463.215668105141
1816.0777516348262 2706.642128132072
1816.78350882015 2189.5626966139835
1817.4890956942272 2359.6397710483993
1818.1945123001533 2499.840618329302
1818.8997586809928 2386.5128195158522
1819.6048348798067 2435.610537879627
1820.3097409396287 2524.956026241453
1821.0144769034796 2936.3811647316716
1821.7190428143622 2562.629436263172
1822.423438715261 2680.3321362922165
1823.1276646491478 2521.6932282488738
1823.8317206589727 2603.9065879811887
1824.5356067876692 2528.108258910574
1825.2393230781581 2580.7911281360184
1825.942869573335 2240.9136645064555
1826.646246316086 2308.6558236771193
1827.3494533492758 2591.7265444761256
1828.052490715756 2593.1907440887126
1828.7553584583547 2603.1319220446917
1829.458056619891 2637.560658124196
1830.1605852431585 2533.1966932991836
1830.8629443709433 2302.537526185245
1831.5651340460063 2477.0795142361612
1832.2671543110919 2298.7141302483446
1832.9690052089318 2530.208913136645
1833.6706867822395 2258.3304101364547
1834.3721990737104 2570.728315663879
1835.0735421260233 2741.099973046189
1835.774715981841 2446.055617615153
1836.4757206838058 2792.187303477045
1837.1765562745459 2416.2998322943336
1837.8772227966747 2287.220820467757
1838.5777202927839 2533.066416343821
1839.2780488054523 2352.884296911903
1839.9782083772352 2422.090693149996
1840.6781990506806 2856.380997114483
1841.378020868313 2508.9256369694417
1842.0776738726418 2459.2248736267984
1842.777158106157 2386.857557993196
1843.4764736113375 2385.8627100469116
1844.1756204306403 2619.185777189853
1844.8745986065078 2537.27822054686
1845.5734081813607 2299.239207761233
1846.2720491976124 2346.146609578133
1846.970521697649 2331.8029553708293
1847.6688257238511 2576.432540469452
1848.3669613185684 2353.076693122638
1849.0649285241452 2180.997913517687
1849.7627273829057 2427.5915163755253
1850.460357937156 2490.5427918533464
1851.1578202291857 2216.179668527164
1851.8551143012664 2384.211696363312
1852.5522401956569 2401.140763024554
1853.2491979545957 2645.02443346768
1853.9459876203055 2351.2116744472273
1854.6426092349902 2295.394830316848
1855.3390628408451 2332.080302524398
1856.0353484800362 2689.977657762543
1856.7314661947203 2584.922499339681
1857.4274160270397 2189.4652341016736
1858.123198019115 2352.041885775824
1858.8188122130487 2364.291336895858
1859.5142586509319 2418.116330592314
1860.209537374838 2423.467872440772
1860.9046484268183 2294.3454002445856
1861.599591848917 2744.8903104652663
1862.294367683151 2374.2412430788263
1862.988975971528 2261.209500564279
1863.6834167560355 2452.4889876550187
1864.3776900786452 2692.7758141045815
1865.0717959813119 2328.762052890343
1865.7657345059724 2358.340422301103
1866.4595056945564 2534.602733420838
1867.1531095889586 2665.8149350910853
1867.846546231076 2136.6551872205664
1868.5398156627743 2515.442018907825
1869.2329179259123 2355.658813960088
1869.9258530623283 2659.0862369570323
1870.618621113843 2376.331800266993
1871.3112221222636 2262.415657890994
1872.0036561293764 2356.4022169556392
1872.695923176956 2497.0637173216
1873.3880233067594 2706.5223696494304
1874.0799565605212 2190.957473119316
1874.7717229799673 2433.143861880757
1875.4633226068036 2705.729908935312
1876.1547554827175 2609.9758244373443
1876.8460216493859 2427.5377457178965
1877.5371211484617 2318.157314381819
1878.2280540215852 2696.8337528341794
1878.9188203103804 2213.8731578600937
1879.6094200564548 2437.084766884467
1880.299853301396 2306.8587358105283
1880.9901200867826 2635.1199889946142
1881.6802204541673 2511.002831505241
1882.3701544450942 2425.759078883412
1883.059922101087 2186.520314379578
1883.7495234636517 2588.477483053912
1884.4389585742792 2335.5806589919416
1885.1282274744517 2274.7749932765737
1885.8173302056166 2310.617306867529
1886.506266809225 2346.511117488411
1887.195037326701 2225.7878268986356
1887.8836417994517 2330.089470166617
1888.5720802688702 2583.9090479853407
1889.260352776333 2473.989724489839
1889.9484593632042 2640.6600672174604
1890.63640007082 2359.5631535803427
1891.3241749405151 2300.48870980611
1892.0117840135954 2531.2882088712554
1892.6992273313572 2448.951145494962
1893.3865049350788 2149.7690804063086
1894.0736168660223 2259.0392690625363
1894.7605631654333 2368.401165439606
1895.4473438745408 2090.7459609095304
1896.133959034556 2718.9167209812067
1896.820408686679 2475.1722887832025
1897.506692872088 2689.7278985467274
1898.192811631945 2352.4849566786033
1898.8787650073991 2342.1107692925243
1899.5645530395832 2481.0469023342475
1900.2501757696118 2599.4778600634772
1900.9356332385796 2220.0675410631757
1901.620925487574 2745.8786502938533
1902.3060525576602 2473.4230812081328
1902.9910144898859 2489.453347280533
1903.6758113252872 2314.7338572504473
1904.3604431048789 2476.503265041515
1905.0449098696663 2545.746323641176
1905.7292116606295 2263.9708362073025
1906.4133485187394 2345.9226485319623
1907.0973204849488 2042.2274628270607
1907.7811276001976 2180.7703612245195
1908.4647699053967 2425.7987139177103
1909.1482474414588 2365.399224761553
1909.8315602492694 2304.7672085612203
1910.5147083696957 2540.1770091929416
1911.1976918436012 2420.015555721798
1911.880510711815 2221.3192484845176
1912.5631650151681 2211.928109882226
1913.2456547944657 2202.4624370247047
1913.927980090495 2301.7730537475136
1914.6101409440362 2299.711754533265
1915.2921373958416 2559.9504459886616
1915.9739694866603 2388.0828848568262
1916.655637257214 2616.4787890314688
1917.3371407482136 2341.710447438202
1918.0184800003572 2676.0103956678827
1918.6996550543154 2525.9316319834875
1919.3806659507554 2470.148000513086
1920.0615127303208 2435.5097941359345
1920.7421954336423 2481.5062731312623
1921.4227141013343 2816.451459106901
1922.103068773993 2494.393126654165
1922.783259492202 2605.508224180647
1923.4632862965227 2396.6568865675126
1924.1431492275078 2348.793848328228
1924.8228483256917 2205.9290398012304
1925.5023836315922 2378.2084852627186
1926.1817551857057 2561.1085761049376
1926.8609630285227 2237.637817011564
1927.5400072005123 2484.959887434296
1928.218887742125 2324.3858186357083
1928.8976046938005 2248.8939456050352
1929.5761580959588 2524.0813318890014
1930.2545479890086 2414.229928022716
1930.9327744133352 2074.0070074671503
1931.6108374093164 2332.3796272677473
1932.2887370173066 2201.8513597798806
1932.9664732776473 2070.964481720192
1933.6440462306673 2381.0931207118674
1934.3214559166754 2262.704136690888
1934.9987023759659 2653.033963318665
1935.675785648813 2605.5966007555303
1936.3527057754836 2673.7302290227112
1937.029462796223 2742.0354586208223
1937.70605675126 2309.8099584605757
1938.3824876808085 2172.5300473520915
1939.058755625072 2263.541430266153
1939.7348606242267 2271.8514926460357
1940.4108027184448 2398.5532041677043
1941.0865819478713 2502.609818683378
1941.7621983526478 2203.1728548781457
1942.4376519728921 2048.6088067035002
1943.1129428487038 2337.604767017451
1943.7880710201734 2590.7147087937765
1944.4630365273733 2522.3888371240546
1945.1378394103576 2077.717176974974
1945.8124797091714 2099.5535445350606
1946.4869574638324 2121.3598392216504
1947.161272714353 2270.9754113436584
1947.8354255007234 2390.879016155454
1948.5094158629272 2227.76875386341
1949.1832438409183 2445.497018906122
1949.8569094746435 2472.86295989378
1950.530412804037 2557.4490709042025
1951.2037538690092 2640.2385747353146
1951.8769327094578 2307.6205093692993
1952.5499493652678 2373.7206365500924
1953.222803876306 2584.7278780286524
1953.895496282421 2429.052333970544
1954.5680266234522 2323.660509060956
1955.2403949392155 2375.899452884695
1955.9126012695142 2119.0027107844608
1956.5846456541403 2396.4973600242884
1957.2565281328643 2222.2914498667005
1957.9282487454457 2537.4472871838384
1958.5998075316202 2507.010256798798
1959.27120453112 2150.777092162087
1959.9424397836501 2323.869265821691
1960.613513328908 2636.446470272427
1961.2844252065697 2662.10292793043
1961.9551754563017 2065.3511267557833
1962.6257641177453 2135.6297760772622
1963.29619123054 2093.8362012620205
1963.966456834296 2153.1984529792817
1964.6365609686181 2201.724049782806
1965.306503673086 2468.856246893068
1965.976284987275 2189.35464701776
1966.645904950734 2340.310322619219
1967.315363603002 1925.1962691032754
1967.9846609836077 2204.2704603851594
1968.6537971320486 2224.8427871079034
1969.3227720878222 2399.370447490396
1969.9915858904042 2239.1260889223813
1970.660238579252 2385.1205901324315
1971.3287301938108 2204.1906005434603
1971.997060773514 2251.756357824609
1972.665230357772 2172.986187450396
1973.3332389859843 2241.909687960024
1974.0010866975335 2117.8795435719267
1974.6687735317864 2312.157713812212
1975.3362995280932 2374.7294962782466
1976.003664725793 2375.6983636499854
1976.6708691642052 2017.53285002426
1977.3379128826364 2238.807127493791
1978.004795920373 2564.764248480962
1978.6715183166925 2736.587713996491
1979.3380801108524 2018.4570034085004
1980.0044813420973 2229.1174485257134
1980.6707220496555 1982.0648324058966
1981.3368022727373 2258.1819061268175
1982.0027220505417 2420.960369280542
1982.66848142225 1932.8859291189904
1983.3340804270283 1852.6214862970076
1983.999519104027 2168.2403930346427
1984.6647974923835 2435.35265499075
1985.329915631215 2329.31316745032
1985.99487355963 2291.362796663808
1986.6596713167146 2643.718324226925
1987.3243089415428 2129.331676845603
1987.9887864731754 2563.6641067579158
1988.6531039506553 2649.5873327653976
1989.3172614130071 2735.6709321383446
1989.9812588992481 2267.0453733382183
1990.645096448372 1823.9364710450877
1991.3087740993633 2307.5711221564807
1991.9722918911848 2266.1160515292913
1992.635649862792 2269.245941463326
1993.2988480531185 2387.1689060643757
1993.9618865010852 2729.0127164075616
1994.6247652455968 2207.840187722916
1995.287484325545 2173.5718990415976
1995.9500437798033 2185.221619137003
1996.6124436472292 2109.185299339767
1997.2746839666706 2520.586014369142
1997.936764776954 2226.857239584874
1998.598686116895 2221.3382025884957
1999.2604480252903 2601.4689571952104
1999.9220505409212 2468.8752042774418
2000.5834937025593 2068.533833450342
2001.2447775489582 2234.2854077414477
2001.9059021188514 2331.164521477666
2002.5668674509616 2099.1148254054287
2003.2276735839987 2175.0262190514013
2003.8883205566508 2558.617437807866
2004.5488084075987 2256.5733918872156
2005.2091371755014 2079.2448070198225
2005.8693068990033 2056.9633834991755
2006.5293176167397 2527.7284169985037
2007.1891693673224 2284.3488600823844
2007.848862189354 2086.3667645033097
2008.5083961214223 2193.5129505653845
2009.1677712020955 2191.8746897493684
2009.8269874699254 2081.064143736408
2010.4860449634598 2072.2602177059366
2011.1449437212177 2063.5553731169985
2011.8036837817108 2580.708930568045
2012.4622651834325 2516.4081101316747
2013.1206879648653 2328.315896991443
2013.7789521644736 2087.7430476964846
2014.4370578207036 2372.7488527670585
2015.0950049719922 2160.982978440262
2015.7527936567585 2357.226406434841
2016.4104239134067 2187.4493961459298
2017.067895780323 2595.7043447531787
2017.725209295886 2595.108206838678
2018.3823644984514 2594.4472409671575
2019.0393614263648 2462.026606872646
2019.6962001179545 2306.878484114419
2020.3528806115355 2467.6198067192777
2021.0094029454067 2326.995921350467
2021.6657671578487 1891.2730606791695
2022.321973287133 2269.3261152602304
2022.9780213715148 2145.1882998660844
2023.6339114492293 2240.694053537392
2024.2896435585026 2118.5379798496774
2024.9452177375442 2279.1118819948765
2025.600634024544 2529.7846949290442
2026.2558924576842 2399.1327357853893
2026.9109930751292 2506.0178626109096
2027.565935915025 2140.872800729495
2028.2207210155066 2551.540368456875
2028.8753484146964 2528.6770388347586
2029.529818150695 2500.1907857671385
2030.1841302615903 2471.451266260372
2030.8382847854573 2117.985893245252
2031.4922817603601 2318.9539759023182
2032.1461212243357 2124.789356060078
2032.7998032154192 2007.7341549317348
2033.4533277716218 2094.3436023401646
2034.1066949309443 1887.5311181864454
2034.7599047313688 1999.0810833733424
2035.4129572108704 2314.283092400451
2036.0658524074006 2219.111407247551
2036.7185903589016 2262.691991308273
2037.3711711032956 2243.570058323352
2038.023594678496 2096.518034971981
2038.675861122394 2068.754202565613
2039.3279704728757 2053.8666378713374
2039.9799227678031 2039.1341171872368
2040.6317180450278 2137.068058914948
2041.2833563423865 2168.6875615386034
2041.9348376977014 2599.538082061003
2042.5861621487784 2434.6519875549197
2043.2373297334088 2299.2908148955808
2043.8883404893695 2224.7917837704827
2044.5391944544208 2252.675881462992
2045.1898916663158 2411.1748430941607
2045.8404321627804 2576.4214971191295
2046.4908159815368 2119.2188287390445
2047.1410431602853 2313.2159938463637
2047.7911137367173 2049.9760359181137
2048.441027748504 2417.71028002791
2049.090785233302 2108.057796458728
2049.7403862287592 2148.2855885657746
2050.389830772503 2589.463642027869
2051.0391189021466 2503.647065707215
2051.688250655294 2417.866965448819
2052.337226069527 1989.654055676645
2052.986045182417 2378.1934471760924
2053.634708031521 1840.4633947206119
2054.283214654375 2338.019515112339
2054.931565088511 1854.8816628413776
2055.579759371436 1979.594393583522
2056.2277975406523 2388.110570437698
2056.8756796336384 2557.264070822532
2057.5234056878617 2006.5230067568052
2058.1709757407752 2073.131416396401
2058.8183898298194 2456.6450877750394
2059.465647992416 2458.306536772033
2060.1127502659747 2421.2566524370354
2060.759696687888 2053.2283110540307
2061.4064872955405 2385.5164095655414
2062.053122126292 2061.7087868706594
2062.699601217497 2280.3864313366685
2063.345924606485 2028.6982302013253
2063.992092330587 2219.9604218179716
2064.638104427102 1993.83633213233
2065.283960933324 2079.2240761309276
2065.92966188653 2164.711111133677
2066.5752073239855 2458.7925721869124
2067.2205972829397 2039.2635714259097
2067.86583180062 2180.047246358637
2068.5109109142522 2157.1438523011484
2069.15583466104 2192.2950437220857
2069.8006030781708 1996.2985990332588
2070.445216202821 2121.4096006329296
2071.089674072153 2415.3179354053
2071.7339767233116 2415.2740311834136
2072.3781241934303 2185.925125456636
2073.0221165196253 2350.211563364971
2073.6659537390024 2150.4273072475485
2074.3096358886505 2339.027163011374
2074.953163005637 2122.0381587366437
2075.596535127028 1995.2226375239966
2076.2397522898664 2020.54184546413
2076.882814531182 2250.956117760425
2077.5257218879924 2219.1597555583585
2078.1684743973 2104.7198583004015
2078.8110720960885 1936.160382551231
2079.453515021336 2107.859974607957
2080.095803209997 2279.701564305098
2080.7379366990135 2195.850105365011
2081.37991552532 2360.3151714522646
2082.0217397258275 2310.8566050986
2082.6634093374414 2312.0415326859065
2083.3049243970418 2313.3223897861844
2083.9462849415067 2417.3608023908537
2084.587491007689 2149.1113285517667
2085.2285426324324 2278.937355395218
2085.869439852564 2205.7393273307957
2086.510182704902 2082.7555799880574
2087.1507712262483 2239.678772024734
2087.791205453381 2267.65924565749
2088.4314854230743 2295.635640126721
2089.0716111720867 2236.0152482150856
2089.7115827371617 1855.7817021775147
2090.351400155023 1867.8445016542432
2090.991063462385 1880.0236315904535
2091.6305726959527 1824.7890747336428
2092.2699278924047 2238.1651862828403
2092.9091290884153 2057.326714806529
2093.548176320641 1928.7181031347002
2094.187069625721 2382.2744158815085
2094.8258090402887 1770.2078048187304
2095.464394600951 2222.244164204138
2096.102826344313 2140.2105082123303
2096.741104306955 2446.836224364496
2097.379228525453 1946.2285164483867
2098.017199036358 1906.0101526105543
2098.6550158762147 2096.6916014998637
2099.2926790815527 2287.7700024790643
2099.9301886888825 2232.358676403407
2100.5675447347076 2272.5752470880097
2101.2047472555114 2524.7435946448045
2101.841796287761 2188.531580731206
2102.47869186792 2239.5051867286293
2103.1154340324265 2015.1131949208611
2103.752022817709 2192.0613930344293
2104.388458260184 2077.8379993021726
2105.024740396251 2179.0319379350613
2105.660869262292 2193.409526985055
2106.296844894685 2465.787798269819
2106.93266732978 2242.7159594211967
2107.5683366039284 1755.8446031699175
2108.2038527534532 2062.382117498651
2108.8392158146726 2005.547782004665
2109.4744258238843 1948.6094791319997
2110.1094828173755 2023.2758538023322
2110.744386831422 2099.3729901259076
2111.3791379022787 2175.7030357442122
2112.01373606619 2482.9235576489186
2112.648181359389 2362.861066683533
2113.28247381809 2286.026553071437
2113.916613478492 2233.156424390353
2114.550600376786 2320.8505121065186
2115.1844345491445 2149.7661264667418
2115.818116031729 2158.226666634034
2116.451644860679 2122.731997656342
2117.085021072133 1795.6820711848063
2117.718244702204 2181.7629039342264
2118.3513157869984 2062.801053361386
2118.984234362604 1938.645657082893
2119.617000465092 2053.991643268592
2120.249614130529 2421.6904268554
2120.8820753949585 2092.767465681234
2121.5143842944162 2107.981242985179
2122.14654086492 2111.0878340028694
2122.7785451424734 1947.3117406781068
2123.4103971630702 2278.4896488478653
2124.042096962681 2103.3131211279497
2124.6736445772767 2371.185500737469
2125.305040042802 1950.8823231195552
2125.936283395191 2095.7304519464747
2126.567374670365 2198.762247147314
2127.198313904233 2108.477269419206
2127.8291011326855 2035.1069869465198
2128.4597363916037 1961.3413581699156
2129.0902197168507 2089.8714458035115
2129.720551144279 1938.463665663951
2130.3507307097225 2510.1051536118257
2130.980758449008 2566.537328693369
2131.6106343979427 2477.041597918069
2132.2403585923203 2387.316866664269
2132.8699310679276 2424.7038527790355
2133.499351860526 2179.910160849654
2134.1286210058715 1958.6173192226402
2134.7577385397053 2282.699336561613
2135.3867044977487 2095.7766343716817
2136.0155189157176 2451.194025042955
2136.644181829308 2459.140346817833
2137.2726932742025 2110.118306156227
2137.901053286074 2007.7236464901866
2138.5292619005777 1905.2457724421542
2139.1573191533535 2011.187381592215
2139.7852250800315 2093.472764250149
2140.4129797162295 2277.891125434854
2141.0405830975433 1926.0454972452953
2141.6680352595613 1885.006423130794
2142.2953362378576 1843.9101665628343
2142.9224860679915 1898.767618976978
2143.549484785508 2004.3231248364095
2144.1763324259373 2091.0842874870864
2144.803029024799 1986.6298283801875
2145.429574617594 2037.8688488140263
2146.0559692398165 2105.557014257834
2146.682212926942 2089.347806849733
2147.308305714432 2210.2199259554927
2147.9342476377333 2430.315461358921
2148.5600387322847 2590.8022227552724
2149.185679033506 2154.3526451506527
2149.8111685768017 1993.9714056847104
2150.4365073975678 1964.8783499748238
2151.061695531187 1923.1884351045453
2151.686733013021 2347.876454715416
2152.311619878423 2302.9793289189624
2152.9363561627342 2173.532875062733
2153.560941901278 2241.071552033184
2154.1853771293663 2308.5435774679568
2154.809661882293 2165.3439691977974
2155.433796195348 2499.460354002152
2156.0577801037944 2460.973507206589
2156.681613642895 2422.200164821391
2157.3052968478896 1924.074707420978
2157.928829754006 2318.502615548883
2158.552212396462 2278.240066518241
2159.1754448104566 2222.6510987687752
2159.7985270311783 1828.3394694196672
2160.4214590938027 1565.2438821814667
2161.0442410334927 1643.8756496426322
2161.6668728853874 1771.199748125083
2162.289354684628 1898.827055841993
2162.911686466332 2136.040223497292
2163.533868265602 2227.3105352842913
2164.1559001175337 2383.4644176954102
2164.7777820572046 2273.8588516570226
2165.399514119681 2054.9521335801305
2166.021096340013 1961.7028302829199
2166.6425287532384 2459.950870723121
2167.263811394385 1810.0807561117024
2167.8849442984574 2302.8409528340285
2168.505927500455 1942.7500661537129
2169.126761035366 2288.311516317822
2169.7474449381552 2096.424749821327
2170.367979243778 2134.5410280048122
2170.9883639871823 2172.8514258725086
2171.608599203293 1963.2460684493449
2172.2286849270276 2515.252699253887
2172.8486211932886 2629.1389411916384
2173.4684080369625 2253.064446770226
2174.0880454929265 1924.7631295268461
2174.7075335960417 1729.0192218053157
2175.3268723811543 1763.5790944315363
2175.9460618831 1798.2515473893825
2176.565102136701 2010.06830781104
2177.1839931767627 2006.7318556949763
2177.802735038078 2003.4154078698878
2178.421327755432 1896.9156581736922
2179.0397713635866 1784.7662530496896
2179.658065897298 1861.7846046878403
2180.276211391305 2239.5739534591053
2180.8942078803357 2018.784762287154
2181.5120553991 2255.474722953376
2182.129753982299 2225.8049775469403
2182.7473036646206 2196.0793990611455
2183.3647044807367 2228.1629322546146
2183.9819564653044 1841.9463880551168
2184.599059652968 2129.7975999183373
2185.216014078367 2213.3588175770774
2185.832819776113 2254.5345211521235
2186.4494767808137 2295.6789655743823
2187.065985127063 1939.467388271607
2187.682344849436 1898.0092151497015
2188.298555982501 2398.714519671159
2188.9146185608097 2115.6998930203567
2189.530532618901 2287.1805584112585
2190.1462981912937 2125.909292152316
2190.761915312507 2322.244598485025
2191.377384017036 2019.2819453299023
2191.9927043393654 2090.672686500552
2192.6078763139667 1739.3598613222105
2193.2228999753006 1890.6373594494144
2193.837775357808 2042.253670131756
2194.452502495922 1758.3386787444506
2195.0670814240602 2131.348826272345
2195.6815121766285 1722.1414513450236
2196.2957947880186 1715.6394713380316
2196.9099292926057 1709.1303370659994
2197.523915724758 2197.7733932887595
2198.137754118825 2008.7258536393213
2198.7514445091456 2418.9345131845457
2199.3649869300443 2460.34353676885
2199.9783814158327 2501.952604523671
2200.5916280008096 2588.00733921354
2201.2047267192593 2246.370383661235
2201.8176776054515 2154.9051124323914
2202.430480693649 1852.1802670110646
2203.0431360180955 2302.245872620194
2203.6556436130195 2392.9799355183736
2204.268003512645 1647.6307106208053
2204.8802157511727 1972.4009344816532
2205.492280362796 2489.703907851742
2206.1041973816937 2181.1590425811555
2206.715966842032 2104.4437244351548
2207.3275887779655 2042.8447036402122
2207.93906322363 2238.160458496303
2208.550390213153 2208.4303938525327
2209.1615697806465 2258.572048302659
2209.7726019602105 1748.5995063789335
2210.3834867859277 1850.007920446876
2210.9942242918787 1932.934425483437
2211.6048145121167 2233.305263348453
2212.2152574806914 2717.558895300947
2212.825553231638 1939.6972870116424
2213.435701798975 1930.7520540141934
2214.045703216707 1922.0075473417223
2214.655557518832 1560.8215460306571
2215.2652647393297 1712.4915492334399
2215.874824912169 1930.6942589931557
2216.4842380713 1692.1016669397827
2217.09350425067 1927.4948444652655
2217.7026234842033 2251.852580855938
2218.311595805819 2240.423447170633
2218.9204212494133 1899.0066041583818
2219.52909984888 2505.857789680107
2220.137631638092 2452.0023030134503
2220.7460166509154 2397.8798706542234
2221.354254921198 1892.5922521225548
2221.9623464827764 2045.0520148350092
2222.5702913694713 2125.955969514748
2223.178089615096 2261.654399235874
2223.7857412534486 2070.9094317234185
2224.39324631831 1620.5015715649847
2225.000604843457 1908.8863593750352
2225.607816862641 2226.557880906804
2226.214882409611 2133.0246527655227
2226.8218015180973 2105.6863936541736
2227.4285742218217 2091.1623361915827
2228.0352005544864 2060.572385813488
2228.6416805497847 1733.0337087029668
2229.248014241399 2007.7392453786106
2229.8542016629945 1720.3652057584507
2230.460242848223 2143.315028522189
2231.0661378307304 2492.8029624200044
2231.671886644139 1829.3325115365053
2232.277489322065 1570.4210282594865
2232.8829458981127 1504.552911543112
2233.48825640587 2083.040493951976
2234.0934208789095 2737.9878619978194
2234.6984393507955 2334.8806698466556
2235.3033118550793 2097.4535493744706
2235.9080384252975 1858.3002870728117
2236.5126190949723 1726.8843844024468
2237.1170538976166 1679.3208401279976
2237.721342866729 1631.709138637313
2238.32548603579 1834.9924229603232
2238.9294834382763 2144.033920031915
2239.533335107646 2069.5193228915496
2240.1370410773434 1972.8618846284069
2240.740601380803 1836.409391853551
2241.3440160514474 2097.910698610201
2241.9472851226783 2305.4649623020973
2242.550408627896 2048.3742320817805
2243.1533866004793 2391.8074316369984
2243.756219073799 2007.65491561247
2244.3589060812064 1838.2685117773715
2244.961447656049 1860.5874724483754
2245.5638438316564 2052.9692345846734
2246.166094641343 2068.2266933835217
2246.7682001184166 1729.6253549938797
2247.3701602961664 1946.2813763790205
2247.971975207871 2222.7215799041414
2248.5736448867974 2293.2038481121585
2249.175169366197 1858.2544740325407
2249.7765486793123 2109.8588614419323
2250.3777828593684 2116.0282564633085
2250.9788719395783 2180.1864408876145
2251.579815953146 2087.726287239928
2252.1806149332606 1939.8358715186284
2252.781268913097 2108.2597694239157
2253.381777925817 1773.366281562487
2253.9821420045737 1991.2133928511757
2254.5823611825035 2218.3398093558435
2255.1824354927303 1926.3849573865111
2255.782364968365 1813.0987675423276
2256.38214964251 1699.712277524549
2256.9817895482483 1723.4749230734153
2257.5812847186553 1960.506261698111
2258.180635186791 1774.292107895239
2258.779840985704 1939.6978124739167
2259.37890214843 2013.6317167496659
2259.97781870799 2077.936430902667
2260.5765906973957 2142.3731772163783
2261.175218149645 2154.8532972074595
2261.773701097718 2096.33095985395
2262.3720395745895 1742.8741215751622
2262.970233613216 1659.5775411483276
2263.568283246548 2028.7991458987697
2264.1661885075137 1916.6593923706637
2264.763949429038 1874.0464184962707
2265.3615660440246 2377.5872872646205
2265.959038385374 1697.483085595454
2266.5563664859637 2294.3586763524813
2267.153550378669 1742.6038696072712
2267.7505900963424 2319.3651183929546
2268.3474856718312 1980.2486372264775
2268.9442371379664 1957.7883563930798
2269.5408445275643 1947.5950193515987
2270.1373078734377 1968.0000284161354
2270.7336272083758 1815.6028246297265
2271.32980256516 1747.0861354750668
2271.925833976562 2066.193821442688
2272.5217214753357 2333.7363839981854
2273.117465094223 1853.7712118040865
2273.7130648659586 1961.674205492051
2274.308520823257 1952.8182177213355
2274.903832998827 2121.0897168087904
2275.4990014253563 1910.3555493723093
2276.094026135528 1852.7491437819403
2276.6889071620117 1794.971440094306
2277.2836445374614 2136.690091950686
2277.878238294519 2017.737961573271
2278.472688465812 1798.617998283135
2279.066995083962 1579.1064369155763
2279.6611581815705 1864.0732908978575
2280.255177791232 1804.9410882273219
2280.8490539455233 2067.323851528909
2281.442786677013 2330.264432677912
2282.0363760182554 2340.1959304453517
2282.6298220017943 1895.4911528203647
2283.223124660155 2298.2175289896086
2283.816284025859 1782.530200175522
2284.4093001314086 1745.5181459920204
2285.002173009292 1708.456807394617
2285.5949026919952 2059.7860093262757
2286.1874892119777 2068.439089659066
2286.7799326016993 2018.932472243359
2287.3722328936 1522.8395008592047
2287.964390120109 1522.7628101113862
2288.556404313642 2043.7801770727965
2289.1482755066027 1974.595254271678
2289.7400037313873 1905.2102269366114
2290.3315890203703 1707.8181082695144
2290.9230314059205 1824.495601712574
2291.5143309203904 1941.41900941926
2292.1054875961236 1920.963235961118
2292.6965014654506 2440.695048373457
2293.287372560684 1835.8882208040352
2293.878100914131 1866.3855531475576
2294.468686558086 1897.0081110781618
2295.059129524827 2032.7125178980332
2295.649429846617 1989.5566074881426
2296.239587555716 1946.2505796418798
2296.8296026843636 2157.2628513098916
2297.419475264791 1998.8166210909214
2298.0092053292137 1839.9512453385191
2298.598792909839 2355.0890508087896
2299.1882380388597 1998.2321527966008
2299.777540748455 2132.6369456377297
2300.3667010707904 2267.0862646277615
2300.9557190380256 2207.449656128913
2301.544594682302 1981.5177340646746
2302.1333280357503 2407.368157999581
2302.721919130485 2199.7870083923476
2303.3103679986198 2561.297323054622
2303.898674672242 2477.8213753139057
2304.486839183437 2214.15157788951
2305.0748615642697 1950.2792445488546
2305.6627418468015 1974.900866280184
2306.2504800630704 1830.098309112099
2306.8380762451143 2226.786963839209
2307.425530424949 2201.8241540700237
2308.012842634582 2176.786897349581
2308.6000129060103 2354.5184080563213
2309.187041271214 2141.131010681593
2309.773927762164 2425.8096656305925
2310.3606724108213 2090.7911067185405
2310.9472752491274 2138.9779036761124
2311.5337363090184 2187.3278796135955
2312.120055622414 2070.735842182956
2312.706233221221 1929.3105247403587
2313.2922691373424 1748.1870240489066
2313.8781634026564 1864.3498598988012
2314.463916049037 1980.7678989148487
2315.049527108342 2231.4616094158887
2315.6349966124235 2527.1612023701973
2316.2203245931123 2485.5942196335864
2316.8055110822315 1806.8842765806269
2317.3905561115935 1739.521864957903
2317.9754597129977 1815.8850548880596
2318.560221918229 1771.5627886963096
2319.1448427590603 1727.1785192625696
2319.729322267256 1664.5014319619609
2320.313660474563 1679.8564456938288
2320.8978574127195 1955.7351730796158
2321.481913113452 2232.4415061001837
2322.0658276084705 1800.0937745766728
2322.6496009294806 1886.1807558643682
2323.233233108165 2226.8389655728
2323.8167241762058 1931.7345937874265
2324.4000741652617 2290.064849282566
2324.983283106987 2366.9573681446977
2325.5663510330232 2568.2856666578527
2326.1492779749933 1993.5354858142941
2326.7320639645204 2192.6542597961047
2327.3147090332004 1796.3893583151832
2327.897213212629 1952.9976224549762
2328.4795765343843 2109.672871010899
2329.0617990300307 1857.4398671279173
2329.643880731124 1968.540072242744
2330.22582166921 2079.884898808038
2330.807621875816 2276.222588785246
2331.3892813824623 1798.4093272974892
2331.9708002206517 1508.226352631008
2332.5521784218818 1819.6528217695436
2333.133416017634 2131.7887863144497
2333.7145130393765 1899.1823199151763
2334.295469518571 2247.083004556243
2334.876285486658 2368.9256734018127
2335.456960975076 2289.5919062514154
2336.037496015242 2210.120464061897
2336.6178906385667 2072.3254079147673
2337.198144876451 2177.546402815019
2337.778258760278 2017.1471620099896
2338.3582323214214 2014.3618565002191
2338.938065591243 2011.5195011244043
2339.517758601087 2330.484005727128
2340.0973113822965 2059.025723180072
2340.676723966193 1971.4837887400274
2341.255996384094 2028.7563417932258
2341.835128667295 2340.213103164783
2342.4141208470883 2102.092550099422
2342.992972954751 2225.476700552887
2343.5716850215467 1926.0604062736547
2344.1502570787306 1310.1407326475457
2344.7286891575386 1809.8980027658422
2345.3069812892045 2001.8433192215957
2345.885133504944 2193.9602940764685
2346.4631458359618 1779.400328410761
2347.04101831345 1655.1297701353847
2347.6187509685915 1888.0396498506839
2348.196343832553 1948.4943944697122
2348.7737969364935 2143.434898361396
2349.351110311558 1833.8773657250144
2349.9282839888765 1849.0673418045922
2350.5053179995757 1629.9920526856763
2351.0822123747585 1580.4634232209678
2351.658967145526 1579.9930466524472
2352.2355823429643 1579.6142414779392
2352.812057998144 2032.0912431098623
2353.3883941421263 1979.6243608134737
2353.9645908059647 2145.1869494603698
2354.540648020693 1788.367823738054
2355.116565817336 1503.0742218906548
2355.6923442269126 1657.3344348303049
2356.2679832804224 1811.9237199577215
2356.8434830088518 1930.5561687256802
2357.41884344318 2044.050140299009
2357.994064614377 2308.266725799752
