#exp_cfg={"servo_angle": 0.0, "laser_lim": 100.0, "servo_angle_to": 18.0, "laser_wup": 0.0, "bt_dev": "EnSpectr-25AE3", "laser_wdn_max": 0.0, "frames": 10.0, "servo_used": 0, "servo_calib_use": 0, "laser_wdn_min": 0.0, "servo_pix_from": 90.0, "cooler_tout": 300.0, "servo_angle_from": 0.0, "servo_calib": "[-1.9174921013161362e-09, 3.9322238269163779e-05, -0.27385609119055809, 653.59552119713567]", "laser_autoctl": 0, "servo_pix_to": 3682.0, "laser_pw": 100.0, "cooler_on": 0, "laser_volt": 4.0, "cooler_autoctl": 0, "cooler_curr": 70.0, "cooler_startup": 10.0, "laser_fixed_pw": 0, "gain": 1.3, "offset": 2.53059635486, "servo_calib_degree": 3.0, "laser_curr": 55.0, "shutter": 8200.0, "servo_calib_step": 1.0, "laser_fixed_curr": 0, "exp": 2000.0, "ccd_volt": 4.7, "bt_addr": "00:06:66:62:5A:E3", "servo_delay": 500.0, "laser_autooff": 1}
#proc_cfg={"flat_auto_wnd": 200.0, "flat_auto_fr": 200.0, "flat_auto_shift": 5.0, "yconv": 1, "flatten": 1, "flatten_strength": 100.0, "xfrom": 300.0, "auto_max_frame": 2000.0, "auto_signal": 48000.0, "flat_auto_tol": 0.1, "autoclip": 1, "xrel_range": 0.0, "flat_auto_to": 4000.0, "intensity_adj": 1.0, "xrel": 7852.0, "rmhot": 1, "flat_auto_slit": 4.999999999999997, "auto_ini_exp": 300.0, "auto_off": 0, "xto": 2860.0, "flat_auto_ref": "", "flat_auto_rank": 1, "autobackg": 0, "xrel_adj": 0.0, "auto_black_lvl": 1, "base_wnd": 100.0, "sub_baseline": 0, "xconv": 2, "auto_max_exp": 1000.0, "auto_total_exp": 10000.0, "auto_exp": 0, "rmripple": 0, "black_lvl": 8278.125, "shutter_clip_adj": 0.0, "auto_bckg": 0, "flat_auto_thr": 0.9, "subbackg": 1}
316.8218498245369 21377.14155451103
317.89969571804795 21095.01782989896
318.977263876126 21232.35889823354
320.05455438786703 21007.15619975276
321.1315673423287 20921.13185128077
322.2083028285215 21055.468035588954
323.2847609354267 20852.505480518135
324.3609417519747 20819.04481686095
325.43684536705587 20784.39871087131
326.5124718695279 20665.697934857966
327.58782134820103 20698.204628225474
328.66289389184385 20693.622795653362
329.7376895891921 20463.17719875918
330.8122085289342 20417.444063710627
331.88645079971866 20589.634412967604
332.9604164901575 20393.389840112613
334.03410568881554 20375.525717275217
335.1075184842266 20535.509865691485
336.18065496487543 20303.617777159758
337.2535152192122 20393.890262565346
338.32609933564163 20350.87166339554
339.39840740253203 20204.306572556063
340.4704395082099 20229.584856361642
341.5421957409617 20091.685641062213
342.6136761890357 20205.12356504407
343.6848809406365 20077.679870127537
344.75581008392874 20046.673801406658
345.82646370703696 19946.106719813164
346.8968418980512 19897.186202510777
347.96694474501055 19912.729376245676
349.0367723359268 19825.550669407112
350.106324758759 19894.374272158428
351.1756021014353 19718.117447434983
352.2446044518383 19714.76251795049
353.31333189781435 19857.62410522285
354.38178452716966 19697.45263523356
355.449962427665 19674.37075418668
356.51786568702846 19604.82319433695
357.58549439294256 19742.492177203854
358.6528486330535 19674.63941319555
359.71992849496564 19608.918600410485
360.7867340662433 19590.77175274632
361.8532654344144 19702.806960184815
362.9195226869597 19743.54491319824
363.9855059113288 19460.73064331321
365.05121519492604 19458.67614456975
366.11665062511565 19524.610926684687
367.1818122892273 19442.447438147185
368.2467002745434 19501.795409150298
369.31131466831175 19345.221499074574
370.375655557742 19451.816466130203
371.4397230299983 19421.571840067143
372.5035171722102 19364.9563847085
373.5670380714637 19302.527387585294
374.6302858148101 19460.386508951247
375.6932604892554 19393.063007373294
376.7559621817709 19394.77513112063
377.81839097928605 19234.510335107985
378.8805469686886 19276.412698836662
379.94243023683157 19199.14153316929
381.0040408705263 19209.502514363885
382.0653789565458 19073.487385814577
383.1264445816196 19115.034699839354
384.1872378324406 19160.345897915384
385.2477587956637 19152.00398137427
386.3080075579037 18984.548497022344
387.3679842057336 18896.749383363152
388.4276888256918 19055.940808651416
389.48712150426945 18923.85202176323
390.54628232792857 18873.382793720684
391.6051713830857 18862.4760981139
392.66378875611736 18890.415758311978
393.7221345333637 18819.855742891534
394.7802088011249 18704.653772453323
395.838011645661 18824.000568324867
396.89554315319765 18694.497128997657
397.9528034099112 18556.22050185339
399.00979250194723 18437.609668658588
400.06651051541485 18526.593019423177
401.1229575363741 18581.279738566158
402.17913365085224 18389.450697819204
403.23503894483656 18512.526944486046
404.2906735042761 18399.64598185733
405.3460374150818 18312.79774077732
406.401130763119 18337.595904456906
407.455953634224 18306.726903534727
408.5105061141876 18320.853986900525
409.56478828876243 17993.903775693783
410.6188002436629 18099.277080059383
411.6725420645689 18152.00232735222
412.72601383711117 18275.13056253455
413.77921564689314 18190.775380619336
414.8321475794728 18060.471528727037
415.88480972036814 17900.01650915634
416.93720215506437 17991.82178970316
417.9893249690049 17932.78892156027
419.04117824759123 17848.289516289653
420.09276207619223 17885.543921675522
421.144076540133 17863.271585951
422.1951217247042 17801.668269977767
423.24589771515275 17867.88878778981
424.2964045966928 17790.317179066296
425.34664245449494 17856.90941013463
426.3966113736933 17665.98368273201
427.4463114393875 17735.530567934074
428.49574273662984 17635.58471390204
429.5449053504417 17647.823116278487
430.5937993658026 17676.073725974486
431.6424248676558 17539.78282111238
432.6907819409007 17497.090455856738
433.73887067040596 17560.57981545565
434.7866911409965 17514.146293415153
435.8342434374608 17500.205665842426
436.88152764455117 17368.659899577044
437.9285438469724 17373.897844126677
438.9752921294057 17328.810155153515
440.02177257648145 17323.91505670261
441.06798527279716 17175.33494231979
442.1139303029122 17428.11146037841
443.1596077513459 17319.545261030682
444.2050177025794 17202.40669269166
445.25016024105753 17331.524617637577
446.2950354511886 17192.209623964234
447.33964341733736 17194.27783073096
448.383984223834 17217.90312570014
449.4280579549686 17078.472025335792
450.471864694995 17164.911011158318
451.5154045281306 17057.603290226954
452.5586775385509 17123.355459147268
453.60168381039693 17015.744742362338
454.64442342776783 17127.258058750325
455.6868964747264 17058.387307941968
456.7291030353008 16935.644940043214
457.77104319347563 17023.077784950565
458.8127170332027 16870.68094172379
459.854124638392 16899.42626847874
460.895266092919 17001.988097021273
461.93614148061897 17062.319273587007
462.97675088529104 17082.988163052254
464.01709439069236 16915.603538937085
465.0571720805492 16884.52930596169
466.0969840385442 16850.99337984885
467.1365303483253 17032.82575575846
468.17581109350067 16849.915770979882
469.2148263576437 16755.262478975306
470.2535762242878 16816.43477798986
471.29206077693016 16963.89204913488
472.33028009902773 16946.87242139727
473.3682342740012 16887.775596039974
474.40592338523857 16756.963823077087
475.4433475160804 16861.2419104911
476.4805067498364 16887.57614731329
477.51740116978 16770.283810162327
478.5540308591426 16918.921190889105
479.59039590112116 17033.587185821187
480.6264963788726 16792.648846317545
481.6623323755193 16943.69154466359
482.6979039741436 16964.761357691266
483.7332112577915 17088.237198190905
484.76825430947247 17224.02832476068
485.80303321215797 17177.993620494817
486.837548048783 17219.77056311952
487.8717989022425 17356.153931992456
488.90578585539697 17251.109864969167
489.9395089910686 17508.879308866166
490.97296839203955 17294.16890518087
492.00616414106116 17102.782308845708
493.0390963208429 17211.19135774183
494.0717650140559 17200.25581955883
495.10417030333883 17059.646588083015
496.1363122712901 17105.034395753122
497.16819100046814 16922.92691962909
498.1998065734024 16881.058883819573
499.2311590725767 16792.15676500642
500.26224858044407 16614.950091392566
501.2930751794156 16613.287041998337
502.3236389518679 16690.349377424405
503.35393998014115 16497.400286162287
504.38397834653733 16499.070499551657
505.4137541333221 16524.60026897434
506.4432674227228 16328.748793134097
507.4725182969323 16348.051249322763
508.5015068381035 16381.133215449314
509.53023312835467 16304.809712131662
510.55869724976765 16306.524353128832
511.58689928438434 16191.05358817463
512.6148393142121 16168.855225271263
513.6425174212218 16278.320137472052
514.6699336873462 16280.057091574254
515.6970881944835 16253.60753075101
516.7239810244901 16140.84920715532
517.7506122591931 16116.18833868352
518.7769819803761 16109.795963503184
519.8030902697901 16224.319272980889
520.8289372091476 16090.801748659456
521.8545228801249 16252.856995512027
522.8798473643619 16107.414929963303
523.9049107434621 16131.190860732424
524.9297130989908 16105.544530329262
525.9542545124805 16048.956433948528
526.9785350654201 16015.933027900552
528.0025548392696 16022.086590275145
529.0263139154504 15939.506456283803
530.0498123753423 16015.955706107106
531.073050300296 15865.649491386424
532.0960277716204 15811.810906506618
533.1187448705896 15902.254918276294
534.1412016784416 15799.349498467433
535.1633982763833 15758.59217548252
536.1853347455726 15765.875779941518
537.2070111671401 15747.796602708517
538.2284276221817 15695.023499950563
539.2495841917516 15683.814977527363
540.2704809568677 15587.012755617372
541.2911179985167 15713.07606344789
542.3114953976419 15540.193078511185
543.3316132351592 15444.289829920333
544.3514715919409 15396.316477748333
545.3710705488247 15414.009791193079
546.3904101866156 15373.51164508191
547.4094905860784 15386.860929476523
548.4283118279418 15293.932009945725
549.4468739929034 15480.80017492921
550.4651771616191 15322.765820285305
551.4832214147063 15217.041390540504
552.501006832761 15278.03850926895
553.5185334963226 15221.762411446209
554.5358014859103 15278.350055195828
555.5528108820035 15182.209937267844
556.5695617650363 15089.317220529974
557.5860542154242 15223.61708268167
558.6022883135283 15158.505356215883
559.6182641396881 15030.769020117737
560.6339817741991 15158.171681714352
561.6494412973225 15131.587065719385
562.6646427892883 15200.44193266271
563.6795863302796 15104.773346707027
564.694272000459 14979.478156776793
565.7086998799423 15186.093505352237
566.7228700488104 15102.808658626716
567.7367825871115 15020.469553073888
568.7504375748576 15024.55109622067
569.7638350920224 14992.847579466898
570.7769752185486 14969.865839285625
571.7898580343353 14974.87456471892
572.802483619258 14882.884451314667
573.8148520531431 15126.80394338796
574.8269634157932 14988.752732378643
575.8388177869692 14939.190747755943
576.8504152463938 14937.172133346205
577.8617558737587 15030.414570314955
578.8728397487175 14841.76442245505
579.883666950891 14897.209538757688
580.8942375598654 14997.623765096516
581.9045516551851 15010.454466959665
582.9146093163617 15245.42699656437
583.924410622878 15079.12863907284
584.9339556541727 15011.197558711083
585.9432444896538 15171.195696832001
586.9522772086875 15013.965861924898
587.9610538906127 15062.039928753202
588.9695746147318 14938.41165973592
589.9778394603054 15076.769067352132
590.985848506567 14995.820293294553
591.9936018327098 15002.829214884196
593.0010995178891 14808.92070756738
594.0083416412344 14883.238355828671
595.0153282818283 14626.898355625079
596.0220595187293 14650.349140108461
597.0285354309508 14468.324048672239
598.0347560974806 14626.98782034785
599.0407215972609 14628.30393007241
600.0464320092051 14587.582082539497
601.0518874121954 14546.835721415966
602.0570878850685 14431.22906152354
603.062033506636 14506.139429247927
604.0667243556636 14484.451149140936
605.0711605108936 14327.922350847724
606.0753420510264 14668.316098357629
607.0792690547278 14455.677635342649
608.082941600629 14431.830118156056
609.0863597673306 14450.682911130905
610.0895236333909 14535.727897948513
611.0924332773357 14628.899333175534
612.0950887776617 14452.05754479846
613.0974902128219 14469.190594695998
614.0996376612384 14648.636578924616
615.1015312013005 14755.1274590341
616.1031709113595 14654.092972361603
617.1045568697336 14617.050826053503
618.1056891547069 14704.969044847041
619.1065678445229 14673.60034751976
620.1071930173985 15013.027879808029
621.1075647515099 14850.077633183435
622.1076831250048 14904.69075923489
623.1075482159849 14936.456906094458
624.1071601025305 14940.612640995945
625.1065188626781 15009.191361910338
626.105624574433 15239.57413544341
627.1044773157682 15215.949874511021
628.1030771646128 15123.90901704136
629.1014241988742 15225.107436970884
630.0995184964158 15327.583671625343
631.0973601350688 15308.860653158856
632.0949491926294 15537.825957777295
633.0922857468631 15280.94708945092
634.089369875499 15323.245762596533
635.0862016562278 15298.387470415775
636.0827811667077 15044.57972671499
637.0791084845641 15300.760118183205
638.0751836873878 14990.771874462129
639.0710068527369 15162.429037585753
640.0665780581294 14949.808960335034
641.0618973810506 14809.156957032688
642.0569648989604 14845.579520660303
643.0517806892676 14615.36492961634
644.0463448293649 14727.832325661986
645.040657396592 14553.698858380467
646.0347184682723 14476.573980665207
647.0285281216875 14367.146366645164
648.0220864340772 14295.516276787772
649.0153934826558 14218.062037867488
650.0084493446047 14156.690663450656
651.0012540970674 14209.02673773779
651.9938078171526 14058.159289096646
652.9861105819346 14029.416923420034
653.9781624684565 14087.862453945014
654.9699635537254 13893.216259692268
655.9615139147136 13998.536142149893
656.9528136283589 13802.677027616286
657.9438627715699 13920.292565768488
658.9346614212154 13802.626191441857
659.925209654135 13670.939642343865
660.9155075471263 13584.882845875949
661.9055551769616 13622.28686453228
662.895352620375 13788.753348863032
663.8848999540678 13538.43196451107
664.8741972547068 13390.48850460819
665.863244598926 13537.27015192532
666.8520420633213 13544.588427093138
667.8405897244611 13407.065747806042
668.8288876588758 13269.941417954196
669.8169359430613 13359.930296328943
670.8047346534822 13367.56405223934
671.7922838665672 13398.372673168797
672.7795836587156 13371.835494977719
673.766634106285 13543.09279019183
674.7534352856092 13281.628570568573
675.7399872729766 13224.50041851589
676.7262901446538 13180.009574163423
677.712343976862 13322.733904657993
678.6981488457986 13404.215355475511
679.6837048276229 13170.141977441814
680.6690119984596 13195.524689400694
681.6540704344043 13230.675854631078
682.6388802115107 13155.29067170122
683.6234414058108 13153.772949025384
684.6077540932874 13095.52514722451
685.591818349907 13208.666927041131
686.575634251587 13114.702353122866
687.5592018742263 13067.985031157736
688.5425212936734 12872.4120493881
689.5255925857564 13252.9688149294
690.5084158262707 13057.555187655604
691.4909910909646 12984.47814952719
692.4733184555644 12970.761444122129
693.4553979957618 13034.382450011599
694.4372297872123 13045.876178820225
695.4188139055404 12917.44928787727
696.4001504263324 12885.14554902712
697.3812394251509 13049.286884039922
698.3620809775111 13007.995533431824
699.3426751589104 12891.19258574957
700.3230220448004 12855.405365851764
701.3031217106054 12941.920372509716
702.2829742317172 13068.038158888834
703.2625796834873 12769.841077200103
704.2419381412474 12682.157049936373
705.22104968028 12886.789215318397
706.1999143758458 12692.159826293358
707.178532303169 12743.783544814416
708.1569035374378 12830.074246607997
709.1350281538107 12838.730404573487
710.1129062274158 12850.683456792258
711.0905378333373 12907.784467463998
712.0679230466376 12888.939200650833
713.0450619423427 13112.523880235309
714.0219545954424 13175.704999448135
714.9986010808989 12982.924805331273
715.9750014736292 13130.424708282113
716.9511558485392 13274.208150845803
717.9270642804786 13344.494841407275
718.9027268442787 13319.843783563425
719.8781436147328 13393.082412762302
720.8533146666014 13220.590917307229
721.828240074612 13253.949463981417
722.8029199134635 13249.372097527874
723.7773542578125 13108.48739203849
724.751543182294 13110.117713324504
725.7254867615029 13099.204677824198
726.6991850700015 12805.28117856936
727.6726381823228 12896.376076392586
728.6458461729599 12862.11900377634
729.6188091163858 12744.662192027105
730.5915270870246 12789.83822934668
731.5640001592856 12659.45201972742
732.536228407529 12762.58658527157
733.5082119060917 12718.223852954388
734.4799507292755 12655.366004014752
735.4514449513481 12627.027170127401
736.4226946465496 12741.85364439232
737.3936998890786 12735.71192536212
738.3644607531078 12596.319914201398
739.3349773127793 12602.229909440195
740.3052496421951 12659.047183030392
741.27527781543 12458.557760578557
742.2450619065221 12417.105687342424
743.2146019894826 12502.23140470532
744.183898138288 12514.73904170861
745.1529504268801 12413.558146218878
746.1217589291682 12264.35944487843
747.0903237190341 12263.359552337108
748.058644870318 12296.893912476657
749.0267224568397 12210.013249546993
749.994556552374 12074.896008081785
750.9621472306771 12111.862470979553
751.9294945654583 12149.750355424483
752.8965986304011 12167.610702005195
753.8634594991636 12056.082430213015
754.8300772453586 12115.651105569863
755.7964519425768 12049.316218962787
756.762583664371 12201.964172644595
757.7284724842611 12070.083290101915
758.6941184757416 11976.428570295055
759.6595217122667 12082.831803465388
760.6246822672638 12048.690666846653
761.5896002141235 11883.085169379494
762.5542756262093 11975.793642125866
763.5187085768503 11982.019020311358
764.4828991393406 11920.15749256961
765.4468473869474 11922.095547984627
766.4105533929032 12028.808798723634
767.3740172304078 11844.291960244253
768.3372389726283 11972.330786303157
769.3002186926988 11816.834021280662
770.2629564637282 11812.01789580058
771.2254523587872 11767.608465574685
772.1877064509154 11668.347672029635
773.1497188131179 11621.14926069157
774.1114895183728 11691.596711569811
775.0730186396268 11728.44020463837
776.0343062497905 11669.87733581892
776.9953524217381 11610.760632342472
777.9561572283274 11669.390945542567
778.9167207423689 11629.080685749603
779.8770430366476 11480.039749330688
780.8371241839159 11497.21625606261
781.7969642568951 11518.905149804346
782.7565633282757 11750.493883324496
783.7159214707099 11505.955130134327
784.6750387568281 11601.987785559479
785.6339152592227 11511.442516286837
786.5925510504512 11464.62279483159
787.5509462030477 11569.306801262603
788.5091007895098 11426.154226718347
789.4670148823006 11429.914471231114
790.4246885538596 11470.86080846694
791.3821218765861 11503.80179493655
792.3393149228505 11348.362107017067
793.2962677649975 11442.226151838373
794.2529804753303 11426.114004389969
795.20945312613 11402.286703484117
796.1656857896378 11280.243996573894
797.1216785380675 11292.030323387993
798.0774314435985 11419.478127375896
799.0329445783846 11488.616854047856
799.9882180145414 11348.8019501062
800.9432518241574 11339.475401109468
801.89804607929 11482.063427194571
802.852600851962 11413.816843500877
803.8069162141637 11481.221916754028
804.760992237856 11478.660602979233
805.714828994971 11461.144239885782
806.6684265574077 11480.575485188676
807.6217849970271 11482.823923807779
808.574904385674 11344.258281900014
809.527784795142 11498.350920228702
810.4804262972102 11572.105558028608
811.4328289636178 11409.824618616998
812.3849928660748 11268.447900286965
813.3369180762638 11340.435414944788
814.2886046658241 11325.847279537593
815.2400527063783 11123.49589649808
816.1912622695108 11195.535444335981
817.1422334267718 11185.961956941024
818.0929662496856 11082.354211327654
819.0434608097457 10967.496558606563
819.9937171784059 10997.905915799976
820.9437354271013 10944.510836033278
821.8935156272255 11142.884562621331
822.8430578501484 10955.495518267477
823.7923621672016 10784.602478864887
824.7414286496896 10919.61417212112
825.6902573688876 10921.100234281634
826.6388483960363 10883.606287546372
827.5872018023492 10784.33153437069
828.5353176590033 10926.133945577405
829.4831960371503 10750.083470461996
830.4308370079016 10818.471697693487
831.3782406423525 10789.401741114674
832.3254070115545 10814.102492792415
833.2723361865319 10622.35059882976
834.2190282382799 10621.723737143831
835.1654832377644 10661.780080329687
836.1117012559116 10603.211698841393
837.0576823636256 10790.02717337201
838.003426631778 10537.985237697198
838.9489341312074 10572.371978200645
839.8942049327197 10663.21850794288
840.8392391070975 10636.455583982784
841.7840367250865 10552.265641407841
842.7285978573982 10457.574953607347
843.672922574724 10652.006571464826
844.6170109477152 10602.164010737195
845.560863046996 10513.91291537505
846.5044789431595 10489.326080706276
847.4478587067697 10538.845974700302
848.3910024083561 10624.82641422335
849.333910118421 10503.287407678294
850.2765819074339 10403.18939270541
851.2190178458332 10585.284984159292
852.161218004032 10579.844746177383
853.1031824524016 10453.32489633404
854.0449112612987 10471.975796840507
854.9864045010327 10550.40998220709
855.9276622418947 10467.438805400277
856.8686845541379 10427.38281320396
857.8094715079915 10414.137117861177
858.7500231736467 10626.46525343043
859.690339621271 10414.449097971314
860.6304209209939 10474.542205163223
861.5702671429244 10251.752310773096
862.5098783571284 10474.55984932109
863.4492546336569 10399.462482463798
864.3883960425155 10375.209652131774
865.3273026536863 10360.811496572975
866.2659745371238 10311.082198859169
867.2044117627465 10414.959632340127
868.1426144004472 10256.53340529105
869.0805825200823 10379.386907725122
870.0183161914847 10358.725536680784
870.9558154844526 10459.668268964397
871.8930804687552 10336.451449132246
872.8301112141307 10300.123050153243
873.7669077902865 10419.226884645195
874.7034702669062 10603.6532373873
875.6397987136315 10353.423734710273
876.5758932000863 10462.547198699109
877.5117537958522 10514.741391041814
878.4473805704911 10332.051445799583
879.3827735935283 10377.316267778455
880.3179329344603 10490.003050642063
881.2528586627541 10547.667546271023
882.1875508478479 10594.892331304098
883.1220095591489 10369.561828789629
884.0562348660296 10252.302602207754
884.9902268378391 10551.65615047644
885.9239855438955 10392.985316975797
886.8575110534839 10279.932264411762
887.7908034358588 10384.30261317204
888.7238627602474 10275.707004996915
889.6566890958475 10337.810470673961
890.5892825118208 10184.144408549691
891.5216430773125 10229.29152498506
892.4537708614189 10307.959739578317
893.3856659332196 10163.463835800045
894.3173283617652 10159.691784003991
895.2487582160684 10198.920064133914
896.179955565116 10128.048707040329
897.110920477864 10059.442277824777
898.0416530232451 9995.412110246372
898.9721532701478 9892.381349112353
899.9024212874428 10137.772224245276
900.8324571439662 9938.637186486714
901.7622609085302 9907.829096193782
902.6918326499072 9885.44766546303
903.6211724368477 9974.782437879354
904.5502803380696 10053.538275287647
905.4791564222614 10120.650533514092
906.4078007580792 9843.75068566685
907.3362134141571 9869.674193065603
908.2643944590909 9976.494577624992
909.1923439614493 9827.312819364477
910.1200619897754 9828.43815523151
911.0475486125779 10031.653202272046
911.9748038983344 9813.381582318212
912.9018279155007 9737.755065699139
913.8286207324982 9716.580431830726
914.7551824177117 9915.173027811714
915.6815130395116 9737.976550198726
916.6076126662283 9650.944867609101
917.533481366163 9731.491592566772
918.4591192075914 9705.688756894891
919.3845262587565 9720.376276340645
920.3097025878706 9618.510741052463
921.2346482631237 9590.44031134697
922.1593633526682 9697.759487696392
923.0838479246304 9689.513310619688
924.0081020471061 9805.748545399529
924.9321257881656 9606.317482490007
925.8559192158464 9718.401917406696
926.7794823981512 9587.41366835988
927.7028154030686 9509.313084669728
928.6259182985414 9466.30757485674
929.5487911524906 9737.082555636802
930.4714340328119 9620.110447016421
931.3938470073608 9418.015657921374
932.3160301439748 9481.541631683996
933.2379835104548 9573.486239140697
934.1597071745709 9661.805460634454
935.0812012040769 9602.705627348925
936.002465666681 9590.556124884224
936.9235006300696 9604.021023346922
937.8443061619055 9580.838754711624
938.7648823298077 9427.85913523926
939.6852292013809 9425.811988715963
940.6053468441951 9586.075366291712
941.5252353257874 9341.255001379834
942.4448947136698 9512.125396350488
943.364325075323 9414.325313266958
944.2835264782043 9461.19833528199
945.2024989897309 9417.899867349395
946.1212426773054 9392.882606355579
947.0397576082851 9435.222203847288
947.9580438500125 9551.263912630347
948.8761014697939 9543.58403717786
949.7939305349064 9532.02269407218
950.7115311125999 9362.24867434636
951.6289032700952 9323.844062012702
952.5460470745875 9456.680244874191
953.4629625932339 9425.184775594065
954.3796498931715 9393.999156084172
955.2961090415029 9452.446849554648
956.2123401053068 9388.49664788792
957.1283431516276 9433.715921700727
958.0441182474842 9365.829310342877
958.9596654598663 9496.45836461911
959.8749848557309 9337.924094357313
960.7900765020167 9295.076460508368
961.7049404656209 9280.428276764094
962.6195768134185 9316.351949276379
963.5339856122537 9317.0294226585
964.4481669289453 9351.050140511226
965.3621208302793 9293.463307250257
966.2758473830145 9228.737218012937
967.1893466538822 9427.472025029663
968.1026187095813 9261.470220016885
969.0156636167867 9171.560055432768
969.9284814421426 9356.68913614206
970.8410722522622 9222.081773946407
971.753436113735 9184.372586161815
972.6655730931161 9123.621716545586
973.5774832569368 9246.400873962146
974.4891666716958 9120.046324774954
975.4006234038698 9150.554630233997
976.3118535198955 9132.577473798767
977.2228570861935 9266.922559705676
978.1336341691494 9227.066848366094
979.0441848351202 9114.645826037011
979.9545091504333 9143.095223312395
980.864607181391 9267.146727136544
981.7744789942699 9198.542232366704
982.6841246553086 9165.05696869564
983.5935442307236 9203.689651283881
984.5027377867027 9272.700620674263
985.4117053894024 9233.315910407979
986.3204471049557 9111.399397884397
987.2289629994648 9224.781479575673
988.1372531390007 9312.359989136134
989.0453175896091 9216.435855963226
989.9531564173067 9108.216404801762
990.860769688079 9078.688931622744
991.7681574678918 9186.195541067145
992.6753198226706 9172.434282997838
993.582256818323 9128.271574453745
994.4889685207218 9109.011000689648
995.3954549957143 9327.09003300491
996.301716309119 9285.544802407738
997.2077525267232 9119.439415790377
998.1135637142943 9113.502492514841
999.0191499375615 9280.003173301822
999.924511262232 9231.585123555018
1000.8296477539861 9180.632041216022
1001.7345594784656 9124.35380959518
1002.6392465012996 9104.042057979752
1003.5437088880753 9232.185100475583
1004.4479467043584 9204.253831551969
1005.3519600156869 8938.422821231768
1006.2557488875718 9160.273773132763
1007.1593133854858 9154.015760755754
1008.0626535748888 8930.402442636016
1008.9657695212009 8830.881677317206
1009.8686612898182 9141.372005474646
1010.7713289461135 9087.314445063561
1011.6737725554212 9001.76670541992
1012.5759921830577 8958.638615126474
1013.4779878943027 8974.450938572723
1014.379759754418 9010.05356317032
1015.2813078286254 8869.985892274253
1016.18263218213 8766.828838575691
1017.0837328801026 8921.72774866119
1017.9846099876886 8951.847259865315
1018.8852635700023 8819.616528337952
1019.7856936921362 8713.125438912652
1020.6859004191447 8974.984704132874
1021.5858838160675 8692.656881227125
1022.4856439479063 8731.86620558729
1023.3851808796389 8670.514123463456
1024.2844946762143 8821.504863701515
1025.183585402554 8761.856908443962
1026.082453123554 8609.798944297709
1026.9810979040776 8753.167226405105
1027.8795198089647 8586.960145653498
1028.777718903024 8721.84125385955
1029.6756952510368 8629.198577557643
1030.5734489177648 8604.935054682373
1031.4709799679313 8578.295294818503
1032.3682884662358 8710.576311080516
1033.2653744773506 8475.573055315497
1034.1622380659192 8470.019380378695
1035.058879296559 8632.117123630193
1035.9552982338591 8637.25181283541
1036.8514949423825 8516.862078140035
1037.7474694866614 8483.819683464524
1038.6432219312028 8451.482532326318
1039.5387523404825 8663.16017828506
1040.4340607789582 8536.090393232082
1041.3291473110476 8474.022530595423
1042.2240120011465 8638.048521791985
1043.1186549136273 8576.772234398084
1044.0130761128294 8493.1031781926
1044.9072756630649 8472.779593883246
1045.8012536286205 8601.17116852927
1046.6950100737577 8577.210442420894
1047.588545062701 8692.183944765095
1048.481858659663 8533.532264717602
1049.3749509288118 8726.416644956986
1050.2678219343034 8595.085422342128
1051.1604717402515 8518.568249011956
1052.0529004107575 8413.395255958389
1052.9451080098825 8645.544893283313
1053.8370946016694 8544.175643208366
1054.7288602501267 8648.099511604156
1055.6204050192446 8557.305665557431
1056.511728972977 8607.366350693828
1057.402832175254 8588.539337316712
1058.2937146899785 8434.337666275544
1059.1843765810263 8523.294031088039
1060.0748179122456 8631.67711602114
1060.9650387474576 8550.29043196158
1061.855039150456 8540.92142885273
1062.7448191850071 8430.910178439759
1063.6343789148505 8555.066999350569
1064.5237184037014 8581.232372498282
1065.412837715241 8507.978991320608
1066.3017369131267 8423.709654528928
1067.190416060992 8312.510031922751
1068.0788752224398 8368.539779985253
1068.9671144610438 8386.243671626378
1069.8551338403558 8437.54485884291
1070.7429334239023 8509.896551962429
1071.6305132751695 8349.474006942222
1072.517873457633 8490.470170154846
1073.4050140347335 8341.718488644803
1074.2919350698776 8440.237839851825
1075.1786366264623 8392.376788720187
1076.0651187678395 8354.08273335784
1076.95138155735 8233.146526986027
1077.8374250582929 8288.118868433132
1078.7232493339507 8375.276298897377
1079.608854447577 8263.385334481065
1080.4942404623907 8171.909587607888
1081.3794074415982 8324.78947256357
1082.2643554483657 8336.511692387818
1083.149084545841 8251.662687629972
1084.033594797138 8105.887585653257
1084.9178862653516 8209.52095915962
1085.8019590135427 8406.841342983647
1086.6858131047484 8158.589950614785
1087.5694486019802 8237.973376739528
1088.4528655682225 8180.0073906776115
1089.3360640664287 8313.761425937728
1090.2190441595321 8175.30663476418
1091.1018059104317 8206.36158271495
1091.98434938201 8303.477939896673
1092.866674637111 8285.399830852532
1093.748781738559 8214.206116284708
1094.6306707491512 8012.684476653727
1095.5123417316554 8286.174965555503
1096.3937947488157 8116.008845357674
1097.2750298633455 8072.181602929663
1098.156047137938 8020.5651161082815
1099.0368466352556 8083.84478006168
1099.9174284179317 8191.743168824787
1100.7977925485757 7870.481330583006
1101.6779390897755 7970.169271351272
1102.5578681040806 7960.749945211857
1103.4375796540226 8044.416309518949
1104.3170738021054 7941.577398107734
1105.1963506108077 7786.894133613566
1106.0754101425773 7918.640820201144
1106.9542524598382 7952.603546813274
1107.8328776249855 7807.1862806995605
1108.7112857003904 7817.7676012057245
1109.5894767483987 7829.992922999843
1110.4674508313292 7928.669629767636
1111.3452080114657 7713.554693140157
1112.2227483510815 7852.094751754019
1113.1000719124077 7923.874763423599
1113.9771787576592 7913.318938921824
1114.854068949022 7767.985069080076
1115.7307425486542 7816.6802052173125
1116.6071996186893 7893.562274344321
1117.483440221229 8145.129419741832
1118.3594644183577 7882.256463569613
1119.235272272128 7842.010649873475
1120.1108638445658 7877.427207159191
1120.9862391976712 8109.534197214869
1121.8613983934229 7976.786496860662
1122.7363414937627 7947.093600357957
1123.6110685606182 8037.157811389707
1124.485579655884 8163.690325405389
1125.359874841426 8040.684351481119
1126.2339541790916 7994.22307536176
1127.1078177306936 8240.947724086966
1127.9814655580267 8102.721871378099
1128.854897722851 8107.6482496130875
1129.7281142869106 8026.8176177583855
1130.6011153119125 8137.969864953351
1131.473900859548 8277.148184723872
1132.3464709914697 8058.882123697047
1133.2188257693178 8078.181680568172
1134.0909652546961 7998.026293152134
1134.96288950919 7954.346800161149
1135.8345985943506 8114.32545937565
1136.7060925717087 7869.459897320521
1137.57737150277 7892.999847706384
1138.4484354490069 8124.5569072112485
1139.3192844718778 7821.424553061015
1140.1899186327992 7694.970546112311
1141.060337993178 7891.567813141175
1141.930542614382 7801.633742092117
1142.8005325577597 7668.244838028302
1143.670307884635 7594.331464744758
1144.5398686563003 7724.97455987373
1145.409214934025 7718.496767430559
1146.2783467790541 7484.709049537033
1147.1472642526023 7609.598527891534
1148.0159674158622 7806.106135051066
1148.8844563300026 7528.686181256127
1149.7527310561618 7497.599731078105
1150.6207916554504 7319.993743897421
1151.4886381889592 7346.559866972128
1152.3562707177498 7486.666815677539
1153.2236893028585 7384.793534812787
1154.090894005296 7284.509961102696
1154.9578848860474 7314.161168579065
1155.8246620060709 7385.698596447384
1156.6912254262988 7102.765366897538
1157.5575752076438 7223.086673288914
1158.42371141098 7403.653733783967
1159.2896340971656 7338.98131431361
1160.1553433270346 7277.968688954172
1161.0208391613887 7284.163685830415
1161.8861216610057 7305.753535589829
1162.75119088664 7275.749197773972
1163.6160468990201 7213.245109325748
1164.4806897588442 7146.734502807992
1165.3451195267917 7288.872096815268
1166.2093362635114 7236.043899715628
1167.0733400296285 7237.178494098005
1167.9371308857444 7163.04424954874
1168.8007088924278 7096.6789308124335
1169.6640741102328 7134.371188649231
1170.5272265996773 7050.786158957251
1171.390166421259 7059.395422999616
1172.252893635452 7135.560390448794
1173.1154083026995 7248.594090638233
1173.977710483421 7141.382095830013
1174.8398002380145 6967.844615266693
1175.7016776268483 7057.936485299932
1176.563342710264 7167.663582562561
1177.4247955485826 7012.087106424586
1178.2860362020947 7145.690638098795
1179.147064731069 6977.0289057398895
1180.0078811957483 7136.488910270235
1180.8684856563486 7012.9899883983035
1181.7288781730604 6987.011826533169
1182.589058806052 7147.010526925874
1183.4490276154593 7237.850489072977
1184.3087846614017 7075.9957006335435
1185.1683300039676 7106.276412860398
1186.027663703222 7405.739567480513
1186.8867858192025 7115.26639088159
1187.7456964119228 7158.512803024454
1188.6043955413716 7182.170490635677
1189.4628832675116 7263.767462566674
1190.3211596502842 7306.349998857766
1191.179224749596 7301.973223396011
1192.0370786253388 7084.002756416575
1192.8947213373758 7298.691422580178
1193.7521529455407 7404.086264686705
1194.6093735096438 7100.5979387409725
1195.466383089477 7185.854020506736
1196.3231817447977 7267.585536471456
1197.1797695353398 7345.732700126599
1198.0361465208189 7087.497883188994
1198.8923127609214 7124.64820137965
1199.7482683153048 7235.161126606047
1200.6040132436028 7280.045962058248
1201.459547605431 7168.25232081717
1202.3148714603722 7168.986481426458
1203.1699848679855 7148.54338728848
1204.0248878878065 7122.049355983241
1204.8795805793507 6918.268967363829
1205.7340630020935 7031.56052069666
1206.5883352155033 7122.126845829569
1207.4423972790064 7215.930963068607
1208.2962492520237 6924.567347213529
1209.1498911939307 6957.153267965897
1210.0033231640937 7034.0058801873765
1210.8565452218427 7023.0295751741
1211.7095574264913 6703.198230408298
1212.5623598373222 6849.548673859307
1213.4149525135963 6843.502537310318
1214.2673355145507 6810.881673877552
1215.1195088993936 6721.085508989588
1215.9714727273113 6683.454203863885
1216.8232270574663 6939.307096988671
1217.6747719489904 6629.60459925122
1218.5261074609934 6686.329655723242
1219.3772336525653 6632.733932993181
1220.2281505827668 6749.694737210992
1221.0788583106296 6755.323954722859
1221.9293568951707 6587.0889030457965
1222.7796463953746 6612.121959083874
1223.629726870202 6739.553265611294
1224.4795983785934 6727.225392616117
1225.3292609794553 6614.248484153077
1226.1787147316809 6547.142480306874
1227.0279596941327 6616.680085995819
1227.8769959256424 6510.4926026135345
1228.7258234850306 6675.146991011276
1229.5744424310833 6492.43865868567
1230.422852822563 6670.825451078131
1231.2710547182105 6775.134036800705
1232.119048176739 6593.37113994992
1232.9668332568417 6477.860517643914
1233.8144100171812 6682.284485011327
1234.6617785163999 6627.713036037176
1235.508938813111 6357.212212255783
1236.3558909659114 6562.973060850292
1237.2026350333617 6657.140794421763
1238.049171074008 6633.215003927617
1238.8954991463652 6434.901460691676
1239.741619308932 6563.246025311692
1240.587531620169 5828.535973015356
1241.4332361385277 6685.091693764836
1242.2787329224248 6519.961201939803
1243.1240220302534 6360.661798234744
1243.9691035203869 6393.573371580646
1244.813977451171 6606.680311868144
1245.6586438809263 6497.348498978508
1246.5031028679496 6197.290079759155
1247.3473544705157 6550.0862277619935
1248.1913987468706 6504.049643065162
1249.0352357552383 6210.305215595619
1249.8788655538228 6359.234513392987
1250.7222882007918 6493.143148839457
1251.565503754302 6513.881112705834
1252.4085122724755 6210.030215469989
1253.2513138134182 6493.507125341507
1254.0939084352049 6398.677645696699
1254.9362961958905 6424.296887496614
1255.7784771535007 6402.747589898361
1256.6204513660432 6531.5996457410165
1257.4622188915 6600.253468133857
1258.3037797878242 6424.50762881657
1259.1451341129468 6330.182638382206
1259.9862819247755 6421.282139404127
1260.8272232811978 6456.946173293238
1261.6679582400666 6527.786445437874
1262.5084868592203 6259.42416818455
1263.34880919647 6360.914126733202
1264.1889253095997 6340.950727137742
1265.0288352563712 6532.695751901001
1265.8685390945266 6280.869892038618
1266.7080368817751 6382.797983775487
1267.5473286758115 6561.496436206658
1268.386414534294 6411.315980706013
1269.2252945148703 6142.7801592386195
1270.0639686751547 6228.9936222719
1270.9024370727402 6276.823344463415
1271.7406997651997 6185.02201213103
1272.5787568100714 6116.193730083677
1273.4166082648808 6148.636819963344
1274.2542541871244 6247.954640627437
1275.091694634275 6513.017295637988
1275.9289296637817 6107.341526291668
1276.7659593330663 6295.751795855644
1277.6027836995308 6267.586723517947
1278.4394028205552 6436.466743617669
1279.2758167534867 6251.823466911923
1280.112025555658 6193.704414766162
1280.9480292843746 6208.665652519921
1281.7838279969128 6096.33237959562
1282.6194217505326 6138.874316245189
1283.4548106024686 6044.750984910187
1284.289994609926 6080.051511196524
1285.1249738300921 6263.21233913022
1285.959748320127 6039.823038525721
1286.7943181371702 6138.990699920711
1287.6286833383328 6114.244847311309
1288.4628439807038 6153.606011542954
1289.2968001213521 6033.3193503771345
1290.1305518173194 6100.0722038582935
1290.9640991256183 6254.732998670237
1291.7974421032523 5998.818659015852
1292.630580807183 6034.961380741921
1293.463515294361 6152.814907037146
1294.29624562171 6305.823658543946
1295.12877184613 6083.294713541652
1295.961094024493 6060.265417427844
1296.79321221365 6155.762596080234
1297.6251264704333 6179.726070458708
1298.4568368516466 6422.513874933808
1299.2883434140658 6171.800984889404
1300.1196462144526 6065.947147949688
1300.9507453095375 6188.282233190297
1301.7816407560313 6197.610082543656
1302.6123326106172 6143.828708900935
1303.4428209299622 5962.524350424021
1304.2731057707024 6251.741159202749
1305.1031871894502 6059.173699358922
1305.933065242798 6126.271840865006
1306.7627399873181 6068.97481001857
1307.5922114795467 6458.588521608379
1308.4214797760123 6331.166343529699
1309.2505449332057 6206.858131294867
1310.0794070076026 6242.641118797475
1310.9080660556538 6360.6099195579745
1311.736522133786 6334.943959869995
1312.5647752983987 6162.813480537376
1313.3928256058734 5940.5068144397765
1314.2206731125661 6211.081955676736
1315.048317874809 6128.909654587167
1315.8757599489109 6192.821371089012
1316.7029993911547 6130.227074421985
1317.5300362578055 6293.743721986351
1318.356870605101 6118.599087326119
1319.183502489257 6042.884768451798
1320.0099319664623 6181.700319085781
1320.836159092889 6220.146707368678
1321.66218392468 6280.122916273021
1322.4880065179532 5969.100570060511
1323.3136269288134 6135.945774162049
1324.1390452133292 6275.796364492186
1324.9642614275563 6368.176192093884
1325.7892756275214 6153.208952088424
1326.6140878692295 6018.275092970227
1327.4386982086617 6577.126355374172
1328.2631067017755 6149.39205741768
1329.0873134045069 6209.60309895459
1329.911318372764 6135.607186531003
1330.735121662441 6142.0317567469165
1331.558723329399 6045.266885487652
1332.3821234294774 6017.8218644741055
1333.2053220185007 6006.608608855112
1334.0283191522612 6001.983793743782
1334.851114886529 6103.105502747699
1335.6737092770582 5913.227459510954
1336.4961023795695 5946.785519762668
1337.3182942497697 5861.255163572327
1338.1402849433325 5903.908028470107
1338.962074515921 5749.558340108019
1339.7836630231632 5705.916390624994
1340.6050505206676 6190.96428246611
1341.426237064028 6041.424996792712
1342.2472227088037 5722.24409640561
1343.0680075105338 5726.186739082021
1343.888591524741 5834.629223002156
1344.7089748069138 5995.517719137794
1345.5291574125276 5787.192249335007
1346.3491393970307 5644.387604142688
1347.168920815846 5915.474618030012
1347.9885017243778 5946.464399176502
1348.8078821780036 5693.650180288643
1349.6270622320844 5762.336023876671
1350.4460419419447 5682.185508300766
1351.2648213629054 5848.760971328322
1352.0834005502438 5580.31578935922
1352.90177955923 5599.99892796745
1353.7199584451064 5761.264438013786
1354.5379372630887 5796.481895889904
1355.355716068374 5655.736564485976
1356.1732949161305 5620.131095379194
1356.9906738615155 5650.640639238939
1357.8078529596478 5654.666221820117
1358.6248322656375 5744.409518014387
1359.441611834567 5519.3781858687635
1360.2581917214866 5831.805794248053
1361.0745719814367 5630.789816780332
1361.890752669433 5576.324176486074
1362.7067338404577 5520.606581845832
1363.5225155494845 5618.7501444749305
1364.3380978514506 5748.069533354229
1365.1534808012839 5426.458497327306
1365.9686644538815 5317.913163815675
1366.783648864117 5732.300954561195
1367.5984340868417 5774.062128745227
1368.413020176893 5538.281684037762
1369.2274071890715 5290.2563273403675
1370.0415951781652 5627.067322554505
1370.8555841989346 5518.62870584299
1371.6693743061223 5463.014588012992
1372.48296555444 5294.314386341021
1373.2963579985844 5478.8986930939445
1374.1095516932255 5455.308101694641
1374.9225466930166 5167.258014281393
1375.7353430525782 5457.149114090888
1376.5479408265164 5280.955894143093
1377.36034006941 5433.571857527395
1378.1725408358216 5480.0759658543175
1378.9845431802805 5153.456906191442
1379.796347157304 5669.054677869665
1380.6079528213813 5531.653433762973
1381.4193602269788 5139.6546412302705
1382.230569428546 5222.019706427126
1383.0415804805016 5473.938404982609
1383.852393437246 5468.5740429572925
1384.6630083531563 5351.000384447039
1385.4734252825892 5167.168994568387
1386.2836442798798 5316.867268840892
1387.0936653993322 5330.0367905056555
1387.9034886952395 5260.791969897378
1388.713114221864 5390.550901948477
1389.5225420334482 5372.219453923846
1390.331772184214 5272.393605654055
1391.1408047283585 5038.147752345773
1391.9496397200564 5290.669064465326
1392.758277213461 5317.775786347428
1393.5667172627054 5468.439550971643
1394.3749599218918 5260.5209722787895
1395.1830052451114 5040.997812985902
1395.9908532864265 5141.734169789472
1396.7985040998774 5396.574809429609
1397.6059577394808 5088.035347899797
1398.4132142592352 5148.297988554282
1399.2202737131156 5112.378694261953
1400.027136155073 5290.538588233946
1400.8338016390353 4976.229984303694
1401.6402702189134 5064.2353722943035
1402.446541948586 5214.182873513625
1403.2526168819204 4944.743404525123
1404.058495072757 5023.0750460006
1404.8641765749107 5034.999157452186
1405.6696614421799 5165.8128623921175
1406.4749497283356 5476.186214291399
1407.280041487129 5026.096393805616
1408.084936772295 4839.7935183483305
1408.8896356375335 5261.299981138437
1409.6941381365323 5252.431756355903
1410.498444322955 4820.8542081969845
1411.3025542504402 4964.550571971786
1412.106467972606 5106.9887195383135
1412.9101855430508 5183.938651847845
1413.7137070153458 4739.506668043773
1414.5170324430437 4961.048881201706
1415.320161879672 5170.844516110818
1416.1230953787435 5273.3975703727465
1416.925832993742 4935.0607664090285
1417.7283747781275 4772.075489089108
1418.5307207853439 5045.89572155554
1419.3328710688093 4994.277330942017
1420.134825681922 4706.775315446286
1420.9365846780584 4857.321811561021
1421.7381481105713 5218.649762210409
1422.539516032788 5046.271181163528
1423.3406884980232 4830.978700281467
1424.1416655595604 4899.195804148021
1424.942447270665 4857.872600010278
1425.7430336845828 5004.383789239368
1426.5434248545298 4729.008528186172
1427.3436208337116 4934.744904472445
1428.143621675301 5007.659636889977
1428.9434274324558 5153.492926006263
1429.7430381583108 4760.784430109079
1430.5424539059713 4787.139147113446
1431.3416747285337 5092.314198713991
1432.1407006790632 5019.615936253644
1432.9395318106053 4917.478721592318
1433.7381681761835 4790.269036727168
1434.5366098288014 4855.658074364784
1435.3348568214424 5042.4707722032645
1436.1329092070573 4778.841892518577
1436.9307670385879 4886.447015730103
1437.7284303689503 4965.896710054409
1438.5258992510335 5109.631137027707
1439.3231737377118 4846.251518141693
1440.1202538818306 4860.375945601972
1440.9171397362225 4829.797646403053
1441.7138313536925 4900.677030567449
1442.5103287870243 4747.190691811355
1443.3066320889775 4680.689774760975
1444.1027413122956 4939.66676574423
1444.8986565096966 4827.240301834143
1445.694377733882 4780.2147688937
1446.4899050375207 4640.563722610747
1447.2852384732687 4733.334047316672
1448.0803780937622 4933.993068345109
1448.8753239516063 4593.91481270694
1449.6700760993954 4517.115506075571
1450.464634589689 4656.509864268377
1451.2589994750397 4919.877767535983
1452.0531708079689 4505.5306055444
1452.8471486409799 4535.3569269481995
1453.6409330265524 4835.387443153103
1454.4345240171442 4560.889394196253
1455.2279216651987 4496.450002188429
1456.0211260231263 4582.382002281375
1456.8141371433194 4784.87599311228
1457.6069550781594 4791.866986823783
1458.3995798799897 4408.669682906335
1459.1920116011424 4493.254767440221
1459.98425029393 4399.08767657921
1460.7762960106338 4408.760770081901
1461.5681488035225 4546.331525402576
1462.3598087248392 4528.58713994773
1463.1512758268036 4785.058722588214
1463.942550161617 4426.345262371693
1464.7336317814625 4517.366609696988
1465.524520738496 4515.717591283222
1466.3152170848552 4476.113279776944
1467.1057208726506 4513.575022601675
1467.8960321539817 4474.40630835936
1468.6861509809169 4357.207216996415
1469.4760774055085 4443.400674434393
1470.265811479785 4534.7175345488195
1471.055353255755 4245.57734763189
1471.844702785409 4317.80070733317
1472.6338601207044 4344.920100635021
1473.4228253135934 4607.51070660194
1474.2115984159936 4248.850721044021
1475.0001794798063 4120.373156896303
1475.7885685569145 4376.481269802448
1476.576765699172 4351.365475335248
1477.3647709584238 4210.90853938737
1478.1525843864802 4464.326491259582
1478.9402060351367 4342.9696286846965
1479.7276359561693 4434.75415672435
1480.514874201328 4246.622593994025
1481.3019208223468 4176.777053220232
1482.0887758709323 4019.3063795761436
1482.8754393987747 4414.930838006405
1483.6619114575406 4062.8435793421477
1484.4481920988783 4154.286310644565
1485.2342813744108 4325.878709578155
1486.0201793357446 4469.360691276413
1486.8058860344572 4051.2227150591652
1487.591401522117 4202.670045478199
1488.3767258502594 4122.335799413673
1489.1618590704056 4183.886044313953
1489.9468012340494 3834.87874355984
1490.7315523926754 4217.458279348327
1491.5161125977356 4230.931607188557
1492.3004819006637 4266.963332880796
1493.084660352877 4121.214320262711
1493.8686480057622 4210.123356111408
1494.6524449106964 4376.038799712131
1495.4360511190262 4367.2235342649465
1496.219466682087 4204.313666288615
1497.0026916511779 4271.272964789862
1497.7857260775945 4130.827349191561
1498.5685700125996 4300.111450055981
1499.3512235074395 4025.4368601156907
1500.133686613337 3985.2653083133177
1500.9159593814966 4078.77127717196
1501.698041863101 4595.302850985506
1502.4799341093094 4062.5329164521986
1503.2616361712662 3844.504946592437
1504.043148100087 4124.045790359956
1504.8244699468742 4226.235178717521
1505.6056017626997 3950.7563143230245
1506.3865435986281 3961.855292527627
1507.1672955056893 4117.340197736111
1507.9478575348967 3945.909633999333
1508.7282297372512 4277.119776062258
1509.5084121637192 4061.1821776797783
1510.2884048652577 3989.360585619903
1511.0682078927948 4026.1576365939495
1511.8478212972423 3992.19698912015
1512.6272451294917 3969.867848653116
1513.4064794404076 4075.872333529097
1514.1855242808433 4226.611517409709
1514.9643797016215 4064.138999156455
1515.743045753552 4131.998998994173
1516.5215224874191 4109.335843318165
1517.2998099539836 3783.0834320641975
1518.077908203999 4022.5995181000194
1518.8558172881785 3929.9469100335627
1519.633537257234 4151.518833083404
1520.4110681618404 4100.233733987643
1521.1884100526604 4070.4187364590252
1521.9655629803365 3944.0600700976656
1522.7425269954856 4180.863407694506
1523.5193021487103 4358.605131768022
1524.2958884905856 3929.3926046974934
1525.0722860716687 3970.938063338918
1525.848494942502 3897.7420550801644
1526.624515153595 3991.377326575052
1527.4003467554485 4019.974905405624
1528.175989798534 4135.895135485571
1528.9514443333064 4106.733373307207
1529.726710410203 4159.983157693864
1530.5017880796331 3833.1360668229327
1531.276677391992 3942.8805372861307
1532.0513783976457 4245.157521770519
1532.825891146953 3960.0700063023332
1533.6002156902414 4041.425569025893
1534.3743520778207 3896.6593247439787
1535.1483003599806 3992.889943297895
1535.9220605869923 4111.610476513326
1536.6956328091019 4045.549925547815
1537.4690170765407 3857.591258796811
1538.242213439511 4068.8708510938072
1539.015221948208 4018.1926765958024
1539.78804265279 3783.0858376240635
1540.560675603405 3749.5845900143177
1541.3331208501804 4177.4573196301335
1542.1053784432224 4187.432977534865
1542.8774484326168 3934.3127027043834
1543.649330868422 3867.70079564677
1544.4210258006842 3959.3870724423878
1545.1925332794308 3905.235943443161
1545.9638533546604 3942.4272255583624
1546.7349860763552 3787.4230675907297
1547.5059314944829 4306.3017895175335
1548.27668965898 3938.9516375701824
1549.0472606197673 3936.480474793059
1549.817644426752 3840.5329881030375
1550.5878411298072 3994.3292415750634
1551.3578507787988 3986.1256881842614
1552.1276734235635 3724.2773001309806
1552.8973091139233 3881.397657666062
1553.6667578996767 4076.011411309236
1554.436019830604 3742.827986806699
1555.20509495646 3796.1028026318586
1555.9739833269869 3738.0506915065866
1556.7426849919011 3737.8687077014097
1557.511200000903 4159.025835104387
1558.2795284036674 3930.538549906807
1559.0476702498509 3770.059585473092
1559.8156255890954 3955.6792525911924
1560.5833944710157 4156.900463972238
1561.3509769452048 3741.3250096274633
1562.1183730612447 3839.0429522655677
1562.8855828686865 3811.2996038950287
1563.6526064170703 4193.281491110858
1564.4194437559127 3971.31223234258
1565.1860949347047 3781.548086217654
1565.9525600029283 4105.022065939455
1566.7188390100328 4220.597096025413
1567.4849320054564 3742.140374363561
1568.250839038612 3745.0165502657137
1569.0165601588997 3813.0732346155796
1569.7820954156887 3911.167381326343
1570.5474448583373 3858.250117672012
1571.31260853618 3663.7012737478967
1572.0775864985299 3621.287185474276
1572.8423787946813 3909.0944387962168
1573.6069854739108 3772.3362418477022
1574.371406585471 3891.620772428869
1575.1356421785986 3912.7570830651375
1575.899692302506 3661.0750035957944
1576.6635570063845 3825.78818890185
1577.4272363394157 3831.272234556457
1578.190730350747 3687.842368364699
1578.9540390895163 3824.614284741102
1579.7171626048384 3492.1508474035973
1580.480100945806 3627.9514145538683
1581.2428541614918 3707.604437853703
1582.0054223009538 3856.7268433421414
1582.767805413223 3734.6473983933247
1583.5300035473156 3750.483815848946
1584.292016752228 3943.2218324659466
1585.0538450769309 3935.789104238974
1585.8154885703807 3617.3153950194146
1586.5769472815136 3550.6546125120535
1587.3382212592405 3811.034762736733
1588.099310552463 4036.4033001121315
1588.8602152100484 3653.1246666132733
1589.6209352808564 3868.2686683010775
1590.3814708137234 3723.6295235402963
1591.14182185746 3751.0681626746527
1591.9019884608679 3608.101253090173
1592.6619706727215 3561.7010554604335
1593.4217685417734 3806.4075881181293
1594.1813821167616 3878.658386608272
1594.9408114464022 3538.027830624507
1595.7000565793933 3680.775831890166
1596.459117564409 3770.2108029962546
1597.2179944501113 3541.263503742288
1597.9766872851324 3564.746955873093
1598.735196118092 3790.9091315643614
1599.4935209975883 3719.595149555376
1600.2516619721973 3883.6692797539627
1601.0096190904787 3578.5389907043054
1601.7673924009723 3641.4424574315644
1602.524981952196 3600.772523057503
1603.2823877926476 3592.5037189320115
1604.0396099708087 3498.8344254090543
1604.7966485351371 3439.4630484604727
1605.5535035340745 3642.4564721194606
1606.3101750160404 3796.216133366224
1607.0666630294363 3467.543849641324
1607.822967622642 3462.2608376392554
1608.5790888440224 3614.5527707548367
1609.3350267419137 3724.732646813004
1610.0907813646445 3516.4443674071067
1610.8463527605145 3476.3719319494617
1611.601740977805 3679.739886886752
1612.356946064785 3595.8916401252363
1613.1119680696902 3298.991391764106
1613.8668070407512 3542.6041857151527
1614.6214630261748 3458.035697396411
1615.375936074137 3722.0533445438864
1616.1302262328118 3469.117515092049
1616.8843335503425 3688.2141935808927
1617.638258074854 3420.7916359273304
1618.391999854457 3516.949874825191
1619.1455589372363 3756.2013591394957
1619.8989353712623 3645.2002255321713
1620.65212920458 3334.9292155083217
1621.4051404852235 3422.0935664840717
1622.1579692611976 3613.455691701415
1622.9106155804966 3327.596783498511
1623.663079491087 3419.6343107432817
1624.4153610409248 3522.847468181394
1625.1674602779385 3470.513639092713
1625.9193772500403 3450.356606872943
1626.6711120051277 3862.1532398591835
1627.4226645910676 3634.325390229546
1628.174035055721 3384.035193425443
1628.9252234469168 3537.143984068204
1629.676229812474 3450.7988941263657
1630.4270542001905 3787.8075210390207
1631.1776966578382 3533.2313907253542
1631.9281572331747 3436.8792943656726
1632.678435973945 3683.2869254543266
1633.4285329278573 3596.152111457185
1634.1784481426203 3229.142623985364
1634.9281816659113 3625.414942723169
1635.677733545388 3671.755794448533
1636.4271038286934 3523.6772279396355
1637.176292563452 3634.9601171669246
1637.9252997972635 3584.6061291976766
1638.674125577716 3596.638327337462
1639.4227699523672 4000.6098125010967
1640.171232968767 3252.713486351255
1640.9195146744423 3568.9036561936955
1641.6676151168977 3722.907807952346
1642.4155343436178 3779.3900316701424
1643.1632724020765 3498.493634921348
1643.9108293397167 3514.2221050786843
1644.658205203974 3402.106517453488
1645.4054000422566 4025.0711671893573
1646.1524139019566 3424.790091259576
1646.8992468304423 3323.342538246048
1647.6458988750728 3365.3297891521443
1648.3923700831765 3400.515021097463
1649.1386605020743 3344.04417592257
1649.8847701790564 3667.9426140701207
1650.6306991614038 3499.4247700790484
1651.3764474963682 3681.913144537738
1652.1220152311944 3221.4645625971616
1652.867402413096 3550.8066346049745
1653.6126090892776 3476.326766580011
1654.3576353069184 3797.020353061968
1655.1024811131829 3491.3030614781005
1655.8471465552066 3356.312095186924
1656.5916316801213 3710.978891514233
1657.3359365350298 3632.129498350784
1658.0800611670165 3492.6121761236964
1658.824005623148 3565.547339800695
1659.5677699504722 3332.2093599550076
1660.3113541960192 3476.2163263899065
1661.054758406799 3379.139736591107
1661.7979826297997 3146.7614193656914
1662.5410269119966 3273.321326259869
1663.283891300338 3595.2458233352872
1664.0265758417645 3282.754628582531
1664.7690805831826 3453.2030435167485
1665.5114055714948 3587.0495141197266
1666.2535508535748 3781.0902829554516
1666.9955164762814 3176.7277535765124
1667.7373024864555 3331.910193708075
1668.478908930916 3377.074431121976
1669.220335856462 3278.6062966426553
1669.9615833098778 3325.5217652851816
1670.7026513379296 3119.2720081919965
1671.44353998736 3391.6510517281654
1672.1842493048916 3356.930976286545
1672.9247793372379 3182.0155584636905
1673.6651301310812 3362.263468139577
1674.4053017330934 3227.624865341506
1675.1452941899242 3429.4960928980427
1675.885107548207 2913.7604288607895
1676.6247418545518 3001.9827149263238
1677.3641971555535 3110.3537400472937
1678.1034734977893 3332.8000675619696
1678.8425709278108 3105.194849681077
1679.5814894921605 3411.6171685205954
1680.320229237359 3259.4874700831674
1681.0587902098978 3345.8836352710687
1681.7971724562685 3265.9501357268846
1682.5353760229264 3019.4018337706125
1683.2734009563173 3305.3204224404144
1684.0112473028657 2994.2741335544056
1684.7489151089794 3272.6595051895792
1685.4864044210462 3236.5536455966985
1686.2237152854377 2857.913441279664
1686.960847748498 3379.5125854371154
1687.6978018565642 2924.713461812532
1688.434577655944 2870.735386009811
1689.1711751929379 2958.1964629634654
1689.9075945138156 3127.9010782205337
1690.6438356648396 3026.144671116322
1691.3798986922448 2612.8487064503056
1692.1157836422499 3041.6214563974945
1692.851490561059 2836.39117318853
1693.587019494853 3033.029231223292
1694.3223704897991 2709.6103864302668
1695.0575435920364 2749.822467602114
1695.792538847696 3228.805176356194
1696.527356302886 2905.99220465603
1697.2619960036936 2704.169064851555
1697.9964579961907 2730.3497044183705
1698.730742326432 2575.8973640746567
1699.4648490404488 2649.006460826599
1700.1987781842563 2772.78922287158
1700.9325298038548 3000.1074963339347
1701.6661039452174 3082.555166352238
1702.3995006543082 2943.60584103525
1703.1327199770658 3032.2153077534867
1703.865761959416 2719.902183493324
1704.598626647261 3160.9983686567502
1705.3313140864866 2608.6912713879105
1706.0638243229587 2759.7285444368854
1706.7961574025303 2922.13682010956
1707.528313371029 2743.8986644488477
1708.260292274268 2596.2657419441953
1708.9920941580403 2707.641328587377
1709.7237190681226 2821.2006037924484
1710.4551670502697 2836.2902465546713
1711.18643815022 2521.750391672565
1711.9175324136959 3089.9369950102564
1712.6484498863938 2752.9575695046324
1713.379190614005 2483.21710827057
1714.109754642188 2741.813938824719
1714.8401420165883 2605.0527897376746
1715.570352782839 3215.4910368311475
1716.3003869865497 2800.8824321483035
1717.0302446733076 2527.843776893585
1717.7599258886876 2709.8088136382567
1718.4894306782444 3125.606946093056
1719.2187590875183 2621.1926031841567
1719.9479111620203 2945.5937114537273
1720.6768869472544 2595.7251306181233
1721.4056864887025 3090.640430029352
1722.1343098318284 2987.64701825903
1722.8627570220742 2757.7256448547364
1723.591028104871 2675.2677520657885
1724.3191231256242 2469.3670833038977
1725.0470421297232 2779.5630098831252
1725.7747851625427 2833.432162545593
1726.5023522694337 2797.5450490905587
1727.2297434957363 2747.8556865727987
1727.9569588867635 2514.0765200195065
1728.6839984878152 2798.8623698470747
1729.4108623441734 2312.2277544452795
1730.1375505011038 2748.572384497407
1730.8640630038426 2561.0501526504845
1731.5903998976264 2564.1527508965873
1732.316561227657 2677.3630021531585
1733.0425470391274 2547.792934501249
1733.7683573772065 2735.996206208489
1734.4939922870508 2644.3327804230826
1735.2194518137949 2638.3229038935
1735.9447360025606 2740.284889206654
1736.669844898439 2612.0564803349694
1737.3947785465189 2472.682907472568
1738.1195369918605 2432.112296111585
1738.8441202795093 2728.3383124091633
1739.5685284544943 2724.973715582041
1740.292761561821 2660.9684237898737
1741.0168196464838 2704.7395249768333
1741.7407027534518 2644.288054511947
1742.464410927687 2673.492128796485
1743.187944214118 2623.0120065146543
1743.9113026576688 2544.1961756788314
1744.634486303241 2602.971649138507
1745.3574951957125 2495.1470327722027
1746.0803293799509 2687.482750282088
1746.8029889008048 2506.6616861707107
1747.5254738031017 2664.1340935931307
1748.2477841316504 2463.7783413158177
1748.969919931249 2521.120049042716
1749.6918812466665 2586.3009479162984
1750.4136681226646 2686.4666452296306
1751.1352806039777 2615.5794216412114
1751.856718735331 2256.7690178536022
1752.5779825614281 2317.4859928614633
1753.2990721269507 2673.1328646812217
1754.0199874765676 2557.846294586942
1754.7407286549314 2347.1710683929623
1755.4612957066693 2443.307176001064
1756.1816886763954 2351.2078960886133
1756.9019076087097 2726.095666083012
1757.6219525481865 2602.2034289550843
1758.3418235393856 2534.189641625341
1759.061520626854 2580.206813004608
1759.7810438551096 2684.8624439488326
1760.5003932686614 2369.38205354692
1761.2195689119999 2755.5164260509146
1761.938570829594 2531.6784140164646
1762.657399065898 2575.4604985110554
1763.376053665348 2393.2354774986948
1764.0945346723602 2347.740339363365
1764.812842131334 2735.8246044720954
1765.5309760866512 2360.9876175115514
1766.2489365826787 2317.411496189004
1766.9667236637597 2441.0958708775597
1767.684337374223 2104.7894493595045
1768.401777758383 2359.909412187198
1769.1190448605284 2295.984148097735
1769.836138724937 2290.610185108022
1770.5530593958665 2514.4676301220816
1771.2698069175603 2713.4282675393065
1771.9863813342326 2596.441685386152
1772.702782690094 2344.601276398671
1773.4190110293293 2589.093751350058
1774.1350663961111 2478.271289544852
1774.8509488345844 2231.393672620432
1775.5666583888924 2442.287415941862
1776.2821951031437 2690.120385024843
1776.9975590214362 2452.8797895238777
1777.7127501878585 2575.4130189841653
1778.4277686464684 2535.6627290393753
1779.1426144413108 2644.256504221979
1779.8572876164162 2609.626580947224
1780.571788215797 2205.8081992091675
1781.2861162834415 2378.303635923308
1782.0002718633277 2331.6037903115853
1782.7142549994132 2452.278161191222
1783.4280657356376 2579.5467639909048
1784.141704115922 2256.7689164865815
1784.855170184177 2382.1555125900327
1785.5684639842839 2490.616753327566
1786.2815855601148 2081.6733633162453
1786.9945349555237 2499.849579920686
1787.707312214343 2285.5288539347343
1788.4199173803918 2256.1979777602533
1789.132350497468 2227.0127481455033
1789.8446116093583 2294.996494790992
1790.556700759822 2334.839041098213
1791.2686179926077 2348.8253339972966
1791.9803633514493 2291.198466449393
1792.6919368800554 2167.3572857303525
1793.4033386221236 2443.242814729142
1794.1145686213295 2486.738069638421
1794.8256269213307 2644.0066886197246
1795.536513565774 2431.3774597414313
1796.247228598284 2075.634446096074
1796.9577720624693 2259.993293520972
1797.6681440019165 2428.2697367748524
1798.3783444602013 2349.2719938153336
1799.0883734808776 2400.9070521927088
1799.7982311074884 2408.012115416454
1800.5079173835475 2342.416828439278
1801.2174323525633 2504.338765452807
1801.9267760580187 2317.8519632396274
1802.635948543386 2445.8551228286974
1803.3449498521113 2193.5527839408182
1804.0537800276325 2434.8729719057656
1804.7624391133668 2346.9550515676074
1805.47092715271 2115.6257968987356
1806.1792441890484 2147.6784012390904
1806.8873902657433 2354.872722892177
1807.5953654261448 2311.7024400269997
1808.3031697135812 2296.749978441374
1809.0108031713662 2260.98508689157
1809.71826584279 2279.19527408175
1810.425557771141 2354.786876192701
1811.1326789996747 2306.6483974325756
1811.839629571632 2258.3279556545704
1812.5464095302468 2329.4949959974365
1813.2530189187182 2338.8943665140023
1813.959457780249 2259.7683963224745
1814.6657261580076 2413.496110456201
1815.371824095153 2263.320519573369
1816.0777516348262 2433.1210115423787
1816.78350882015 1950.191131017519
1817.4890956942272 2118.4739736883403
1818.1945123001533 2290.3480009660148
1818.8997586809928 2336.0076577615855
1819.6048348798067 2206.612561440771
1820.3097409396287 2219.54695241104
1821.0144769034796 2594.7513146815722
1821.7190428143622 2476.7766563036357
1822.423438715261 2448.3798123243205
1823.1276646491478 2204.0082716315947
1823.8317206589727 2334.0083285644405
1824.5356067876692 2226.2140192396582
1825.2393230781581 2246.052512900222
1825.942869573335 2025.4644337447396
1826.646246316086 2035.9890416340882
1827.3494533492758 2256.769369242479
1828.052490715756 2285.910757485057
1828.7553584583547 2331.107975359901
1829.458056619891 2399.962957692491
1830.1605852431585 2214.698893317048
1830.8629443709433 2117.8313062327034
1831.5651340460063 2146.531923707868
1832.2671543110919 2117.2131291549586
1832.9690052089318 2374.7559644327143
1833.6706867822395 1979.5665138951567
1834.3721990737104 2384.665499970489
1835.0735421260233 2421.3305098502324
1835.774715981841 2220.725534669349
1836.4757206838058 2403.0760018130118
1837.1765562745459 2204.773507738798
1837.8772227966747 2056.612863629979
1838.5777202927839 2112.033226194749
1839.2780488054523 2128.0809962453914
1839.9782083772352 2103.4353726019594
1840.6781990506806 2096.742283108012
1841.378020868313 2089.7768466831667
1842.0776738726418 2262.4200789336383
1842.777158106157 1984.1633888914341
1843.4764736113375 1992.9842006721294
1844.1756204306403 2300.382476870121
1844.8745986065078 2147.314919729007
1845.5734081813607 1996.7262500132274
1846.2720491976124 2143.2889874164493
1846.970521697649 2111.7582830592287
1847.6688257238511 2219.0855241703584
1848.3669613185684 2187.811159367541
1849.0649285241452 1926.11391012002
1849.7627273829057 2187.575862777084
1850.460357937156 2236.904823756341
1851.1578202291857 1945.4490456247636
1851.8551143012664 2214.3144811539814
1852.5522401956569 2121.923332118196
1853.2491979545957 2300.344132021921
1853.9459876203055 2089.116625501886
1854.6426092349902 2003.8862031318754
1855.3390628408451 2009.364229329116
1856.0353484800362 2410.179432450742
1856.7314661947203 2190.085476028647
1857.4274160270397 2036.2572112827788
1858.123198019115 2216.0072933794513
1858.8188122130487 1937.3655854346925
1859.5142586509319 2124.23543339311
1860.209537374838 2138.8925570516726
1860.9046484268183 2168.2943816579304
1861.599591848917 2371.3343462116763
1862.294367683151 2106.3945567727033
1862.988975971528 2047.069727844735
1863.6834167560355 2229.49589765273
1864.3776900786452 2448.729912630274
1865.0717959813119 2039.2391068053253
1865.7657345059724 1995.372110811751
1866.4595056945564 2144.3156841492755
1867.1531095889586 2227.1973202257495
1867.846546231076 1896.056856493641
1868.5398156627743 1958.4532384959628
1869.2329179259123 2020.9807286042906
1869.9258530623283 2357.4139191704985
1870.618621113843 1946.3790113859172
1871.3112221222636 1933.9164367328697
1872.0036561293764 2132.1633217087365
1872.695923176956 2187.395954159311
1873.3880233067594 2311.3000642847264
1874.0799565605212 1873.7822268412142
1874.7717229799673 2129.819892405047
1875.4633226068036 2326.3447303714847
1876.1547554827175 2305.2847087947653
1876.8460216493859 2099.6382903076237
1877.5371211484617 2088.9764175493037
1878.2280540215852 2310.0238852864527
1878.9188203103804 1908.1965566561198
1879.6094200564548 2069.155009393901
1880.299853301396 1885.4501536040218
1880.9901200867826 2389.0704637274766
1881.6802204541673 2196.399099726267
1882.3701544450942 2085.156491122887
1883.059922101087 1902.5833424616947
1883.7495234636517 1953.3013806548672
1884.4389585742792 2004.0569859723068
1885.1282274744517 1973.324286037215
1885.8173302056166 2070.042941439385
1886.506266809225 2166.8939139087115
1887.195037326701 1948.7292223269274
1887.8836417994517 1985.8279228812335
1888.5720802688702 2369.9384226531347
1889.260352776333 2179.3299930687635
1889.9484593632042 2275.9273953217316
1890.63640007082 2014.257130321558
1891.3241749405151 1849.0684612603702
1892.0117840135954 2181.8258038299414
1892.6992273313572 2010.2567674197096
1893.3865049350788 1962.468587791115
1894.0736168660223 2334.796131547343
1894.7605631654333 2077.240747444428
1895.4473438745408 1889.4949757447964
1896.133959034556 2411.1158915013593
1896.820408686679 2143.7167884943037
1897.506692872088 2402.3187092951384
1898.192811631945 2110.985828922215
1898.8787650073991 2042.6166385961146
1899.5645530395832 2257.347342270069
1900.2501757696118 2323.1302431147697
1900.9356332385796 2438.083098901612
1901.620925487574 2553.4070786815255
1902.3060525576602 2229.9654338935275
1902.9910144898859 2201.2546323302818
1903.6758113252872 2037.1476318259124
1904.3604431048789 2163.12192848211
1905.0449098696663 2220.1746230336867
1905.7292116606295 1996.4173841582262
1906.4133485187394 2143.822750751954
1907.0973204849488 1708.265022063158
1907.7811276001976 1900.445249352057
1908.4647699053967 2011.431274811272
1909.1482474414588 1987.7583754495936
1909.8315602492694 1963.9427658465415
1910.5147083696957 2264.2767734468334
1911.1976918436012 2067.567135991994
1911.880510711815 1947.7305664805085
1912.5631650151681 2270.577500841868
1913.2456547944657 1957.040421695793
1913.927980090495 1927.9907010856223
1914.6101409440362 1929.3561282420233
1915.2921373958416 2241.04610980487
1915.9739694866603 2027.3548869870326
1916.655637257214 2350.744016851594
1917.3371407482136 2029.493957781245
1918.0184800003572 2293.160802466409
1918.6996550543154 2152.0735888818235
1919.3806659507554 2024.6088312699317
1920.0615127303208 2093.6462013282967
1920.7421954336423 2286.1829214181635
1921.4227141013343 2307.869843942469
1922.103068773993 2097.1101623907753
1922.783259492202 2262.8939217128
1923.4632862965227 2037.0914549824306
1924.1431492275078 1948.9558035668438
1924.8228483256917 1938.160673611633
1925.5023836315922 2106.5148224325135
1926.1817551857057 2251.871472446138
1926.8609630285227 1925.8152485700277
1927.5400072005123 2122.8535450534478
1928.218887742125 1961.951706513184
1928.8976046938005 1772.7712211587059
1929.5761580959588 2099.9728459267367
1930.2545479890086 2101.355679373956
1930.9327744133352 1822.795544440416
1931.6108374093164 2080.870975228715
1932.2887370173066 2296.2273519114124
1932.9664732776473 1803.7755818870446
1933.6440462306673 2016.3552807792744
1934.3214559166754 2035.5653380177694
1934.9987023759659 2358.4758158187146
1935.675785648813 2105.1965538127497
1936.3527057754836 1780.2744639797045
1937.029462796223 1879.4359388188757
1937.70605675126 1978.8530000211672
1938.3824876808085 1802.2076965610734
1939.058755625072 1909.9430595367157
1939.7348606242267 1910.2215005441449
1940.4108027184448 1938.1946826027488
1941.0865819478713 2155.4348938329736
1941.7621983526478 1792.4584319900416
1942.4376519728921 1786.8384677000693
1943.1129428487038 2035.2688773155253
1943.7880710201734 2097.0252629779698
1944.4630365273733 2062.7626133922895
1945.1378394103576 1751.3209689308428
1945.8124797091714 1724.2012512090319
1946.4869574638324 1696.9673909093822
1947.161272714353 1897.3133391747754
1947.8354255007234 2075.7766725142164
1948.5094158629272 2017.731823437339
1949.1832438409183 2103.706659970322
1949.8569094746435 2239.210905758012
1950.530412804037 2365.260313544966
1951.2037538690092 2138.4532039497026
1951.8769327094578 1890.827754015569
1952.5499493652678 1949.770377800222
1953.222803876306 2202.248687480664
1953.895496282421 1997.6195505762018
1954.5680266234522 1974.7005693505048
1955.2403949392155 2094.9236235167073
1955.9126012695142 1738.3782125864866
1956.5846456541403 1997.0912979095397
1957.2565281328643 1929.057606214099
1957.9282487454457 2206.884793729382
1958.5998075316202 2095.0521810588302
1959.27120453112 1911.706723542028
1959.9424397836501 1995.4904470808538
1960.613513328908 2006.9067417706094
1961.2844252065697 1879.5281662826408
1961.9551754563017 1751.8948422120618
1962.6257641177453 1930.0056458963477
1963.29619123054 1738.6477544327197
1963.966456834296 1755.4872120141165
1964.6365609686181 1779.1697065692024
1965.306503673086 1994.8550512778124
1965.976284987275 1784.073700433307
1966.645904950734 2056.0818120159893
1967.315363603002 1742.422520651698
1967.9846609836077 1884.2648811405918
1968.6537971320486 1743.8207087705407
1969.3227720878222 1950.7729068435765
1969.9915858904042 1967.191198191409
1970.660238579252 2152.617184859703
1971.3287301938108 2006.1909123587634
1971.997060773514 1828.1806580037955
1972.665230357772 1846.1260195074515
1973.3332389859843 1848.4629859651068
1974.0010866975335 1754.8339466348657
1974.6687735317864 1962.6837083755734
1975.3362995280932 2025.9443979379885
1976.003664725793 2120.025898269068
1976.6708691642052 1708.9646154072973
1977.3379128826364 2014.609241590985
1978.004795920373 2150.2575237658903
1978.6715183166925 2260.0773780492964
1979.3380801108524 2117.8254691153606
1980.0044813420973 1975.4672094795678
1980.6707220496555 1641.417907157475
1981.3368022727373 1895.3122054961282
1982.0027220505417 1724.4289982937607
1982.66848142225 1553.3872165628404
1983.3340804270283 1669.0430269129363
1983.999519104027 1997.5103363692456
1984.6647974923835 2027.6313083837897
1985.329915631215 2031.674870631142
1985.99487355963 1880.8240820598353
1986.6596713167146 2165.3695374803387
1987.3243089415428 1858.057981563466
1987.9887864731754 2271.993520325336
1988.6531039506553 1730.0673304078523
1989.3172614130071 2352.6151471869657
1989.9812588992481 1820.9894929040452
1990.645096448372 1475.613733187169
1991.3087740993633 2023.7366465820128
1991.9722918911848 1825.9416156920572
1992.635649862792 1940.2493448258142
1993.2988480531185 1985.7640587732105
1993.9618865010852 1933.8579834930745
1994.6247652455968 1881.9327318031042
1995.287484325545 1734.2484747588437
1995.9500437798033 1752.5366489640187
1996.6124436472292 1718.8695687071438
1997.2746839666706 2097.091788307729
1997.936764776954 1839.6917399092388
1998.598686116895 1848.0519459826105
1999.2604480252903 2272.879224462605
1999.9220505409212 2010.5064386131617
2000.5834937025593 1734.0702068743108
2001.2447775489582 1780.0954188523629
2001.9059021188514 1951.7474881673147
2002.5668674509616 1723.4973175838404
2003.2276735839987 1902.3015213205515
2003.8883205566508 2128.750089629235
2004.5488084075987 1857.4124688051998
2005.2091371755014 1862.8224027087304
2005.8693068990033 1611.7094175359653
2006.5293176167397 1651.84188090221
2007.1891693673224 1692.1918419610367
2007.848862189354 1783.0897681526653
2008.5083961214223 1870.1757303953339
2009.1677712020955 1746.5069651117658
2009.8269874699254 1743.4272165610892
2010.4860449634598 1698.2279006106498
2011.1449437212177 1653.010212893633
2011.8036837817108 2052.5203954278622
2012.4622651834325 2068.056583242655
2013.1206879648653 2064.8528824479617
2013.7789521644736 2181.3847050613404
2014.4370578207036 2031.1934200376345
2015.0950049719922 1880.5179158124417
2015.7527936567585 2102.710028593041
2016.4104239134067 1799.4717259739173
2017.067895780323 1746.5124259401848
2017.725209295886 1693.3513026995515
2018.3823644984514 2134.8253495240683
2019.0393614263648 2007.089072510248
2019.6962001179545 1798.1460679277018
2020.3528806115355 2119.0204992339427
2021.0094029454067 2094.1696845403735
2021.6657671578487 1722.203194340707
2022.321973287133 1877.5697498648012
2022.9780213715148 1749.6468244110122
2023.6339114492293 2051.5728518191445
2024.2896435585026 1762.5945919639325
2024.9452177375442 1905.3690092635777
2025.600634024544 2189.9065615659642
2026.2558924576842 2016.5644963781328
2026.9109930751292 2066.5470599664295
2027.565935915025 1697.3941996863996
2028.2207210155066 2095.3630727537648
2028.8753484146964 2257.6333008820015
2029.529818150695 2202.5636098814794
2030.1841302615903 2147.1734101412
2030.8382847854573 1752.8017865189893
2031.4922817603601 1896.3750518464137
2032.1461212243357 1828.7194451428495
2032.7998032154192 1534.7738066407671
2033.4533277716218 1704.3169577532797
2034.1066949309443 1630.0874480121456
2034.7599047313688 1669.944379406796
2035.4129572108704 2057.522644695429
2036.0658524074006 1885.0642079122008
2036.7185903589016 1987.9065206921223
2037.3711711032956 2086.5897853675006
2038.023594678496 1944.9184522173666
2038.675861122394 1650.665685049348
2039.3279704728757 1656.341832258358
2039.9799227678031 1662.1833357211187
2040.6317180450278 1821.7515722617711
2041.2833563423865 1825.2038753589848
2041.9348376977014 2200.0207608706187
2042.5861621487784 1926.6529546282113
2043.2373297334088 1839.7391590084615
2043.8883404893695 2024.7188242482584
2044.5391944544208 2110.483176850798
2045.1898916663158 2064.2859353267095
2045.8404321627804 1922.7193076174947
2046.4908159815368 1780.7679595670973
2047.1410431602853 1815.4814225744183
2047.7911137367173 1665.1720730538073
2048.441027748504 1676.6622791369086
2049.090785233302 1688.1011007533318
2049.7403862287592 1756.2022474661396
2050.389830772503 1648.0765752025588
2051.0391189021466 2022.4384458420755
2051.688250655294 1899.3059870388893
2052.337226069527 1624.8759439956887
2052.986045182417 2030.0501818738035
2053.634708031521 1542.7424102783723
2054.283214654375 1999.4671307554459
2054.931565088511 1643.5338947717428
2055.579759371436 1589.6325786104783
2056.2277975406523 1819.2504401766632
2056.8756796336384 1744.8069604987347
2057.5234056878617 1670.0394186740991
2058.1709757407752 1615.3370100926525
2058.8183898298194 2066.659847635781
2059.465647992416 2033.117713553736
2060.1127502659747 2013.0046387112154
2060.759696687888 2016.0462592688777
2061.4064872955405 2019.1077755003214
2062.053122126292 2158.8328890869147
2062.699601217497 1442.787450358178
2063.345924606485 1535.0433661635852
2063.992092330587 1907.6444415519895
2064.638104427102 1722.2558363927728
2065.283960933324 2118.03701574952
2065.92966188653 1989.4472405519732
2066.5752073239855 2105.061069946696
2067.2205972829397 2031.5194426140981
2067.86583180062 1957.9270792668976
2068.5109109142522 1839.3500208874734
2069.15583466104 1894.8429723996117
2069.8006030781708 1506.2456217328706
2070.445216202821 1835.0752041996104
2071.089674072153 2044.5032625508447
2071.7339767233116 2024.904394780322
2072.3781241934303 1679.001565943629
2073.0221165196253 1860.1650214970784
2073.6659537390024 1721.79797209896
2074.3096358886505 1961.5804115682088
2074.953163005637 1782.0975788036515
2075.596535127028 1453.7102182870246
2076.2397522898664 1634.3785840182602
2076.882814531182 1829.0316162825734
2077.5257218879924 1912.7401825309785
2078.1684743973 1545.7600594255
2078.8110720960885 1664.9358111597965
2079.453515021336 1812.3561943286998
2080.095803209997 1959.898424530956
2080.7379366990135 1839.0846427144897
2081.37991552532 1942.4018550241321
2082.0217397258275 1935.316332579542
2082.6634093374414 1630.0227445866649
2083.3049243970418 1739.2221185574595
2083.9462849415067 1978.9345115933108
2084.587491007689 1879.9586936175651
2085.2285426324324 1819.080224472452
2085.869439852564 1805.58211904281
2086.510182704902 1823.3417407870463
2087.1507712262483 1710.3422438776693
2087.791205453381 1805.0622623404718
2088.4314854230743 1899.9013609281344
2089.0716111720867 1874.7687122169234
2089.7115827371617 1430.360786291317
2090.351400155023 1544.3443824108708
2090.991063462385 1658.6091292430185
2091.6305726959527 1583.3617140024594
2092.2699278924047 1893.9049400122447
2092.9091290884153 1641.5143419518467
2093.548176320641 1551.006244436392
2094.187069625721 1863.8039046407507
2094.8258090402887 1887.509409180866
2095.464394600951 1911.2691690814559
2096.102826344313 1974.3942467221448
2096.741104306955 1997.731979024753
2097.379228525453 1542.488449193166
2098.017199036358 1573.637537108803
2098.6550158762147 2005.5695303529246
2099.2926790815527 2005.4030057510772
2099.9301886888825 1715.8133654210783
2100.5675447347076 1824.0610792698212
2101.2047472555114 2014.201925390437
2101.841796287761 1737.8796681478962
2102.47869186792 1615.1838977081445
2103.1154340324265 1753.4921123789277
2103.752022817709 1737.5706788293787
2104.388458260184 1760.899831590465
2105.024740396251 1768.8112857092387
2105.660869262292 1591.8861788138147
2106.296844894685 1669.5321603951647
2106.93266732978 1747.3981484932235
2107.5683366039284 1542.4142144841448
2108.2038527534532 1875.0562531128103
2108.8392158146726 1926.579759925956
2109.4744258238843 1736.786145132101
2110.1094828173755 1879.7496524382561
2110.744386831422 1841.2329971850486
2111.3791379022787 1802.6456846754354
2112.01373606619 2092.464108987485
2112.648181359389 1883.6075713746927
2113.28247381809 1926.0229673806757
2113.916613478492 1959.9886014482327
2114.550600376786 1898.0431536033764
2115.1844345491445 1803.029654455977
2115.818116031729 1510.5989838759722
2116.451644860679 1753.326239251844
2117.085021072133 1586.832215152322
2117.718244702204 1604.19480970925
2118.3513157869984 1588.5316182677884
2118.984234362604 1494.533451974603
2119.617000465092 1667.0187918900288
2120.249614130529 1684.8604865706761
2120.8820753949585 1702.7332613150568
2121.5143842944162 1603.5771939692365
2122.14654086492 1552.227596686437
2122.7785451424734 1504.0044068347095
2123.4103971630702 1455.8533341165653
2124.042096962681 1883.7225208213652
2124.6736445772767 2076.087854482593
2125.305040042802 1930.7399010959703
2125.936283395191 1784.9914074656022
2126.567374670365 1911.139538273601
2127.198313904233 1736.2107517062068
2127.8291011326855 1650.0196669194806
2128.4597363916037 1563.4521739629404
2129.0902197168507 1707.7967888406608
2129.720551144279 1873.995964824082
2130.3507307097225 2040.3018731171862
2130.980758449008 2202.336500807241
2131.6106343979427 2100.78310097408
2132.2403585923203 1999.0065994515621
2132.8699310679276 2144.771336691155
2133.499351860526 1993.484337535896
2134.1286210058715 1625.9482716199905
2134.7577385397053 1823.0036997116972
2135.3867044977487 1652.705303390773
2136.0155189157176 1946.5341314908958
2136.644181829308 2020.49726232832
2137.2726932742025 1948.0786381371781
2137.901053286074 2068.7822731002143
2138.5292619005777 1563.451568525225
2139.1573191533535 1517.086183373991
2139.7852250800315 1983.6870571418694
2140.4129797162295 1910.0021515870412
2141.0405830975433 1594.3433478811771
2141.6680352595613 1573.163519316732
2142.2953362378576 1551.9610103511102
2142.9224860679915 1684.8631202948704
2143.549484785508 1558.7862560835865
2144.1763324259373 1678.025717437899
2144.803029024799 1735.3611854396072
2145.429574617594 1587.2724346135774
2146.0559692398165 1810.7012925234271
2146.682212926942 1509.7540404524573
2147.308305714432 1811.9942677297483
2147.9342476377333 2141.2211904525466
2148.5600387322847 2204.826376645331
2149.185679033506 1906.9335481917897
2149.8111685768017 1565.4574820460098
2150.4365073975678 1368.9994036044423
2151.061695531187 1616.4960734033725
2151.686733013021 1952.7446638361494
2152.311619878423 1739.9222623829887
2152.9363561627342 1821.1048441925104
2153.560941901278 1605.1015275649172
2154.1853771293663 1954.1538015734525
2154.809661882293 1829.9246392279558
2155.433796195348 2144.5506310201863
2156.0577801037944 2076.3133640552996
2156.681613642895 2007.7992674328125
2157.3052968478896 1532.6679912967772
2157.928829754006 1885.7787220221744
2158.552212396462 1784.845302297881
2159.1754448104566 1750.916241268004
2159.7985270311783 1424.6278119206233
2160.4214590938027 1245.0712031974288
2161.0442410334927 1415.073450847747
2161.6668728853874 1418.8647483271525
2162.289354684628 1422.7266499330933
2162.911686466332 1524.945922192388
2163.533868265602 1861.7172474511892
2164.1559001175337 1804.9945333612864
2164.7777820572046 1748.0994245170154
2165.399514119681 1819.5742309656894
2166.021096340013 1746.929702831522
2166.6425287532384 2033.069633766676
2167.263811394385 2079.701861773814
2167.8849442984574 2126.5885873344823
2168.505927500455 1714.1576782363857
2169.126761035366 1919.7764459285613
2169.7474449381552 1727.4285063991654
2170.367979243778 1418.2284860527855
2170.9883639871823 1962.7498724604006
2171.608599203293 1532.3736390545505
2172.2286849270276 2167.8992830260618
2172.8486211932886 2323.4327615560983
2173.4684080369625 1687.389543269927
2174.0880454929265 1605.0824263963323
2174.7075335960417 1482.91282347644
2175.3268723811543 1552.8754097956803
2175.9460618831 1623.0364451744738
2176.565102136701 1739.1586686341984
2177.1839931767627 1751.3990218872004
2177.802735038078 1763.6968789119587
2178.421327755432 1675.5159228168698
2179.0397713635866 1589.7357812021742
2179.658065897298 1637.1425535016601
2180.276211391305 1925.1232380097845
2180.8942078803357 1595.595031021972
2181.5120553991 1906.8107946194555
2182.129753982299 1454.3702541642983
2182.7473036646206 1664.0702502761706
2183.3647044807367 1820.5301539445288
2183.9819564653044 1855.6539742877328
2184.599059652968 1890.926843208777
2185.216014078367 1881.123163413251
2185.832819776113 1916.493610770099
2186.4494767808137 1951.8383607625826
2187.065985127063 1692.709139412695
2187.682344849436 1606.3009061516766
2188.298555982501 1964.3643831727422
2188.9146185608097 1752.918814463324
2189.530532618901 1852.1213459309224
2190.1462981912937 1791.0889860190678
2190.761915312507 1840.2115484754463
2191.377384017036 1712.479087281506
2191.9927043393654 1825.835405714576
2192.6078763139667 1936.0706412658517
2193.2228999753006 2046.5758929564377
2193.837775357808 1829.9372090064826
2194.452502495922 1743.5425995857956
2195.0670814240602 1656.9642572273533
2195.6815121766285 1495.4649577492241
2196.2957947880186 1410.4977342737095
2196.9099292926057 1325.3638960094777
2197.523915724758 1743.467749938695
2198.137754118825 1726.043060973204
2198.7514445091456 2153.85878053492
2199.3649869300443 2121.82745089169
2199.9783814158327 2089.810420523965
2200.5916280008096 2167.0616991724264
2201.2047267192593 2002.17899017704
2201.8176776054515 1624.7376116179707
2202.430480693649 1546.2750315139926
2203.0431360180955 1891.6736232097235
2203.6556436130195 1998.5728509201556
2204.268003512645 1314.0270941559402
2204.8802157511727 1558.7612286216313
2205.492280362796 1710.5956521467415
2206.1041973816937 1862.9147517371846
2206.715966842032 1714.2256147158237
2207.3275887779655 1830.390258538921
2207.93906322363 1785.0100723918927
2208.550390213153 1872.9826349488278
2209.1615697806465 1955.1922882370504
2209.7726019602105 1567.649116409885
2210.3834867859277 1594.137933452054
2210.9942242918787 1568.198180196351
2211.6048145121167 1722.8985534288088
2212.2152574806914 2496.6528987088946
2212.825553231638 2451.0647964616164
2213.435701798975 2405.5938179278446
2214.045703216707 1625.7492845328932
2214.655557518832 1233.1826973062819
2215.2652647393297 1446.938841981791
2215.874824912169 1584.6824840892966
2216.4842380713 1722.9155886625908
2217.09350425067 1518.7724033929455
2217.7026234842033 1831.215955256242
2218.311595805819 1933.3512858218037
2218.9204212494133 1842.8726150604157
2219.52909984888 2053.683001874958
2220.137631638092 2050.8631336165754
2220.7460166509154 2047.9074099744132
2221.354254921198 1483.4969525847232
2221.9623464827764 1780.5290799804789
2222.5702913694713 1720.409151055433
2223.178089615096 1929.0608071680085
2223.7857412534486 1687.634224818433
2224.39324631831 1277.2062500261611
2225.000604843457 1620.0707628213372
2225.607816862641 2011.0903564005316
2226.214882409611 1858.1712793293154
2226.8218015180973 1979.495158102937
2227.4285742218217 1607.668610827901
2228.0352005544864 1689.6639297619972
2228.6416805497847 1350.3383113814248
2229.248014241399 1608.9076162515407
2229.8542016629945 1524.241217002353
2230.460242848223 2026.84529402517
2231.0661378307304 2287.7523021794677
2231.671886644139 1422.340284033096
2232.277489322065 1415.966783155735
2232.8829458981127 1258.4128162855307
2233.48825640587 1694.1808111518972
2234.0934208789095 2252.8013104764914
2234.6984393507955 1995.0315826030183
2235.3033118550793 1747.1643213266555
2235.9080384252975 1614.240537845813
2236.5126190949723 1376.0696510570983
2237.1170538976166 1662.0628531352188
2237.721342866729 1665.6135962365538
2238.32548603579 1669.1726919715845
2238.9294834382763 1875.560561049137
2239.533335107646 1772.9837977620755
2240.1370410773434 1844.7849269247085
2240.740601380803 1802.9200374680127
2241.3440160514474 1761.007194727817
2241.9472851226783 1765.375769355574
2242.550408627896 1830.1176628783292
2243.1533866004793 1743.2955832791242
2243.756219073799 1656.3544616071308
2244.3589060812064 1623.8730119086788
2244.961447656049 1588.407678993826
2245.5638438316564 1699.2447509764872
2246.166094641343 1748.195728757047
2246.7682001184166 1518.8715189944649
2247.3701602961664 1711.6009971545686
2247.971975207871 1707.3602989959213
2248.5736448867974 1985.2834674220387
2249.175169366197 1710.6087737856433
2249.7765486793123 1691.272237589059
2250.3777828593684 1768.5845141550822
2250.9788719395783 1747.5395396220542
2251.579815953146 1772.5960324447049
2252.1806149332606 1569.2907531214214
2252.781268913097 1647.8974374081495
2253.381777925817 1497.9907265981474
2253.9821420045737 1956.3617859095266
2254.5823611825035 1848.3827719882422
2255.1824354927303 1791.1984067855926
2255.782364968365 1593.9391550666428
2256.38214964251 1864.8775062781056
2256.9817895482483 1586.500715239533
2257.5812847186553 1616.256562048895
2258.180635186791 1381.68478833398
2258.779840985704 1561.7955447304398
2259.37890214843 1522.5226779702944
2259.97781870799 1704.6403433430155
2260.5765906973957 1887.0976576615437
2261.175218149645 1695.6253590053707
2261.773701097718 1578.5493903128631
2262.3720395745895 1461.2289892275958
2262.970233613216 1451.8348565205072
2263.568283246548 1690.6817267889091
2264.1661885075137 1497.9849927624468
2264.763949429038 1603.6719845154942
2265.3615660440246 2032.6754383642406
2265.959038385374 1508.7262310502895
2266.5563664859637 2103.9456151294703
2267.153550378669 1580.9366112379246
2267.7505900963424 2014.4983995950454
2268.3474856718312 1684.2443575429775
2268.9442371379664 1670.6435227362454
2269.5408445275643 1512.0931205840234
2270.1373078734377 1729.1507019218006
2270.7336272083758 1756.997983836823
2271.32980256516 1535.2920178192837
2271.925833976562 1863.3778377641897
2272.5217214753357 1948.1208508131967
2273.117465094223 1561.4645813891188
2273.7130648659586 1579.9092474504187
2274.308520823257 1533.7457173710495
2274.903832998827 2012.7775234716796
2275.4990014253563 1475.0492881346195
2276.094026135528 1951.8158054502933
2276.6889071620117 1545.7744476311032
2277.2836445374614 1724.929588952094
2277.878238294519 1619.5676510811481
2278.472688465812 1516.2863671691111
2279.066995083962 1412.7980426210265
2279.6611581815705 1596.835494475134
2280.255177791232 1899.1313282804597
2280.8490539455233 1755.4050191756626
2281.442786677013 2079.486277286939
2282.0363760182554 1777.9770602336334
2282.6298220017943 1630.2138999090869
2283.223124660155 2015.5084143053507
2283.816284025859 1501.0677937661092
2284.4093001314086 2035.7052878275244
2285.002173009292 1443.548703036995
2285.5949026919952 1720.9429379693556
2286.1874892119777 1595.9022536051232
2286.7799326016993 1592.9696113924028
2287.3722328936 1385.6140101348087
2287.964390120109 1655.2068925818476
2288.556404313642 1925.190341594744
2289.1482755066027 2103.3325215602044
2289.7400037313873 1696.5213434873017
2290.3315890203703 1549.4767031645192
2290.9230314059205 1765.551726274379
2291.5143309203904 1648.4324281127956
2292.1054875961236 1703.6767081638377
2292.6965014654506 2172.520524502287
2293.287372560684 1624.523748683616
2293.878100914131 1644.4825777347971
2294.468686558086 1664.5369815155814
2295.059129524827 1737.950811262944
2295.649429846617 1886.3516551613352
2296.239587555716 1663.603387707198
2296.8296026843636 1660.5069795344505
2297.419475264791 1614.9855314392912
2298.0092053292137 1569.279080059016
2298.598792909839 2104.990213558873
2299.1882380388597 1787.9709341345254
2299.777540748455 1801.2495000817191
2300.3667010707904 1814.4306196061639
2300.9557190380256 2011.2207677780484
2301.544594682302 1729.8024794057578
2302.1333280357503 2018.2022342800974
2302.721919130485 1678.6394584426653
2303.3103679986198 2147.562435503483
2303.898674672242 2155.5105060464407
2304.486839183437 1983.3661072726343
2305.0748615642697 1811.1534820238292
2305.6627418468015 1790.4503896205067
2306.2504800630704 1538.8292838024279
2306.8380762451143 1784.7852665549794
2307.425530424949 1781.171412286436
2308.012842634582 1777.5353888814516
2308.6000129060103 2143.052938282579
2309.187041271214 1889.6214781042559
2309.773927762164 1635.6400083810179
2310.3606724108213 1922.554836485091
2310.9472752491274 1814.8347608247136
2311.5337363090184 1706.8891005147373
2312.120055622414 1653.4423729255254
2312.706233221221 1712.7834409851052
2313.2922691373424 1390.4799609007118
2313.8781634026564 1529.991124094479
2314.463916049037 1669.8196757579128
2315.049527108342 1918.4958040328395
2315.6349966124235 2217.1185824450613
2316.2203245931123 2157.0593845355006
2316.8055110822315 1851.749546305644
2317.3905561115935 1545.7139145497601
2317.9754597129977 1522.62690604549
2318.560221918229 1473.8359271343443
2319.1448427590603 1424.966309995644
2319.729322267256 1501.3394233325494
2320.313660474563 1488.243763016542
2320.8978574127195 1755.554909976608
2321.481913113452 2023.6610023578978
2322.0658276084705 1485.914168320546
2322.6496009294806 1660.1063863550753
2323.233233108165 1859.899405573037
2323.8167241762058 1708.3709092561435
2324.4000741652617 1818.0843608618125
2324.983283106987 1966.6021161935053
2325.5663510330232 2012.705062168198
2326.1492779749933 1693.2896566938707
2326.7320639645204 1831.4430439978419
2327.3147090332004 2204.9232372676647
2327.897213212629 1742.3047235277122
2328.4795765343843 2014.5512547980775
2329.0617990300307 1476.6134597460064
2329.643880731124 1600.158922494263
2330.22582166921 1723.946706035366
2330.807621875816 2101.2425423144277
2331.3892813824623 1326.6380910998032
2331.9708002206517 1282.0401183511838
2332.5521784218818 1966.027507718339
2333.133416017634 1752.1406113903838
2333.7145130393765 1537.8537093998107
2334.295469518571 2079.5873136039154
2334.876285486658 1952.2343870170903
2335.456960975076 2012.4504389694332
2336.037496015242 2072.8359473934806
2336.6178906385667 1905.7906641664686
2337.198144876451 1810.3565028763564
2337.778258760278 1929.1281442045045
2338.3582323214214 1803.4479625361903
2338.938065591243 1677.4303869091273
2339.517758601087 2128.5582115735106
2340.0973113822965 1872.3898333180987
2340.676723966193 1734.62974576623
2341.255996384094 1746.7657933009818
2341.835128667295 2116.7029286530383
2342.4141208470883 1864.5135937452665
2342.992972954751 1745.1790148506075
2343.5716850215467 1372.4602591202313
2344.1502570787306 998.9565483635976
2344.7286891575386 1375.0925621157792
2345.3069812892045 1630.9867134297428
2345.885133504944 1887.186465596185
2346.4631458359618 1477.6281364541198
2347.04101831345 1443.7601481975742
2347.6187509685915 1348.770980888311
2348.196343832553 1492.6354574612703
2348.7737969364935 1416.7376999094563
2349.351110311558 1340.7751536302535
2349.9282839888765 1376.614086454863
2350.5053179995757 1384.5804667236787
2351.0822123747585 1186.0859994851342
2351.658967145526 1275.5123687548341
2352.2355823429643 1365.1636642616834
2352.812057998144 1847.275906323544
2353.3883941421263 1569.7781105269285
2353.9645908059647 1893.1805108563108
2354.540648020693 1592.4230009710607
2355.116565817336 1826.7743126165747
2355.6923442269126 1410.6803778337382
2356.2679832804224 1602.9702260874828
2356.8434830088518 1670.1062294155993
2357.41884344318 1801.0295137371318
2357.994064614377 1483.0395033032032
