#exp_cfg={"servo_angle": 0.0, "laser_lim": 100.0, "servo_angle_to": 18.0, "laser_wup": 0.0, "bt_dev": "EnSpectr-25AE3", "laser_wdn_max": 0.0, "frames": 10.0, "servo_used": 0, "servo_calib_use": 0, "laser_wdn_min": 0.0, "servo_pix_from": 90.0, "cooler_tout": 300.0, "servo_angle_from": 0.0, "servo_calib": "[-1.9174921013161362e-09, 3.9322238269163779e-05, -0.27385609119055809, 653.59552119713567]", "laser_autoctl": 0, "servo_pix_to": 3682.0, "laser_pw": 100.0, "cooler_on": 0, "laser_volt": 4.0, "cooler_autoctl": 0, "cooler_curr": 70.0, "cooler_startup": 10.0, "laser_fixed_pw": 0, "gain": 1.3, "offset": 2.53059635486, "servo_calib_degree": 3.0, "laser_curr": 55.0, "shutter": 8200.0, "servo_calib_step": 1.0, "laser_fixed_curr": 0, "exp": 2000.0, "ccd_volt": 4.7, "bt_addr": "00:06:66:62:5A:E3", "servo_delay": 500.0, "laser_autooff": 1}
#proc_cfg={"flat_auto_wnd": 200.0, "flat_auto_fr": 200.0, "flat_auto_shift": 5.0, "yconv": 1, "flatten": 1, "flatten_strength": 100.0, "xfrom": 300.0, "auto_max_frame": 2000.0, "auto_signal": 48000.0, "flat_auto_tol": 0.1, "autoclip": 1, "xrel_range": 0.0, "flat_auto_to": 4000.0, "intensity_adj": 1.0, "xrel": 7852.0, "rmhot": 1, "flat_auto_slit": 4.999999999999997, "auto_ini_exp": 300.0, "auto_off": 0, "xto": 2860.0, "flat_auto_ref": "", "flat_auto_rank": 1, "autobackg": 0, "xrel_adj": 0.0, "auto_black_lvl": 1, "base_wnd": 100.0, "sub_baseline": 0, "xconv": 2, "auto_max_exp": 1000.0, "auto_total_exp": 10000.0, "auto_exp": 0, "rmripple": 0, "black_lvl": 8249.45, "shutter_clip_adj": 0.0, "auto_bckg": 0, "flat_auto_thr": 0.9, "subbackg": 1}
316.8218498245369 11761.844330084148
317.89969571804795 11625.315905427045
318.977263876126 11612.87634797328
320.05455438786703 11480.102356121195
321.1315673423287 11473.017128868978
322.2083028285215 11440.939599599671
323.2847609354267 11314.347937395594
324.3609417519747 11237.860931426556
325.43684536705587 11163.210917875891
326.5124718695279 11120.724832180602
327.58782134820103 11033.58440766838
328.66289389184385 11054.747430435255
329.7376895891921 10887.05239044123
330.8122085289342 10924.707121071873
331.88645079971866 10869.867871865894
332.9604164901575 10723.608520608479
334.03410568881554 10704.291605201925
335.1075184842266 10741.969818404154
336.18065496487543 10616.198218336674
337.2535152192122 10581.830361244849
338.32609933564163 10529.907839529962
339.39840740253203 10577.608986586778
340.4704395082099 10469.197917928625
341.5421957409617 10408.033031810883
342.6136761890357 10483.27614145422
343.6848809406365 10346.525295157733
344.75581008392874 10345.085091864392
345.82646370703696 10258.889035893497
346.8968418980512 10315.306830207666
347.96694474501055 10335.160551372297
349.0367723359268 10263.888471706767
350.106324758759 10275.812015251893
351.1756021014353 10251.6519873895
352.2446044518383 10178.353622630191
353.31333189781435 10284.363908729742
354.38178452716966 10228.735073658878
355.449962427665 10275.523787725508
356.51786568702846 10126.878287612597
357.58549439294256 10269.404921355946
358.6528486330535 10308.1905425408
359.71992849496564 10222.752557294581
360.7867340662433 10269.064212050282
361.8532654344144 10279.583028339042
362.9195226869597 10310.32379170512
363.9855059113288 10259.863503314516
365.05121519492604 10232.86403279166
366.11665062511565 10309.525310657791
367.1818122892273 10320.420508300553
368.2467002745434 10402.226892117898
369.31131466831175 10386.982821622038
370.375655557742 10396.230966876607
371.4397230299983 10398.562677869915
372.5035171722102 10389.737770942827
373.5670380714637 10411.618612794318
374.6302858148101 10479.659360543312
375.6932604892554 10478.288599842617
376.7559621817709 10501.22025514329
377.81839097928605 10485.841205816625
378.8805469686886 10445.079207567012
379.94243023683157 10579.301957156847
381.0040408705263 10421.844765536833
382.0653789565458 10394.653254351942
383.1264445816196 10475.048345017918
384.1872378324406 10433.854008176224
385.2477587956637 10420.307285477973
386.3080075579037 10434.8904889843
387.3679842057336 10357.877915199302
388.4276888256918 10443.6784492243
389.48712150426945 10369.758536084813
390.54628232792857 10365.045529470724
391.6051713830857 10293.849964681573
392.66378875611736 10357.474849502507
393.7221345333637 10315.729786751164
394.7802088011249 10277.240039024025
395.838011645661 10320.431871953131
396.89554315319765 10237.001796773864
397.9528034099112 10165.850020899974
399.00979250194723 10081.583861059333
400.06651051541485 10148.254888899835
401.1229575363741 10171.4615173345
402.17913365085224 10094.832095769827
403.23503894483656 10116.012704185552
404.2906735042761 9988.649604273565
405.3460374150818 9918.617819639647
406.401130763119 9996.195201899935
407.455953634224 9931.139727948666
408.5105061141876 9874.469504555116
409.56478828876243 9769.387555012221
410.6188002436629 9788.911099800398
411.6725420645689 9743.423348057013
412.72601383711117 9693.115335760147
413.77921564689314 9763.316308637237
414.8321475794728 9691.588751665546
415.88480972036814 9600.029238259662
416.93720215506437 9504.685136491657
417.9893249690049 9523.990238836896
419.04117824759123 9502.454396752582
420.09276207619223 9485.496033281646
421.144076540133 9493.346334435835
422.1951217247042 9408.803261939018
423.24589771515275 9380.670237629189
424.2964045966928 9447.994435925406
425.34664245449494 9408.888241989753
426.3966113736933 9300.56656524584
427.4463114393875 9295.832421647898
428.49574273662984 9258.72247845071
429.5449053504417 9203.906379956143
430.5937993658026 9274.39374598217
431.6424248676558 9179.22648200439
432.6907819409007 9181.253923010085
433.73887067040596 9201.071612377284
434.7866911409965 9166.864746984098
435.8342434374608 9144.517776050907
436.88152764455117 9137.803809750918
437.9285438469724 9049.849525400085
438.9752921294057 9068.164395906555
440.02177257648145 9085.515457910873
441.06798527279716 8959.503273981998
442.1139303029122 9041.82719670219
443.1596077513459 9230.282792190552
444.2050177025794 8989.861019961925
445.25016024105753 8977.007452702801
446.2950354511886 8993.004191743852
447.33964341733736 9048.859932441392
448.383984223834 8965.901877869373
449.4280579549686 8949.654499909326
450.471864694995 8943.188011204704
451.5154045281306 8939.047951412189
452.5586775385509 8961.867030382009
453.60168381039693 8858.74408140144
454.64442342776783 9007.98444301241
455.6868964747264 8869.045207700934
456.7291030353008 8853.79303012742
457.77104319347563 8923.282727150148
458.8127170332027 8834.190834969137
459.854124638392 8851.147000713421
460.895266092919 8931.115462003885
461.93614148061897 8951.94244867721
462.97675088529104 8976.539573387428
464.01709439069236 8946.200890362195
465.0571720805492 8969.494213207827
466.0969840385442 8991.738925559703
467.1365303483253 9065.662499024014
468.17581109350067 9066.519819949372
469.2148263576437 9028.506544123455
470.2535762242878 9077.865730212858
471.29206077693016 9115.85010941458
472.33028009902773 9237.218198024053
473.3682342740012 9215.130435016634
474.40592338523857 9349.931129192148
475.4433475160804 9396.62723256102
476.4805067498364 9474.351820503642
477.51740116978 9547.579609890525
478.5540308591426 9660.602495905696
479.59039590112116 9904.370069525423
480.6264963788726 9991.046798709496
481.6623323755193 10173.651115653385
482.6979039741436 10308.787186687274
483.7332112577915 10570.522530621143
484.76825430947247 10937.115941000751
485.80303321215797 10995.97595875486
486.837548048783 11186.918069348189
487.8717989022425 11442.057611068218
488.90578585539697 11584.08244462147
489.9395089910686 11735.168634063073
490.97296839203955 11730.18551376164
492.00616414106116 11704.797088206915
493.0390963208429 11609.231277981607
494.0717650140559 11647.524206463973
495.10417030333883 11412.616816412528
496.1363122712901 11382.852479137575
497.16819100046814 11039.732183564021
498.1998065734024 10717.918533144912
499.2311590725767 10715.798800528722
500.26224858044407 10357.200047803648
501.2930751794156 10207.991436507511
502.3236389518679 10102.688542456404
503.35393998014115 9882.478755519756
504.38397834653733 9792.574824687093
505.4137541333221 9730.99875843048
506.4432674227228 9638.088800054276
507.4725182969323 9451.054328958473
508.5015068381035 9441.814012944818
509.53023312835467 9381.696312602153
510.55869724976765 9291.695018277336
511.58689928438434 9250.387574465305
512.6148393142121 9188.631295435787
513.6425174212218 9276.975580264632
514.6699336873462 9272.125619905728
515.6970881944835 9208.658076625481
516.7239810244901 9118.769935552273
517.7506122591931 9165.316187199369
518.7769819803761 9089.318624766991
519.8030902697901 9201.68837617093
520.8289372091476 9156.55439977623
521.8545228801249 9222.772161665951
522.8798473643619 9199.291605013143
523.9049107434621 9139.469212337122
524.9297130989908 9184.536178930835
525.9542545124805 9055.704284085354
526.9785350654201 9098.677150644417
528.0025548392696 9115.21362481103
529.0263139154504 8999.201502784734
530.0498123753423 8964.16253384446
531.073050300296 8923.2997755867
532.0960277716204 8900.532940314735
533.1187448705896 8895.23009630914
534.1412016784416 8813.353167720477
535.1633982763833 8730.787894426958
536.1853347455726 8769.911237210985
537.2070111671401 8692.055419508904
538.2284276221817 8650.113108424604
539.2495841917516 8576.765998480672
540.2704809568677 8511.922105190886
541.2911179985167 8560.03018605163
542.3114953976419 8420.37837221683
543.3316132351592 8432.066166303892
544.3514715919409 8329.11202339987
545.3710705488247 8377.448645456021
546.3904101866156 8394.77690285434
547.4094905860784 8297.384398878869
548.4283118279418 8350.452086938802
549.4468739929034 8308.578578602723
550.4651771616191 8228.917011890613
551.4832214147063 8203.763094594213
552.501006832761 8265.15893974646
553.5185334963226 8189.366702302568
554.5358014859103 8260.683227988138
555.5528108820035 8201.382598589727
556.5695617650363 8196.71158585121
557.5860542154242 8229.998946753656
558.6022883135283 8183.322087176284
559.6182641396881 8103.054373419587
560.6339817741991 8181.14964565341
561.6494412973225 8266.839903558794
562.6646427892883 8274.179059010225
563.6795863302796 8203.071666081913
564.694272000459 8142.420999161147
565.7086998799423 8287.294525156052
566.7228700488104 8214.81231095543
567.7367825871115 8211.975720884127
568.7504375748576 8277.46313892888
569.7638350920224 8241.799567135115
570.7769752185486 8306.452499900579
571.7898580343353 8369.076857467955
572.802483619258 8303.869937265927
573.8148520531431 8444.15476856061
574.8269634157932 8527.679114476578
575.8388177869692 8466.992656757651
576.8504152463938 8585.145439101414
577.8617558737587 8817.168294777779
578.8728397487175 8778.972118647189
579.883666950891 8899.815151348614
580.8942375598654 9101.004912017293
581.9045516551851 9162.212008639683
582.9146093163617 9415.566858282647
583.924410622878 9343.026900399902
584.9339556541727 9441.716251806103
585.9432444896538 9495.568216553735
586.9522772086875 9717.05428823041
587.9610538906127 9566.337449739378
588.9695746147318 9466.998883286975
589.9778394603054 9557.274051914563
590.985848506567 9360.63703701526
591.9936018327098 9352.45137933447
593.0010995178891 9189.326323499057
594.0083416412344 9189.191563738977
595.0153282818283 9106.444469896418
596.0220595187293 8951.529594103655
597.0285354309508 8923.553339390059
598.0347560974806 8838.770826378164
599.0407215972609 8777.008412726205
600.0464320092051 8752.158235786383
601.0518874121954 8660.52679678261
602.0570878850685 8677.655297565016
603.062033506636 8679.691518421607
604.0667243556636 8652.19602431581
605.0711605108936 8579.845572970535
606.0753420510264 8798.924237542158
607.0792690547278 8711.776414164247
608.082941600629 8659.699859119137
609.0863597673306 8707.91535089796
610.0895236333909 8821.260424113376
611.0924332773357 8987.642077626657
612.0950887776617 8929.102936214793
613.0974902128219 9036.755610965363
614.0996376612384 9260.25502777237
615.1015312013005 9337.559601265944
616.1031709113595 9524.75887818943
617.1045568697336 9539.41468750474
618.1056891547069 9834.049945839175
619.1065678445229 10016.003160727263
620.1071930173985 10342.109647619905
621.1075647515099 10464.43666926744
622.1076831250048 10747.65267623176
623.1075482159849 10988.917985263413
624.1071601025305 11246.099650053085
625.1065188626781 11519.967931633699
626.105624574433 11835.623769789918
627.1044773157682 12033.095078780829
628.1030771646128 12202.459559790575
629.1014241988742 12415.060852622853
630.0995184964158 12546.01202293738
631.0973601350688 12761.224695462548
632.0949491926294 12899.881015498448
633.0922857468631 12777.713282587558
634.089369875499 12790.81263432955
635.0862016562278 12845.57888972925
636.0827811667077 12617.150996784016
637.0791084845641 12606.163339138977
638.0751836873878 12466.289618703277
639.0710068527369 12283.648987236153
640.0665780581294 11937.888648781947
641.0618973810506 11660.43364425449
642.0569648989604 11609.71760926799
643.0517806892676 11163.541946031595
644.0463448293649 11012.184128666653
645.040657396592 10781.628025122835
646.0347184682723 10541.27582520939
647.0285281216875 10275.099688566394
648.0220864340772 10059.041118379339
649.0153934826558 9789.617764505465
650.0084493446047 9678.014010178607
651.0012540970674 9567.531532284984
651.9938078171526 9338.535251489842
652.9861105819346 9184.797331434103
653.9781624684565 9140.281412460748
654.9699635537254 8940.62822493726
655.9615139147136 8825.147223462987
656.9528136283589 8690.784504523155
657.9438627715699 8703.422657484363
658.9346614212154 8601.238619028076
659.925209654135 8380.755748183354
660.9155075471263 8442.518453436149
661.9055551769616 8455.896286777159
662.895352620375 8460.24207236958
663.8848999540678 8298.723127837618
664.8741972547068 8220.303719198582
665.863244598926 8215.180306223752
666.8520420633213 8270.487629727459
667.8405897244611 8107.898912255846
668.8288876588758 8115.752865654356
669.8169359430613 8167.143597418079
670.8047346534822 8105.214426974239
671.7922838665672 8020.797546101999
672.7795836587156 8030.784590282693
673.766634106285 8159.6972479018
674.7534352856092 8022.10406718698
675.7399872729766 8008.49581463708
676.7262901446538 8034.040653947572
677.712343976862 8071.821372472796
678.6981488457986 8145.3019575548315
679.6837048276229 7987.840965966241
680.6690119984596 8032.13455207846
681.6540704344043 8013.5872544021595
682.6388802115107 7937.855067423181
683.6234414058108 8055.663736992063
684.6077540932874 7925.189022704527
685.591818349907 7974.241734295252
686.575634251587 7874.1877604608135
687.5592018742263 7834.320441279527
688.5425212936734 7753.337824084161
689.5255925857564 7826.891163674966
690.5084158262707 7837.37365250287
691.4909910909646 7829.951328596893
692.4733184555644 7758.245026912386
693.4553979957618 7821.817235751369
694.4372297872123 7735.410101119922
695.4188139055404 7768.913739016207
696.4001504263324 7646.39749837522
697.3812394251509 7766.484388829219
698.3620809775111 7688.332094230458
699.3426751589104 7709.525980251679
700.3230220448004 7617.5623199037345
701.3031217106054 7610.391631692624
702.2829742317172 7679.042708216672
703.2625796834873 7567.905897697373
704.2419381412474 7509.575453321154
705.22104968028 7566.41071359479
706.1999143758458 7584.224494347671
707.178532303169 7462.429259119564
708.1569035374378 7525.4548602910145
709.1350281538107 7516.107995071718
710.1129062274158 7520.37813296999
711.0905378333373 7688.394147811099
712.0679230466376 7625.405773183627
713.0450619423427 7783.571827886646
714.0219545954424 7855.586412339454
714.9986010808989 7737.035185310058
715.9750014736292 7788.057469793593
716.9511558485392 7854.442351689509
717.9270642804786 7984.138783552733
718.9027268442787 7982.680452871515
719.8781436147328 7970.99798695616
720.8533146666014 7968.10361851964
721.828240074612 7998.992970441966
722.8029199134635 7970.575606766526
723.7773542578125 7961.205980546021
724.751543182294 7923.329981852582
725.7254867615029 7936.6090745905385
726.6991850700015 7776.104435412727
727.6726381823228 7778.441152887291
728.6458461729599 7778.477053251496
729.6188091163858 7719.407333531899
730.5915270870246 7786.045811748646
731.5640001592856 7696.738241042367
732.536228407529 7681.086396312237
733.5082119060917 7702.942504377534
734.4799507292755 7660.281044186767
735.4514449513481 7649.161724837328
736.4226946465496 7777.318113455998
737.3936998890786 7807.282238939986
738.3644607531078 7699.754337299057
739.3349773127793 7704.520463329233
740.3052496421951 7781.435837440115
741.27527781543 7717.121515267715
742.2450619065221 7624.998433943214
743.2146019894826 7704.873899957772
744.183898138288 7611.0106737098595
745.1529504268801 7587.092335207293
746.1217589291682 7504.360673501546
747.0903237190341 7506.155207652426
748.058644870318 7528.501065881746
749.0267224568397 7480.316706492998
749.994556552374 7438.780651777476
750.9621472306771 7482.995097485373
751.9294945654583 7424.670111936439
752.8965986304011 7520.850268455348
753.8634594991636 7392.13310339254
754.8300772453586 7495.45989943345
755.7964519425768 7414.264160238081
756.762583664371 7555.751828165043
757.7284724842611 7553.480259980664
758.6941184757416 7429.364205810023
759.6595217122667 7505.237634488522
760.6246822672638 7528.191251731978
761.5896002141235 7383.294945747026
762.5542756262093 7421.816443536767
763.5187085768503 7486.95052578216
764.4828991393406 7386.408932247408
765.4468473869474 7394.011960885595
766.4105533929032 7352.3534177944575
767.3740172304078 7336.368963618314
768.3372389726283 7380.302329680111
769.3002186926988 7205.593880681887
770.2629564637282 7219.3257917224955
771.2254523587872 7079.397386100796
772.1877064509154 7102.363246259083
773.1497188131179 7025.380915642791
774.1114895183728 7005.822741417929
775.0730186396268 6962.657885300197
776.0343062497905 6939.380417605718
776.9953524217381 6869.606442123692
777.9561572283274 6971.722535980099
778.9167207423689 6924.516473955957
779.8770430366476 6833.749247127763
780.8371241839159 6852.93513212151
781.7969642568951 6904.0790048838335
782.7565633282757 7055.506523024514
783.7159214707099 6904.663169819365
784.6750387568281 6933.74063287405
785.6339152592227 6925.958475258677
786.5925510504512 6892.801518613363
787.5509462030477 6976.723523268127
788.5091007895098 6921.082654338806
789.4670148823006 6964.2283860402695
790.4246885538596 6993.612832882549
791.3821218765861 7009.548573996324
792.3393149228505 6941.403265912168
793.2962677649975 7059.395882261919
794.2529804753303 7065.927112634839
795.20945312613 7050.193975258546
796.1656857896378 7051.412562113231
797.1216785380675 7140.4943879933435
798.0774314435985 7221.073188202843
799.0329445783846 7400.190733490094
799.9882180145414 7416.835416584925
800.9432518241574 7476.131081748768
801.89804607929 7622.952721880836
802.852600851962 7790.973047209749
803.8069162141637 7721.15607897056
804.760992237856 7916.636641748945
805.714828994971 7971.068522978452
806.6684265574077 8045.292686519986
807.6217849970271 7961.461100008327
808.574904385674 7926.580024809688
809.527784795142 8031.584280902741
810.4804262972102 8040.858408356416
811.4328289636178 7853.051921963146
812.3849928660748 7656.843503591677
813.3369180762638 7675.015723080018
814.2886046658241 7663.049873648063
815.2400527063783 7433.985777899135
816.1912622695108 7342.290758960963
817.1422334267718 7268.934450104205
818.0929662496856 7068.885429720131
819.0434608097457 6953.639005448662
819.9937171784059 6976.823138427471
820.9437354271013 6836.457502728796
821.8935156272255 6811.976683336727
822.8430578501484 6704.696785217033
823.7923621672016 6547.630692096136
824.7414286496896 6626.375527853273
825.6902573688876 6619.909144577333
826.6388483960363 6549.073242179373
827.5872018023492 6524.32828094405
828.5353176590033 6581.3030083863505
829.4831960371503 6426.293916027256
830.4308370079016 6471.204753718129
831.3782406423525 6443.510220688704
832.3254070115545 6457.940078440837
833.2723361865319 6481.3469815231265
834.2190282382799 6348.569531540354
835.1654832377644 6480.187845593392
836.1117012559116 6402.714928430207
837.0576823636256 6451.259269964069
838.003426631778 6292.897779879774
838.9489341312074 6337.867927651723
839.8942049327197 6452.774793754697
840.8392391070975 6464.887938689583
841.7840367250865 6308.543924999181
842.7285978573982 6320.994144375443
843.672922574724 6433.3817066079155
844.6170109477152 6376.401721147011
845.560863046996 6310.357429504393
846.5044789431595 6303.654568777785
847.4478587067697 6272.835824238411
848.3910024083561 6397.072500941227
849.333910118421 6325.352671323992
850.2765819074339 6216.457084757721
851.2190178458332 6360.225522785071
852.161218004032 6290.875288844604
853.1031824524016 6379.722198714527
854.0449112612987 6315.178250792627
854.9864045010327 6409.577254870703
855.9276622418947 6263.416674521689
856.8686845541379 6387.595379099642
857.8094715079915 6372.08160296612
858.7500231736467 6437.670368764499
859.690339621271 6467.435687341167
860.6304209209939 6429.137229429924
861.5702671429244 6383.248236294954
862.5098783571284 6490.786363535989
863.4492546336569 6509.168813559322
864.3883960425155 6471.543390729761
865.3273026536863 6479.89233213223
866.2659745371238 6548.992118708005
867.2044117627465 6653.712397708968
868.1426144004472 6610.416795263962
869.0805825200823 6702.762244220021
870.0183161914847 6795.655193269757
870.9558154844526 6829.164666614134
871.8930804687552 6810.960621156337
872.8301112141307 6884.134995682252
873.7669077902865 6978.256961819151
874.7034702669062 7109.6642193665275
875.6397987136315 7068.728096334971
876.5758932000863 7131.906840831946
877.5117537958522 7197.5299689386065
878.4473805704911 7168.363607727835
879.3827735935283 7226.730321154186
880.3179329344603 7318.830213601299
881.2528586627541 7391.972844702187
882.1875508478479 7419.013554113904
883.1220095591489 7305.704023484359
884.0562348660296 7308.14217067854
884.9902268378391 7307.792498536231
885.9239855438955 7394.719145046457
886.8575110534839 7229.3545164835905
887.7908034358588 7160.515977678272
888.7238627602474 7162.7830620651675
889.6566890958475 7155.66935493831
890.5892825118208 6995.042706252876
891.5216430773125 7024.5798667839435
892.4537708614189 6966.456340955357
893.3856659332196 6864.75770029909
894.3173283617652 6736.724236970198
895.2487582160684 6747.282477698607
896.179955565116 6690.487513955352
897.110920477864 6601.081349241771
898.0416530232451 6539.163626504501
898.9721532701478 6467.371596912376
899.9024212874428 6516.4565242306035
900.8324571439662 6370.416168589551
901.7622609085302 6367.30855932219
902.6918326499072 6244.540947370753
903.6211724368477 6295.400641450488
904.5502803380696 6337.356020484835
905.4791564222614 6314.827708937947
906.4078007580792 6122.152915764046
907.3362134141571 6161.879770516338
908.2643944590909 6237.143949944668
909.1923439614493 6132.3705010624835
910.1200619897754 6123.984131675062
911.0475486125779 6175.526540028059
911.9748038983344 6125.575594764905
912.9018279155007 6064.248613698872
913.8286207324982 6054.6113536369985
914.7551824177117 6045.959291076639
915.6815130395116 6024.897032232098
916.6076126662283 5978.921326713225
917.533481366163 6073.707538858824
918.4591192075914 6009.635542942176
919.3845262587565 6149.608997533732
920.3097025878706 5995.44671426735
921.2346482631237 6005.7371804272025
922.1593633526682 6008.113933285301
923.0838479246304 6050.484962079053
924.0081020471061 6105.5456893399
924.9321257881656 5929.2474609387145
925.8559192158464 5901.297554389499
926.7794823981512 5964.084916031374
927.7028154030686 5952.783398911296
928.6259182985414 5938.676469718997
929.5487911524906 6041.228262929337
930.4714340328119 5995.192008403508
931.3938470073608 5914.822955585987
932.3160301439748 5948.630327003768
933.2379835104548 5941.496485476278
934.1597071745709 5963.918823693874
935.0812012040769 5940.928521084127
936.002465666681 6008.230333655406
936.9235006300696 5969.576696700306
937.8443061619055 5910.63644789119
938.7648823298077 5862.973716649677
939.6852292013809 5866.7175231246165
940.6053468441951 5953.134766065708
941.5252353257874 5866.931046151524
942.4448947136698 5906.063473616614
943.364325075323 5852.770975986662
944.2835264782043 5852.978006846097
945.2024989897309 5858.327168530655
946.1212426773054 5919.138766301835
947.0397576082851 5898.030103986157
947.9580438500125 6013.215803073642
948.8761014697939 5896.510460860719
949.7939305349064 5924.018334556339
950.7115311125999 5868.7210203318755
951.6289032700952 5837.544970744921
952.5460470745875 5945.442154814377
953.4629625932339 5835.1163977178785
954.3796498931715 5901.017493870732
955.2961090415029 5879.3883077912515
956.2123401053068 5866.29822829162
957.1283431516276 5855.173624413717
958.0441182474842 5821.8528051596495
958.9596654598663 5934.504173889331
959.8749848557309 5812.397631726779
960.7900765020167 5735.245229210044
961.7049404656209 5760.68494238954
962.6195768134185 5808.690491137401
963.5339856122537 5831.844224049715
964.4481669289453 5871.708571169327
965.3621208302793 5797.43498728388
966.2758473830145 5804.9374772519095
967.1893466538822 5905.108384320339
968.1026187095813 5860.954430197418
969.0156636167867 5768.925844289497
969.9284814421426 5906.411921051998
970.8410722522622 5752.039304539924
971.753436113735 5686.198879504506
972.6655730931161 5784.227837986013
973.5774832569368 5816.779134673868
974.4891666716958 5825.678728300486
975.4006234038698 5855.975723701604
976.3118535198955 5794.731614729815
977.2228570861935 5824.811492164372
978.1336341691494 5908.557661681207
979.0441848351202 5751.9898863518365
979.9545091504333 5921.795129335756
980.864607181391 5870.730276854965
981.7744789942699 5903.577424147161
982.6841246553086 5875.338523235308
983.5935442307236 5878.0446945447875
984.5027377867027 5940.639508758019
985.4117053894024 5903.625721022114
986.3204471049557 5824.268703820251
987.2289629994648 5998.249894456671
988.1372531390007 6010.123462541766
989.0453175896091 5955.673974480107
989.9531564173067 6020.88481782495
990.860769688079 5866.467446676228
991.7681574678918 5966.443596276159
992.6753198226706 6016.370780375748
993.582256818323 5957.123071335014
994.4889685207218 6041.082054792634
995.3954549957143 6170.070044722316
996.301716309119 6087.003994758683
997.2077525267232 6085.01830812183
998.1135637142943 6096.171631114865
999.0191499375615 6262.315603319816
999.924511262232 6297.916943197988
1000.8296477539861 6256.689506458027
1001.7345594784656 6288.91365891173
1002.6392465012996 6246.773473629184
1003.5437088880753 6332.862713364868
1004.4479467043584 6351.798829956982
1005.3519600156869 6225.291788677116
1006.2557488875718 6403.742624297602
1007.1593133854858 6336.223812659684
1008.0626535748888 6286.452853985845
1008.9657695212009 6206.0619429470025
1009.8686612898182 6419.4918856415425
1010.7713289461135 6430.014253713614
1011.6737725554212 6249.51230692576
1012.5759921830577 6279.707349158123
1013.4779878943027 6298.063748676858
1014.379759754418 6302.6795756501515
1015.2813078286254 6208.857884432569
1016.18263218213 6171.424843935554
1017.0837328801026 6188.814450830312
1017.9846099876886 6202.638818704794
1018.8852635700023 6129.246692076949
1019.7856936921362 6061.54623835139
1020.6859004191447 6204.840833010716
1021.5858838160675 6084.72626575913
1022.4856439479063 6008.09543309535
1023.3851808796389 5995.779040971638
1024.2844946762143 6035.815164347615
1025.183585402554 6010.211613387294
1026.082453123554 5794.0698832996595
1026.9810979040776 5921.537383680237
1027.8795198089647 5868.486721997174
1028.777718903024 5826.026674112308
1029.6756952510368 5859.104521956876
1030.5734489177648 5775.74272060579
1031.4709799679313 5809.8613774460155
1032.3682884662358 5878.826216212237
1033.2653744773506 5721.621870744353
1034.1622380659192 5732.889986840119
1035.058879296559 5839.31120164889
1035.9552982338591 5818.269921942826
1036.8514949423825 5763.8256863327
1037.7474694866614 5776.106322650837
1038.6432219312028 5725.00293256703
1039.5387523404825 5957.627229335218
1040.4340607789582 5772.17988915424
1041.3291473110476 5786.752469754807
1042.2240120011465 5880.191956089949
1043.1186549136273 5879.105372754068
1044.0130761128294 5894.722899988972
1044.9072756630649 5803.48552010596
1045.8012536286205 5984.336523677109
1046.6950100737577 5932.1070170520115
1047.588545062701 6040.117744501141
1048.481858659663 6045.228002960028
1049.3749509288118 6085.946859123336
1050.2678219343034 6027.213417152136
1051.1604717402515 6092.40738487672
1052.0529004107575 6010.7729864834155
1052.9451080098825 6184.434135845566
1053.8370946016694 6127.8360517618075
1054.7288602501267 6068.328431107961
1055.6204050192446 6136.265909083874
1056.511728972977 6179.081288504673
1057.402832175254 6147.714298481423
1058.2937146899785 6123.326543551638
1059.1843765810263 6122.508752283561
1060.0748179122456 6168.902241283618
1060.9650387474576 6199.702754931589
1061.855039150456 6200.67698389138
1062.7448191850071 6218.57486506415
1063.6343789148505 6191.157365126885
1064.5237184037014 6315.251077032795
1065.412837715241 6211.962364437514
1066.3017369131267 6261.976768040982
1067.190416060992 6163.256478318704
1068.0788752224398 6146.649236715935
1068.9671144610438 6172.786579878458
1069.8551338403558 6134.479925715369
1070.7429334239023 6185.406916090091
1071.6305132751695 6067.0779152993555
1072.517873457633 6081.692013391872
1073.4050140347335 5983.707864220879
1074.2919350698776 6092.526880298311
1075.1786366264623 6034.286180828812
1076.0651187678395 5975.418552808568
1076.95138155735 5882.8186005647185
1077.8374250582929 5906.191009965829
1078.7232493339507 5925.0653349341965
1079.608854447577 5801.209741602571
1080.4942404623907 5812.2474936189465
1081.3794074415982 5765.048206647336
1082.2643554483657 5812.040356048297
1083.149084545841 5689.399597728555
1084.033594797138 5618.284844003561
1084.9178862653516 5676.977935006358
1085.8019590135427 5719.302171880647
1086.6858131047484 5573.997543219506
1087.5694486019802 5637.735773062433
1088.4528655682225 5594.3590607062815
1089.3360640664287 5553.156659746816
1090.2190441595321 5553.838090899373
1091.1018059104317 5619.296474457848
1091.98434938201 5639.162072174217
1092.866674637111 5690.950388923035
1093.748781738559 5493.9129211817835
1094.6306707491512 5422.123613281223
1095.5123417316554 5576.107517570837
1096.3937947488157 5569.568072597279
1097.2750298633455 5462.248170044064
1098.156047137938 5402.2044388910135
1099.0368466352556 5593.454585531831
1099.9174284179317 5620.554597861981
1100.7977925485757 5412.248696728677
1101.6779390897755 5516.24327847587
1102.5578681040806 5561.641619073765
1103.4375796540226 5535.417352147871
1104.3170738021054 5554.095999159774
1105.1963506108077 5508.871518185673
1106.0754101425773 5564.559643912674
1106.9542524598382 5544.317614225972
1107.8328776249855 5534.801683550062
1108.7112857003904 5637.09284673481
1109.5894767483987 5702.698949250083
1110.4674508313292 5765.670580165147
1111.3452080114657 5643.849812466665
1112.2227483510815 5796.517750451874
1113.1000719124077 5941.658809516414
1113.9771787576592 6041.311955417437
1114.854068949022 5968.817376495821
1115.7307425486542 6048.009176662708
1116.6071996186893 6150.984950769601
1117.483440221229 6347.564730630932
1118.3594644183577 6283.046360665764
1119.235272272128 6390.417296437609
1120.1108638445658 6503.778787600537
1120.9862391976712 6742.660827858113
1121.8613983934229 6704.089973938391
1122.7363414937627 6914.793776314237
1123.6110685606182 6918.374062765982
1124.485579655884 7195.986226955012
1125.359874841426 7148.13570922283
1126.2339541790916 7229.23892242117
1127.1078177306936 7405.998300656832
1127.9814655580267 7347.182293147028
1128.854897722851 7461.4024879835415
1129.7281142869106 7459.165350500683
1130.6011153119125 7491.318314058539
1131.473900859548 7652.650791266313
1132.3464709914697 7516.999888092008
1133.2188257693178 7484.904870806642
1134.0909652546961 7451.904528114406
1134.96288950919 7279.166052560237
1135.8345985943506 7390.789413310458
1136.7060925717087 7209.225858157367
1137.57737150277 7187.570363791313
1138.4484354490069 7177.631571993026
1139.3192844718778 7018.898413298416
1140.1899186327992 6753.6919795030135
1141.060337993178 6852.539511916142
1141.930542614382 6745.790843967034
1142.8005325577597 6480.310932906976
1143.670307884635 6479.598970620674
1144.5398686563003 6424.044502934238
1145.409214934025 6363.463250754548
1146.2783467790541 6172.773057351385
1147.1472642526023 6155.870722485621
1148.0159674158622 6099.382469584993
1148.8844563300026 5992.189443969116
1149.7527310561618 5862.023057784567
1150.6207916554504 5810.370981566444
1151.4886381889592 5627.3921277455265
1152.3562707177498 5721.327805685041
1153.2236893028585 5600.043659943629
1154.090894005296 5617.4757318670145
1154.9578848860474 5565.929061604572
1155.8246620060709 5500.578054284408
1156.6912254262988 5343.291172879058
1157.5575752076438 5373.368381666531
1158.42371141098 5436.331068558804
1159.2896340971656 5450.979957845081
1160.1553433270346 5266.525730325032
1161.0208391613887 5353.208362554634
1161.8861216610057 5276.9611629388255
1162.75119088664 5336.268093818937
1163.6160468990201 5220.382174534059
1164.4806897588442 5248.701420686988
1165.3451195267917 5262.725660710722
1166.2093362635114 5207.90536374914
1167.0733400296285 5267.950445716156
1167.9371308857444 5180.743230428298
1168.8007088924278 5213.091700797933
1169.6640741102328 5228.896973904901
1170.5272265996773 5132.526311893115
1171.390166421259 5081.879297808317
1172.252893635452 5201.792209644333
1173.1154083026995 5290.010277219117
1173.977710483421 5261.954524418092
1174.8398002380145 5088.92506339061
1175.7016776268483 5214.01738483468
1176.563342710264 5185.900452708523
1177.4247955485826 5101.537377700411
1178.2860362020947 5156.765061491538
1179.147064731069 5102.071520374607
1180.0078811957483 5207.5141951858795
1180.8684856563486 5212.80078684239
1181.7288781730604 5216.583268060567
1182.589058806052 5330.566120288454
1183.4490276154593 5446.458353584698
1184.3087846614017 5238.924230279166
1185.1683300039676 5407.4852336561835
1186.027663703222 5608.7413492777105
1186.8867858192025 5418.7439942805995
1187.7456964119228 5464.507316400266
1188.6043955413716 5560.957851198396
1189.4628832675116 5701.9584114794225
1190.3211596502842 5835.756318745572
1191.179224749596 5695.111658084691
1192.0370786253388 5716.799734927682
1192.8947213373758 5854.167339623273
1193.7521529455407 6017.302607906766
1194.6093735096438 5816.949309119269
1195.466383089477 5977.640874893986
1196.3231817447977 6012.2166561228205
1197.1797695353398 6156.107742012089
1198.0361465208189 5959.272438837218
1198.8923127609214 5991.155065406143
1199.7482683153048 6058.364141015633
1200.6040132436028 6130.7660079139005
1201.459547605431 6012.90972235701
1202.3148714603722 6079.449930540206
1203.1699848679855 6132.035631612687
1204.0248878878065 6216.406522206342
1204.8795805793507 5973.100214793045
1205.7340630020935 6000.612217959892
1206.5883352155033 6081.273696731197
1207.4423972790064 5984.969204443484
1208.2962492520237 5856.082499817124
1209.1498911939307 5862.889718676126
1210.0033231640937 5818.884693903987
1210.8565452218427 5841.6020279696895
1211.7095574264913 5643.026709070955
1212.5623598373222 5705.209726919191
1213.4149525135963 5587.106865967975
1214.2673355145507 5700.676552811965
1215.1195088993936 5434.1490168855125
1215.9714727273113 5455.064878365401
1216.8232270574663 5567.062079613104
1217.6747719489904 5348.347343283054
1218.5261074609934 5296.064285192428
1219.3772336525653 5397.561751764865
1220.2281505827668 5488.769560818627
1221.0788583106296 5416.331400711916
1221.9293568951707 5190.246359888203
1222.7796463953746 5203.442927638318
1223.629726870202 5328.101884026326
1224.4795983785934 5323.895057162923
1225.3292609794553 5251.212351514094
1226.1787147316809 5190.079265963701
1227.0279596941327 5193.590798026189
1227.8769959256424 5221.617094991007
1228.7258234850306 5159.606479773853
1229.5744424310833 5110.161054967421
1230.422852822563 5216.101427455244
1231.2710547182105 5256.691994445918
1232.119048176739 5144.589967107985
1232.9668332568417 5009.237770740151
1233.8144100171812 5185.181535312863
1234.6617785163999 5139.206721785808
1235.508938813111 5013.236087772975
1236.3558909659114 5164.640873496706
1237.2026350333617 5257.6547268478425
1238.049171074008 5262.734622603396
1238.8954991463652 5133.120589014704
1239.741619308932 5194.671208605302
1240.587531620169 5242.629451680366
1241.4332361385277 5289.3319932927925
1242.2787329224248 5049.75054505863
1243.1240220302534 5038.158883195459
1243.9691035203869 4963.870031966577
1244.813977451171 5310.167624857862
1245.6586438809263 5156.454996257596
1246.5031028679496 5050.365755367337
1247.3473544705157 5172.156305962386
1248.1913987468706 5167.075369836975
1249.0352357552383 4981.002081038152
1249.8788655538228 5110.406145722776
1250.7222882007918 5216.795512342289
1251.565503754302 5243.007947590912
1252.4085122724755 4965.491443185466
1253.2513138134182 5239.645700370673
1254.0939084352049 5114.25426933865
1254.9362961958905 5076.795978372986
1255.7784771535007 5107.659818418861
1256.6204513660432 5141.668016438411
1257.4622188915 5209.175238319466
1258.3037797878242 5126.804227850318
1259.1451341129468 5011.691267911998
1259.9862819247755 5134.751690306379
1260.8272232811978 5152.428005450678
1261.6679582400666 5215.603880326291
1262.5084868592203 5019.446056758056
1263.34880919647 4991.075071440028
1264.1889253095997 5060.895265317173
1265.0288352563712 5107.650052794396
1265.8685390945266 4967.1687567239915
1266.7080368817751 5109.367530337722
1267.5473286758115 5098.806566644064
1268.386414534294 5094.788973609206
1269.2252945148703 4953.184779057376
1270.0639686751547 5047.545166341964
1270.9024370727402 4967.538497915571
1271.7406997651997 4934.487630627513
1272.5787568100714 4846.768994784726
1273.4166082648808 4882.8523199034735
1274.2542541871244 5013.7506594935685
1275.091694634275 5125.505690817356
1275.9289296637817 4900.043386987607
1276.7659593330663 4962.0252736764505
1277.6027836995308 4917.466467659813
1278.4394028205552 4900.6188922906385
1279.2758167534867 4943.126262822605
1280.112025555658 4830.443388456681
1280.9480292843746 4927.611599721011
1281.7838279969128 4705.782066787504
1282.6194217505326 4885.125025122876
1283.4548106024686 4820.995031940838
1284.289994609926 4870.75075198737
1285.1249738300921 4898.71656423676
1285.959748320127 4818.9629666861265
1286.7943181371702 4835.36878007401
1287.6286833383328 4873.389974713028
1288.4628439807038 4947.246924482734
1289.2968001213521 4770.88905825827
1290.1305518173194 4882.007157574397
1290.9640991256183 4924.053632722382
1291.7974421032523 4844.24767792482
1292.630580807183 4754.380261597071
1293.463515294361 4866.119773510991
1294.29624562171 4931.711998938009
1295.12877184613 4906.670344107478
1295.961094024493 4776.917997517401
1296.79321221365 4908.786637508763
1297.6251264704333 4929.1297777024465
1298.4568368516466 5069.786933559752
1299.2883434140658 4959.5260661390885
1300.1196462144526 4857.010260176039
1300.9507453095375 5017.923580763965
1301.7816407560313 5061.42193705614
1302.6123326106172 4984.676738263098
1303.4428209299622 4994.417632231799
1304.2731057707024 5069.445614743716
1305.1031871894502 5007.4264819970285
1305.933065242798 5114.971774114899
1306.7627399873181 5021.762010504636
1307.5922114795467 5223.3738548326055
1308.4214797760123 5227.509412216737
1309.2505449332057 5053.1511975682215
1310.0794070076026 5161.177521864519
1310.9080660556538 5265.222773830572
1311.736522133786 5356.222772122883
1312.5647752983987 5097.908864559594
1313.3928256058734 5109.206808084031
1314.2206731125661 5262.906817939077
1315.048317874809 5323.609169877027
1315.8757599489109 5188.3348441734
1316.7029993911547 5285.422121344916
1317.5300362578055 5400.361626199435
1318.356870605101 5326.59688125092
1319.183502489257 5286.678923090483
1320.0099319664623 5418.830395012847
1320.836159092889 5409.563525138643
1321.66218392468 5426.7919802356
1322.4880065179532 5287.993737505196
1323.3136269288134 5421.2224840072895
1324.1390452133292 5398.809769674741
1324.9642614275563 5551.402612976718
1325.7892756275214 5359.086375637481
1326.6140878692295 5324.316892955221
1327.4386982086617 5581.602533308656
1328.2631067017755 5379.16259513333
1329.0873134045069 5441.298115046253
1329.911318372764 5421.425756879062
1330.735121662441 5450.366411721339
1331.558723329399 5413.558160939325
1332.3821234294774 5402.6226218823085
1333.2053220185007 5442.814187032411
1334.0283191522612 5431.69754982992
1334.851114886529 5401.079953091296
1335.6737092770582 5251.3445261650495
1336.4961023795695 5342.554646841971
1337.3182942497697 5214.454300937954
1338.1402849433325 5312.237137481035
1338.962074515921 5180.63420909293
1339.7836630231632 5188.6198260204455
1340.6050505206676 5532.98615641201
1341.426237064028 5361.259012019718
1342.2472227088037 5249.721982036599
1343.0680075105338 5123.539074194488
1343.888591524741 5319.982085898255
1344.7089748069138 5355.690348093868
1345.5291574125276 5197.131684679085
1346.3491393970307 5196.995488615134
1347.168920815846 5362.388866532311
1347.9885017243778 5376.857549188243
1348.8078821780036 5269.145572896719
1349.6270622320844 5211.127223027893
1350.4460419419447 5232.597129768501
1351.2648213629054 5335.3039694704
1352.0834005502438 5135.29790341931
1352.90177955923 5206.300452947744
1353.7199584451064 5266.004371139576
1354.5379372630887 5330.621457144019
1355.355716068374 5221.921617639303
1356.1732949161305 5204.2708276524445
1356.9906738615155 5259.036061879586
1357.8078529596478 5280.007973869718
1358.6248322656375 5345.267201894378
1359.441611834567 5251.670914653415
1360.2581917214866 5406.654147595303
1361.0745719814367 5252.575443245061
1361.890752669433 5253.568563706567
1362.7067338404577 5172.228065858998
1363.5225155494845 5298.010435853217
1364.3380978514506 5324.556064697962
1365.1534808012839 5175.983181529153
1365.9686644538815 5098.4418417820125
1366.783648864117 5433.203659145986
1367.5984340868417 5366.593516463007
1368.413020176893 5379.808254228121
1369.2274071890715 5301.006048569959
1370.0415951781652 5367.431098870714
1370.8555841989346 5329.52033773071
1371.6693743061223 5199.853731938563
1372.48296555444 5198.648032719449
1373.2963579985844 5335.783940270414
1374.1095516932255 5333.426332583784
1374.9225466930166 5156.195933184028
1375.7353430525782 5300.9924371381
1376.5479408265164 5223.981320402322
1377.36034006941 5307.139862513367
1378.1725408358216 5303.340259770454
1378.9845431802805 5209.730631891596
1379.796347157304 5436.4691592537065
1380.6079528213813 5334.794582172526
1381.4193602269788 5165.498537426648
1382.230569428546 5200.180062245736
1383.0415804805016 5233.828103043523
1383.852393437246 5238.5173914500065
1384.6630083531563 5284.023118024377
1385.4734252825892 5213.5028859282775
1386.2836442798798 5326.139351070809
1387.0936653993322 5287.146414364613
1387.9034886952395 5260.926494643134
1388.713114221864 5283.010417543617
1389.5225420334482 5256.545952290273
1390.331772184214 5255.283536842187
1391.1408047283585 5141.799199609679
1391.9496397200564 5206.659154127183
1392.758277213461 5273.661660184951
1393.5667172627054 5346.029425406005
1394.3749599218918 5150.4837674688515
1395.1830052451114 5085.974764468902
1395.9908532864265 5180.782407844607
1396.7985040998774 5296.689550662411
1397.6059577394808 5009.748520288312
1398.4132142592352 5109.478638203804
1399.2202737131156 5028.621335385537
1400.027136155073 5241.399830285276
1400.8338016390353 5072.795323592216
1401.6402702189134 5022.632496783021
1402.446541948586 5148.141936220192
1403.2526168819204 4948.136303703461
1404.058495072757 5005.2803049747035
1404.8641765749107 4960.080251799923
1405.6696614421799 5015.1441712311735
1406.4749497283356 5196.208538978388
1407.280041487129 4880.036910221092
1408.084936772295 4787.511271594677
1408.8896356375335 4938.980199919537
1409.6941381365323 4951.69887436388
1410.498444322955 4750.35887428948
1411.3025542504402 4766.842683761509
1412.106467972606 4781.823359654716
1412.9101855430508 4865.592310010436
1413.7137070153458 4524.727267276825
1414.5170324430437 4628.858814294684
1415.320161879672 4694.577991959855
1416.1230953787435 4903.071029462153
1416.925832993742 4539.008845058337
1417.7283747781275 4525.895073984706
1418.5307207853439 4647.49734925838
1419.3328710688093 4518.091821175235
1420.134825681922 4349.2251164962745
1420.9365846780584 4439.596430787272
1421.7381481105713 4586.401339629863
1422.539516032788 4587.740109750945
1423.3406884980232 4394.192909415314
1424.1416655595604 4350.628337458003
1424.942447270665 4396.159863825118
1425.7430336845828 4442.879950639545
1426.5434248545298 4253.434578467905
1427.3436208337116 4409.47324280622
1428.143621675301 4397.343031564308
1428.9434274324558 4564.382274835599
1429.7430381583108 4260.209937656536
1430.5424539059713 4352.831282120082
1431.3416747285337 4488.409183879121
1432.1407006790632 4380.746777184311
1432.9395318106053 4353.377513839196
1433.7381681761835 4186.667374959837
1434.5366098288014 4386.2949582088895
1435.3348568214424 4330.863355594741
1436.1329092070573 4225.9881323943355
1436.9307670385879 4226.657459363297
1437.7284303689503 4386.488982686634
1438.5258992510335 4363.512286388134
1439.3231737377118 4306.005269051184
1440.1202538818306 4284.338754954264
1440.9171397362225 4267.358200204331
1441.7138313536925 4343.304655676851
1442.5103287870243 4284.964417254008
1443.3066320889775 4125.4709983386
1444.1027413122956 4308.396252627012
1444.8986565096966 4206.718721906775
1445.694377733882 4239.209644332843
1446.4899050375207 4060.036473624531
1447.2852384732687 4307.744941194012
1448.0803780937622 4319.083423437362
1448.8753239516063 4079.6400558317537
1449.6700760993954 4084.6815643436903
1450.464634589689 4198.407563260287
1451.2589994750397 4379.041928225193
1452.0531708079689 4024.831129578165
1452.8471486409799 4003.5334081549095
1453.6409330265524 4257.568856203185
1454.4345240171442 4145.599935667559
1455.2279216651987 4119.0294966441215
1456.0211260231263 4122.530923939519
1456.8141371433194 4445.13090679016
1457.6069550781594 4278.036184270343
1458.3995798799897 3926.9278714827233
1459.1920116011424 4059.3152117529157
1459.98425029393 4099.557406870053
1460.7762960106338 4059.605224872811
1461.5681488035225 4102.116700906554
1462.3598087248392 4109.086241097402
1463.1512758268036 4273.244910191178
1463.942550161617 4055.2307773490384
1464.7336317814625 4046.2744926654073
1465.524520738496 4093.333383378182
1466.3152170848552 4052.2779045566153
1467.1057208726506 4121.014013822421
1467.8960321539817 4038.3174377653368
1468.6861509809169 4081.1744498545145
1469.4760774055085 4011.479618049661
1470.265811479785 4104.331961944909
1471.055353255755 4088.667454458891
1471.844702785409 4079.3275416651595
1472.6338601207044 4030.677554081273
1473.4228253135934 4093.0140244484683
1474.2115984159936 3910.222610099743
1475.0001794798063 3933.700990847533
1475.7885685569145 3986.2817039638226
1476.576765699172 4009.715668862574
1477.3647709584238 4049.157137461967
1478.1525843864802 4167.544258043764
1478.9402060351367 4108.477419591748
1479.7276359561693 4095.1110239884065
1480.514874201328 4053.7586250467148
1481.3019208223468 3986.175290235932
1482.0887758709323 3913.692588525007
1482.8754393987747 4123.06023247116
1483.6619114575406 3903.307643169861
1484.4481920988783 4039.6393991961704
1485.2342813744108 4166.765589197797
1486.0201793357446 4266.911395752286
1486.8058860344572 3963.0511798447164
1487.591401522117 3951.3328053940313
1488.3767258502594 4190.738455889142
1489.1618590704056 4166.811079532431
1489.9468012340494 3925.362893608384
1490.7315523926754 4127.805789881983
1491.5161125977356 4245.95786006146
1492.3004819006637 4147.421368421894
1493.084660352877 4063.566625688346
1493.8686480057622 4170.923368762275
1494.6524449106964 4200.803370227195
1495.4360511190262 4375.132332628811
1496.219466682087 4218.199390704505
1497.0026916511779 4205.091053896317
1497.7857260775945 4127.3892906404235
1498.5685700125996 4202.743663270136
1499.3512235074395 4060.90458269678
1500.133686613337 3994.9984329273575
1500.9159593814966 4170.617609907984
1501.698041863101 4368.165159292286
1502.4799341093094 4051.880929190419
1503.2616361712662 4014.611134649736
1504.043148100087 4185.501157283142
1504.8244699468742 4134.349058472119
1505.6056017626997 4008.708467220149
1506.3865435986281 4040.355610366221
1507.1672955056893 4195.317554815421
1507.9478575348967 3931.5660875289614
1508.7282297372512 4150.310811201356
1509.5084121637192 3998.9992262025917
1510.2884048652577 4070.0791655624066
1511.0682078927948 3955.3730486865848
1511.8478212972423 3926.212769264639
1512.6272451294917 3937.234015566634
1513.4064794404076 4012.240218926988
1514.1855242808433 4129.5248750808705
1514.9643797016215 4038.7557049230795
1515.743045753552 4116.945625393907
1516.5215224874191 4034.0384570092383
1517.2998099539836 3935.420319466746
1518.077908203999 4051.377507346983
1518.8558172881785 4007.496115376062
1519.633537257234 4058.976575993684
1520.4110681618404 4094.8937953584746
1521.1884100526604 3991.1739430827197
1521.9655629803365 3998.00141973229
1522.7425269954856 4215.884265472439
1523.5193021487103 4305.497138695229
1524.2958884905856 4058.8177250845356
1525.0722860716687 4129.275894363143
1525.848494942502 4099.144440642049
1526.624515153595 4112.488631667551
1527.4003467554485 4154.073913541469
1528.175989798534 4239.959246638034
1528.9514443333064 4237.32560260615
1529.726710410203 4261.725849764078
1530.5017880796331 4083.4262285004393
1531.276677391992 4103.323755865819
1532.0513783976457 4299.597447121909
1532.825891146953 4220.7054954653
1533.6002156902414 4310.859087066359
1534.3743520778207 4187.257647267258
1535.1483003599806 4271.9076296629555
1535.9220605869923 4295.517364750864
1536.6956328091019 4310.677114271858
1537.4690170765407 4246.192486119847
1538.242213439511 4283.548138336523
1539.015221948208 4298.197995821955
1539.78804265279 4236.593470304173
1540.560675603405 4302.920439874079
1541.3331208501804 4323.172629392569
1542.1053784432224 4451.535471834631
1542.8774484326168 4254.664260525776
1543.649330868422 4365.296083053347
1544.4210258006842 4335.669579907915
1545.1925332794308 4391.001012147876
1545.9638533546604 4321.108865468014
1546.7349860763552 4218.293330948655
1547.5059314944829 4522.3168554016875
1548.27668965898 4433.85499533632
1549.0472606197673 4438.129617847484
1549.817644426752 4372.160325861894
1550.5878411298072 4491.294552013378
1551.3578507787988 4481.041796300269
1552.1276734235635 4225.315260844709
1552.8973091139233 4369.672302659975
1553.6667578996767 4549.608870602971
1554.436019830604 4387.863016754335
1555.20509495646 4365.932687822599
1555.9739833269869 4226.828335879956
1556.7426849919011 4354.823829609772
1557.511200000903 4514.968872307796
1558.2795284036674 4457.123181469558
1559.0476702498509 4345.1440198347855
1559.8156255890954 4544.436676072286
1560.5833944710157 4570.868947301572
1561.3509769452048 4343.589020726327
1562.1183730612447 4427.171270097175
1562.8855828686865 4536.102620898666
1563.6526064170703 4606.7428511888775
1564.4194437559127 4507.599154181085
1565.1860949347047 4417.3236003439
1565.9525600029283 4671.843321148837
1566.7188390100328 4674.17718434195
1567.4849320054564 4319.085356704227
1568.250839038612 4480.131333043453
1569.0165601588997 4460.971014120743
1569.7820954156887 4524.932391216731
1570.5474448583373 4324.744055275792
1571.31260853618 4385.7228902116685
1572.0775864985299 4264.703488917338
1572.8423787946813 4469.295247402447
1573.6069854739108 4433.4714867099
1574.371406585471 4388.9035759058515
1575.1356421785986 4450.528236561194
1575.899692302506 4331.218174792007
1576.6635570063845 4410.689001686176
1577.4272363394157 4411.083576212946
1578.190730350747 4386.451506706135
1578.9540390895163 4458.573101385371
1579.7171626048384 4190.012064110389
1580.480100945806 4246.593586183902
1581.2428541614918 4416.227861801746
1582.0054223009538 4379.459997631849
1582.767805413223 4326.386228263106
1583.5300035473156 4272.089967122143
1584.292016752228 4486.094242275021
1585.0538450769309 4398.515228951371
1585.8154885703807 4306.164190297628
1586.5769472815136 4270.037788472641
1587.3382212592405 4384.03768920621
1588.099310552463 4449.085921164683
1588.8602152100484 4314.793621341289
1589.6209352808564 4541.532108458222
1590.3814708137234 4322.426409398473
1591.14182185746 4437.713284636746
1591.9019884608679 4324.803122734518
1592.6619706727215 4335.48651479077
1593.4217685417734 4484.496770103908
1594.1813821167616 4406.865917215657
1594.9408114464022 4368.011939857215
1595.7000565793933 4352.857958771956
1596.459117564409 4461.197345751267
1597.2179944501113 4467.94464827519
1597.9766872851324 4364.407525174341
1598.735196118092 4518.336195278974
1599.4935209975883 4373.398868229588
1600.2516619721973 4551.259079789319
1601.0096190904787 4458.310492230656
1601.7673924009723 4494.102844596864
1602.524981952196 4442.218130997075
1603.2823877926476 4502.49714006523
1604.0396099708087 4327.678706338477
1604.7966485351371 4377.490856055807
1605.5535035340745 4485.811332031924
1606.3101750160404 4606.1000311880125
1607.0666630294363 4426.092600570683
1607.822967622642 4261.777058747552
1608.5790888440224 4570.872044852923
1609.3350267419137 4577.260465510114
1610.0907813646445 4387.42502453954
1610.8463527605145 4423.979149295483
1611.601740977805 4642.4075647139725
1612.356946064785 4545.478200089414
1613.1119680696902 4356.711408095732
1613.8668070407512 4451.934845711256
1614.6214630261748 4433.359766226244
1615.375936074137 4567.650765264122
1616.1302262328118 4364.627853078402
1616.8843335503425 4526.303656090782
1617.638258074854 4442.306570390022
1618.391999854457 4631.345662630333
1619.1455589372363 4686.250814241131
1619.8989353712623 4470.766173296694
1620.65212920458 4299.907852245348
1621.4051404852235 4422.546507001183
1622.1579692611976 4350.895628783337
1622.9106155804966 4398.224392301223
1623.663079491087 4414.433956280592
1624.4153610409248 4515.932781607125
1625.1674602779385 4289.081172519791
1625.9193772500403 4346.805503680296
1626.6711120051277 4707.329606303658
1627.4226645910676 4482.879135192203
1628.174035055721 4271.775937162098
1628.9252234469168 4506.064333696528
1629.676229812474 4498.222041912344
1630.4270542001905 4682.399555546836
1631.1776966578382 4449.364366090833
1631.9281572331747 4384.825788811042
1632.678435973945 4667.910314815758
1633.4285329278573 4660.412428893042
1634.1784481426203 4305.097950740668
1634.9281816659113 4475.958666863509
1635.677733545388 4640.900892363425
1636.4271038286934 4507.8740822805175
1637.176292563452 4690.251842782047
1637.9252997972635 4624.35293169394
1638.674125577716 4673.5519312576735
1639.4227699523672 4897.774872183955
1640.171232968767 4553.113467803628
1640.9195146744423 4654.506291910894
1641.6676151168977 4826.086992368065
1642.4155343436178 4868.496447199288
1643.1632724020765 4640.146276707762
1643.9108293397167 4757.958405707819
1644.658205203974 4675.581795726627
1645.4054000422566 5040.710311176464
1646.1524139019566 4672.629280205859
1646.8992468304423 4695.871880722565
1647.6458988750728 4757.0172522728735
1648.3923700831765 4883.21794346242
1649.1386605020743 4802.556923019592
1649.8847701790564 4863.201326600356
1650.6306991614038 4841.373809809438
1651.3764474963682 4920.320568719734
1652.1220152311944 4521.826202190877
1652.867402413096 4871.710515810866
1653.6126090892776 4878.931847189806
1654.3576353069184 4962.00832775809
1655.1024811131829 4800.639479575556
1655.8471465552066 4721.246564834752
1656.5916316801213 4919.204577123518
1657.3359365350298 4803.34544806021
1658.0800611670165 4630.31010188773
1658.824005623148 4786.487515230646
1659.5677699504722 4522.552919429441
1660.3113541960192 4663.960814223952
1661.054758406799 4527.076739216075
1661.7979826297997 4495.160066270053
1662.5410269119966 4484.815336812171
1663.283891300338 4613.0457949819665
1664.0265758417645 4471.1116277368
1664.7690805831826 4621.017701358998
1665.5114055714948 4429.428506001666
1666.2535508535748 4626.444846486128
1666.9955164762814 4187.2511489404205
1667.7373024864555 4319.8979299891735
1668.478908930916 4387.828222085852
1669.220335856462 4307.115558086399
1669.9615833098778 4132.274140537473
1670.7026513379296 4171.14745186863
1671.44353998736 4289.794190750823
1672.1842493048916 4149.5928336667175
1672.9247793372379 4047.238767278702
1673.6651301310812 4032.808469262304
1674.4053017330934 4056.5479571232927
1675.1452941899242 4099.907783220014
1675.885107548207 3778.7062200418404
1676.6247418545518 3880.7122189705274
1677.3641971555535 3911.8407509774747
1678.1034734977893 3944.2094812748046
1678.8425709278108 3948.337330760478
1679.5814894921605 3986.672409637703
1680.320229237359 3852.2196169552453
1681.0587902098978 3946.9319577401193
1681.7971724562685 3806.179781989328
1682.5353760229264 3681.7338572023523
1683.2734009563173 3934.1757243404945
1684.0112473028657 3803.1474652208117
1684.7489151089794 3804.8535486318615
1685.4864044210462 3870.2301272481877
1686.2237152854377 3560.7131107688424
1686.960847748498 3716.080317302284
1687.6978018565642 3568.535956701734
1688.434577655944 3555.6973962015313
1689.1711751929379 3350.7610737278715
1689.9075945138156 3629.722801002151
1690.6438356648396 3651.955421903952
1691.3798986922448 3345.402719065614
1692.1157836422499 3433.4136724747805
1692.851490561059 3522.792555688614
1693.587019494853 3501.948216468149
1694.3223704897991 3289.7006135214724
1695.0575435920364 3269.6621683551366
1695.792538847696 3547.368206505831
1696.527356302886 3260.5084592826825
1697.2619960036936 3266.4374172216085
1697.9964579961907 3342.619359250947
1698.730742326432 3132.1412045966545
1699.4648490404488 3166.0152177325463
1700.1987781842563 3168.4965044053743
1700.9325298038548 3365.261500437481
1701.6661039452174 3397.327964867019
1702.3995006543082 3199.874644819641
1703.1327199770658 3296.7321984198775
1703.865761959416 3096.2963059380495
1704.598626647261 3326.6361906439984
1705.3313140864866 2996.7245535656516
1706.0638243229587 3044.973232344852
1706.7961574025303 3235.647478345794
1707.528313371029 3121.139766253809
1708.260292274268 3016.653090879799
1708.9920941580403 3016.0144138111873
1709.7237190681226 3129.048623277616
1710.4551670502697 3019.264777968687
1711.18643815022 2943.260807663641
1711.9175324136959 3202.7361336262466
1712.6484498863938 3002.223982442377
1713.379190614005 2897.31843404393
1714.109754642188 2919.411552243465
1714.8401420165883 3013.0876508258766
1715.570352782839 3435.018447560262
1716.3003869865497 2979.676016611057
1717.0302446733076 2890.7866124430047
1717.7599258886876 2924.7147229222205
1718.4894306782444 3136.2404831086224
1719.2187590875183 2767.763546910307
1719.9479111620203 2931.578198155771
1720.6768869472544 2742.5453365146705
1721.4056864887025 3105.054246274303
1722.1343098318284 2963.8530088325797
1722.8627570220742 2964.1823772509606
1723.591028104871 2748.274813383519
1724.3191231256242 2682.9349815061973
1725.0470421297232 2776.7433131903144
1725.7747851625427 2924.666326783576
1726.5023522694337 2913.6819907416184
1727.2297434957363 2836.1833187308907
1727.9569588867635 2674.804065200442
1728.6839984878152 2888.7864159466303
1729.4108623441734 2573.4697856812963
1730.1375505011038 2932.2194869946416
1730.8640630038426 2753.9057197011275
1731.5903998976264 2680.8039765041963
1732.316561227657 2816.090396249102
1733.0425470391274 2565.414229478278
1733.7683573772065 2757.432681944427
1734.4939922870508 2779.754527411171
1735.2194518137949 2764.0161857756293
1735.9447360025606 2783.879681636285
1736.669844898439 2754.031607307541
1737.3947785465189 2599.5360710960404
1738.1195369918605 2572.0611372663357
1738.8441202795093 2821.776519137327
1739.5685284544943 2808.5366441606425
1740.292761561821 2792.0411861884686
1741.0168196464838 2780.7513885959747
1741.7407027534518 2780.118536717994
1742.464410927687 2759.56375722151
1743.187944214118 2660.8001059174394
1743.9113026576688 2689.50203444294
1744.634486303241 2647.72958384566
1745.3574951957125 2762.18553710788
1746.0803293799509 2890.8743850544483
1746.8029889008048 2667.872322870153
1747.5254738031017 2695.9452254412236
1748.2477841316504 2714.8554276003806
1748.969919931249 2612.4950755319082
1749.6918812466665 2774.45533292677
1750.4136681226646 2781.1225655032404
1751.1352806039777 2579.3447769142485
1751.856718735331 2426.1067077058688
1752.5779825614281 2556.9145595545115
1753.2990721269507 2736.3137076339435
1754.0199874765676 2639.7830105862645
1754.7407286549314 2547.6640770989234
1755.4612957066693 2538.6871471873105
1756.1816886763954 2583.3512374587076
1756.9019076087097 2684.8637256118095
1757.6219525481865 2657.15545717711
1758.3418235393856 2805.993001512419
1759.061520626854 2644.6214308654053
1759.7810438551096 2743.039523863676
1760.5003932686614 2474.618244172179
1761.2195689119999 2745.517398143227
1761.938570829594 2666.044796351046
1762.657399065898 2738.1624800896925
1763.376053665348 2433.4942288126267
1764.0945346723602 2470.566080132804
1764.812842131334 2717.140636431777
1765.5309760866512 2525.7420162657445
1766.2489365826787 2414.540836688148
1766.9667236637597 2558.038137826737
1767.684337374223 2486.3658156537062
1768.401777758383 2556.92257391637
1769.1190448605284 2510.617569084772
1769.836138724937 2419.9292056306986
1770.5530593958665 2505.14927974828
1771.2698069175603 2815.2525388715667
1771.9863813342326 2689.6365845899254
1772.702782690094 2628.8616780423904
1773.4190110293293 2634.6928645251523
1774.1350663961111 2630.740430764991
1774.8509488345844 2535.588492335817
1775.5666583888924 2545.49249943869
1776.2821951031437 2585.643872095129
1776.9975590214362 2513.8494595295647
1777.7127501878585 2586.0151309113207
1778.4277686464684 2681.59871210255
1779.1426144413108 2608.394708240941
1779.8572876164162 2723.7206701983646
1780.571788215797 2466.920656983712
1781.2861162834415 2562.524984416924
1782.0002718633277 2599.664323537282
1782.7142549994132 2572.4513655606997
1783.4280657356376 2474.9746280400136
1784.141704115922 2555.4396430239685
1784.855170184177 2478.430723732201
1785.5684639842839 2636.250318807407
1786.2815855601148 2212.0495656116263
1786.9945349555237 2594.7178449190924
1787.707312214343 2501.116137885002
1788.4199173803918 2734.9296997058805
1789.132350497468 2441.349417828162
1789.8446116093583 2397.501534358449
1790.556700759822 2452.083906570879
1791.2686179926077 2515.0220427727513
1791.9803633514493 2567.5556344838647
1792.6919368800554 2324.9573216524227
1793.4033386221236 2620.6103437379234
1794.1145686213295 2598.9125242813275
1794.8256269213307 2571.3944289624314
1795.536513565774 2542.1505622484938
1796.247228598284 2334.9222132724462
1796.9577720624693 2520.3711127118677
1797.6681440019165 2499.9522183256604
1798.3783444602013 2519.713203535975
1799.0883734808776 2481.7844765712057
1799.7982311074884 2499.673326772711
1800.5079173835475 2493.527194577539
1801.2174323525633 2593.672594627834
1801.9267760580187 2320.5359765583034
1802.635948543386 2556.8002764342227
1803.3449498521113 2374.031703914461
1804.0537800276325 2546.785488604378
1804.7624391133668 2501.990491319262
1805.47092715271 2368.5191443962494
1806.1792441890484 2385.8142258975913
1806.8873902657433 2527.633212404633
1807.5953654261448 2518.6214446242902
1808.3031697135812 2502.987056579664
1809.0108031713662 2447.417372863141
1809.71826584279 2310.184925570383
1810.425557771141 2475.7052707366893
1811.1326789996747 2774.5795082555787
1811.839629571632 2320.211371517412
1812.5464095302468 2372.2303733458166
1813.2530189187182 2454.227960047574
1813.959457780249 2465.287243132653
1814.6657261580076 2485.5096160222456
1815.371824095153 2332.0230569115283
1816.0777516348262 2534.444472719389
1816.78350882015 2201.215143487595
1817.4890956942272 2327.801494310425
1818.1945123001533 2287.209534788288
1818.8997586809928 2376.4117871649987
1819.6048348798067 2323.2847525008606
1820.3097409396287 2486.3410858720904
1821.0144769034796 2535.410361749746
1821.7190428143622 2487.8950370925313
1822.423438715261 2451.1080459471054
1823.1276646491478 2414.15374764276
1823.8317206589727 2428.296847123569
1824.5356067876692 2433.113185060394
1825.2393230781581 2391.6504167812245
1825.942869573335 2205.5570850617746
1826.646246316086 2328.7813541304786
1827.3494533492758 2420.9630324199325
1828.052490715756 2366.0296111350094
1828.7553584583547 2378.4347783787125
1829.458056619891 2495.2755618948927
1830.1605852431585 2395.9158804537533
1830.8629443709433 2260.374607353103
1831.5651340460063 2334.6338821859727
1832.2671543110919 2166.315867331747
1832.9690052089318 2451.718088918214
1833.6706867822395 2282.751920819467
1834.3721990737104 2459.196193802848
1835.0735421260233 2502.6860316281563
1835.774715981841 2334.3160106532932
1836.4757206838058 2399.8991507992896
1837.1765562745459 2413.7014893755013
1837.8772227966747 2196.220721397701
1838.5777202927839 2341.3682853883515
1839.2780488054523 2263.187086273307
1839.9782083772352 2261.1315090759585
1840.6781990506806 2519.1153513406252
1841.378020868313 2311.043541670765
1842.0776738726418 2409.1751462055154
1842.777158106157 2353.124297614078
1843.4764736113375 2269.0639125838625
1844.1756204306403 2183.745803615524
1844.8745986065078 2230.665854254961
1845.5734081813607 2135.50657273033
1846.2720491976124 2293.2813396789693
1846.970521697649 2274.6421741878944
1847.6688257238511 2458.79388108897
1848.3669613185684 2366.844321710534
1849.0649285241452 2112.7591274228616
1849.7627273829057 2337.848407630543
1850.460357937156 2279.3483826564134
1851.1578202291857 2086.0631611588797
1851.8551143012664 2291.163775838468
1852.5522401956569 2273.6660870143087
1853.2491979545957 2486.5414533337594
1853.9459876203055 2234.8864740424456
1854.6426092349902 2113.5317905969787
1855.3390628408451 2232.01622706545
1856.0353484800362 2497.532125648876
1856.7314661947203 2400.9674067515557
1857.4274160270397 2264.584148356549
1858.123198019115 2211.899772909795
1858.8188122130487 2184.2285183713147
1859.5142586509319 2389.4806712409827
1860.209537374838 2118.3064881676337
1860.9046484268183 2312.507590019437
1861.599591848917 2326.4099688112447
1862.294367683151 2333.355665379959
1862.988975971528 2221.1635699643543
1863.6834167560355 2285.3937022180444
1864.3776900786452 2356.661759833278
1865.0717959813119 2200.6357613466066
1865.7657345059724 2149.0383228519813
1866.4595056945564 2243.1280543155563
1867.1531095889586 2288.539388050639
1867.846546231076 2075.4268719549855
1868.5398156627743 2338.707822512541
1869.2329179259123 2159.513491743228
1869.9258530623283 2438.239539256344
1870.618621113843 2143.022810812979
1871.3112221222636 2159.6808037869423
1872.0036561293764 2209.672579992366
1872.695923176956 2190.252566485803
1873.3880233067594 2402.1203798310457
1874.0799565605212 2160.972996237865
1874.7717229799673 2241.921471975304
1875.4633226068036 2513.47502324044
1876.1547554827175 2380.5061896520465
1876.8460216493859 2361.251388884411
1877.5371211484617 2273.028176586648
1878.2280540215852 2315.5521097762016
1878.9188203103804 2051.823064660738
1879.6094200564548 2259.8472719668894
1880.299853301396 2136.5775296145266
1880.9901200867826 2556.097998121125
1881.6802204541673 2385.74959061176
1882.3701544450942 2399.0462393737407
1883.059922101087 2090.42968520635
1883.7495234636517 2398.886787573801
1884.4389585742792 2222.4385359016414
1885.1282274744517 2138.3898497278597
1885.8173302056166 2618.621596355912
1886.506266809225 2274.1846620264832
1887.195037326701 2086.44939072229
1887.8836417994517 2155.808806893676
1888.5720802688702 2487.2897710985862
1889.260352776333 2261.8727456930765
1889.9484593632042 2320.0288753668187
1890.63640007082 2116.644707047764
1891.3241749405151 2008.0437282261864
1892.0117840135954 2388.5073739330396
1892.6992273313572 2146.1380415707545
1893.3865049350788 2147.015487805605
1894.0736168660223 2384.5133300897105
1894.7605631654333 2222.4551063130843
1895.4473438745408 2086.183596006552
1896.133959034556 2376.170549205533
1896.820408686679 2309.0779467122807
1897.506692872088 2432.340639136459
1898.192811631945 2219.62373441749
1898.8787650073991 2201.0360957688617
1899.5645530395832 2351.643745147767
1900.2501757696118 2278.1000070674463
1900.9356332385796 2073.2707762033815
1901.620925487574 2446.660996574483
1902.3060525576602 2283.7268710363755
1902.9910144898859 2226.004413641747
1903.6758113252872 2271.0360461242512
1904.3604431048789 2268.928660375465
1905.0449098696663 2290.5623477058675
1905.7292116606295 2224.690135490956
1906.4133485187394 2308.4248702655213
1907.0973204849488 2051.3121553987394
1907.7811276001976 2063.572615004018
1908.4647699053967 2164.650463293907
1909.1482474414588 2034.7557189669417
1909.8315602492694 2122.9674006226883
1910.5147083696957 2270.0187138369706
1911.1976918436012 2157.9061080799206
1911.880510711815 2132.921980407965
1912.5631650151681 2300.2763092178984
1913.2456547944657 2047.583347792261
1913.927980090495 2085.9187884092275
1914.6101409440362 2136.3076914148896
1915.2921373958416 2226.500608860378
1915.9739694866603 2088.5833381867096
1916.655637257214 2214.090329352525
1917.3371407482136 2166.7141752106136
1918.0184800003572 2389.7271296189965
1918.6996550543154 2288.5697223929847
1919.3806659507554 2209.433668166116
1920.0615127303208 2035.402344688407
1920.7421954336423 2375.5731031828504
1921.4227141013343 2337.8376540857653
1922.103068773993 2197.7528556925436
1922.783259492202 2278.9403407661052
1923.4632862965227 2095.9622229429715
1924.1431492275078 2109.3799775896086
1924.8228483256917 2089.3737862129374
1925.5023836315922 2075.970415798094
1926.1817551857057 2001.9616908814714
1926.8609630285227 2309.9741140156952
1927.5400072005123 2264.260249678533
1928.218887742125 2098.8075758639516
1928.8976046938005 2113.954454660883
1929.5761580959588 2246.479853651714
1930.2545479890086 2168.236730088298
1930.9327744133352 1816.4521172702298
1931.6108374093164 2263.6366732734455
1932.2887370173066 2181.5396209867563
1932.9664732776473 1950.1901477784054
1933.6440462306673 2156.325860996086
1934.3214559166754 2121.813100322777
1934.9987023759659 2265.0403865776143
1935.675785648813 2367.798542247409
1936.3527057754836 1953.075220818957
1937.029462796223 2403.129533538055
1937.70605675126 1987.6420956337693
1938.3824876808085 2082.104570461236
1939.058755625072 2170.1571778381967
1939.7348606242267 2204.10173139709
1940.4108027184448 2071.106278565781
1941.0865819478713 2278.94388137652
1941.7621983526478 2024.2140154977271
1942.4376519728921 1930.7433144789964
1943.1129428487038 2115.0927435361327
1943.7880710201734 2150.0598321967295
1944.4630365273733 2264.798758254913
1945.1378394103576 2083.428659709215
1945.8124797091714 2302.1848050174626
1946.4869574638324 2015.2767872020754
1947.161272714353 2003.6776921368394
1947.8354255007234 2111.7469841039842
1948.5094158629272 2064.3664251885402
1949.1832438409183 2130.0679896175907
1949.8569094746435 2295.6117642025956
1950.530412804037 2186.2152562635597
1951.2037538690092 2275.4635866941126
1951.8769327094578 2146.4007756417027
1952.5499493652678 2096.734942500793
1953.222803876306 2260.839175274762
1953.895496282421 2231.4314241653533
1954.5680266234522 2256.4006567358124
1955.2403949392155 2158.5132107398117
1955.9126012695142 1964.8635024669784
1956.5846456541403 2041.246129024378
1957.2565281328643 2090.4125037411495
1957.9282487454457 2182.7017626176207
1958.5998075316202 2167.653604286702
1959.27120453112 2017.6340395947122
1959.9424397836501 2225.8758848703246
1960.613513328908 2117.904697209482
1961.2844252065697 2209.8464440545395
1961.9551754563017 1883.6826870349068
1962.6257641177453 1950.881192107608
1963.29619123054 1948.2832812588008
1963.966456834296 1935.7452671246224
1964.6365609686181 1880.7943644508262
1965.306503673086 2288.5745299787604
1965.976284987275 2122.2902265907014
1966.645904950734 2138.1525633976285
1967.315363603002 1856.093614123775
1967.9846609836077 2104.5500862016047
1968.6537971320486 1862.5184744138758
1969.3227720878222 2152.453573074668
1969.9915858904042 2008.92286360211
1970.660238579252 2139.0313285091047
1971.3287301938108 2027.1955594672804
1971.997060773514 2064.784740728744
1972.665230357772 2054.1785464629984
1973.3332389859843 1979.4262109802469
1974.0010866975335 1963.2088635596695
1974.6687735317864 1951.028375215721
1975.3362995280932 2078.8113084140423
1976.003664725793 2149.089467323785
1976.6708691642052 1904.1114949032212
1977.3379128826364 1984.0113609074397
1978.004795920373 2213.2331738802354
1978.6715183166925 2213.5035205700724
1979.3380801108524 1864.8875564069895
1980.0044813420973 2129.3155235532686
1980.6707220496555 1886.189658608639
1981.3368022727373 2076.3413009423693
1982.0027220505417 2121.0189295005134
1982.66848142225 1808.7625242048434
1983.3340804270283 1998.770720071916
1983.999519104027 1960.670236068602
1984.6647974923835 2087.08675163612
1985.329915631215 2064.0691674374475
1985.99487355963 2034.9096366609283
1986.6596713167146 2135.4294950751614
1987.3243089415428 1890.5428334468693
1987.9887864731754 2156.3082326411236
1988.6531039506553 1861.4903936348685
1989.3172614130071 1929.7326691552903
1989.9812588992481 1998.123140933704
1990.645096448372 1772.2792416332309
1991.3087740993633 1989.5625960111738
1991.9722918911848 1803.8980549392356
1992.635649862792 2120.0593945587075
1993.2988480531185 2125.129283224024
1993.9618865010852 2230.9054813845933
1994.6247652455968 1904.5713765460218
1995.287484325545 1747.744571838679
1995.9500437798033 1914.9289459150812
1996.6124436472292 1936.5836888507615
1997.2746839666706 2007.397129476801
1997.936764776954 1862.4624185618948
1998.598686116895 1896.465809423003
1999.2604480252903 2139.7763395547245
1999.9220505409212 2284.975678492795
2000.5834937025593 1980.0503725867122
2001.2447775489582 1988.247069333184
2001.9059021188514 2162.155576553235
2002.5668674509616 1929.9612899736792
2003.2276735839987 1959.3099471408568
2003.8883205566508 2230.1990419392196
2004.5488084075987 1900.0344084968565
2005.2091371755014 1976.817362757929
2005.8693068990033 1786.836177133405
2006.5293176167397 2060.6277644449715
2007.1891693673224 1913.222335980295
2007.848862189354 1918.2253808092278
2008.5083961214223 1900.5555374701348
2009.1677712020955 1859.06743484361
2009.8269874699254 1910.2611115847
2010.4860449634598 2262.957411946993
2011.1449437212177 1938.2324344885087
2011.8036837817108 2167.7615303675384
2012.4622651834325 2157.295089397131
2013.1206879648653 2023.1810403067896
2013.7789521644736 2131.2499985254262
2014.4370578207036 1781.1882504969897
2015.0950049719922 1926.0663371544863
2015.7527936567585 2216.8831356694454
2016.4104239134067 1892.6867115588896
2017.067895780323 2136.565545519528
2017.725209295886 1794.245328241584
2018.3823644984514 2000.3794825333594
2019.0393614263648 2061.5249076448117
2019.6962001179545 1850.5282897956142
2020.3528806115355 2048.994440140077
2021.0094029454067 2092.3033419607336
2021.6657671578487 1812.177998850872
2022.321973287133 1931.310087311982
2022.9780213715148 1820.6019714718307
2023.6339114492293 2061.494843259875
2024.2896435585026 1993.8470024296003
2024.9452177375442 1900.2575357477276
2025.600634024544 2088.8526071468123
2026.2558924576842 2027.631914134843
2026.9109930751292 2022.4715387659678
2027.565935915025 1868.8536313310965
2028.2207210155066 2095.6344049742574
2028.8753484146964 2080.6972533440276
2029.529818150695 1785.7630553139563
2030.1841302615903 2023.1066247434926
2030.8382847854573 1854.6628235792966
2031.4922817603601 2092.4527664868174
2032.1461212243357 1970.2853586172605
2032.7998032154192 1917.747640324281
2033.4533277716218 1897.7866389731594
2034.1066949309443 1977.5574322964767
2034.7599047313688 1785.681737828108
2035.4129572108704 1938.9437505503824
2036.0658524074006 1926.0887557802967
2036.7185903589016 2059.8232996651136
2037.3711711032956 1983.177220837954
2038.023594678496 2095.344984035782
2038.675861122394 1807.8719407683336
2039.3279704728757 2106.349039586462
2039.9799227678031 1862.9468373284176
2040.6317180450278 1945.1332707103652
2041.2833563423865 1923.2032620806701
2041.9348376977014 2160.270559492831
2042.5861621487784 2058.2971362878925
2043.2373297334088 1766.45609974012
2043.8883404893695 2022.76621258335
2044.5391944544208 2039.2821171038966
2045.1898916663158 1991.9038792447197
2045.8404321627804 1908.4551888178012
2046.4908159815368 1824.7098958581832
2047.1410431602853 1716.060534797493
2047.7911137367173 1904.1946693205125
2048.441027748504 2020.657700339314
2049.090785233302 1909.4040447583793
2049.7403862287592 1773.3195019353311
2050.389830772503 1786.480757397408
2051.0391189021466 1799.7047901858343
2051.688250655294 1937.8063821301562
2052.337226069527 1882.7302730852527
2052.986045182417 2060.7211181582643
2053.634708031521 1748.0283858360858
2054.283214654375 1999.7489641659406
2054.931565088511 1798.3953224263703
2055.579759371436 1793.1891169602084
2056.2277975406523 1909.9515959267155
2056.8756796336384 2178.287078875618
2057.5234056878617 1795.9466683665978
2058.1709757407752 1797.9169402617158
2058.8183898298194 1907.2394880798522
2059.465647992416 2009.6101882733906
2060.1127502659747 2015.5540008090697
2060.759696687888 1755.1344901707766
2061.4064872955405 2025.0575774066579
2062.053122126292 2130.7795378997253
2062.699601217497 1683.4173580988895
2063.345924606485 1849.4515466189212
2063.992092330587 1861.4174224524618
2064.638104427102 1807.6522628410432
2065.283960933324 2160.3268000505823
2065.92966188653 1896.5978510335983
2066.5752073239855 1941.7238976615129
2067.2205972829397 1797.0641666601737
2067.86583180062 2011.6623900897314
2068.5109109142522 1840.7722353936883
2069.15583466104 1840.4891377929696
2069.8006030781708 1840.2076507079503
2070.445216202821 1759.0231934085673
2071.089674072153 1840.751108014103
2071.7339767233116 2069.6646890401616
2072.3781241934303 1835.5923855653145
2073.0221165196253 1939.2116903556641
2073.6659537390024 1847.7100698844902
2074.3096358886505 1991.5761798948176
2074.953163005637 1712.6373636060755
2075.596535127028 1891.0388801189697
2076.2397522898664 1750.2919587713284
2076.882814531182 1931.2729514446933
2077.5257218879924 1908.4415679923666
2078.1684743973 1782.3340412501984
2078.8110720960885 1604.3926907539858
2079.453515021336 2085.393935446576
2080.095803209997 2019.9378192875654
2080.7379366990135 1858.9169222092619
2081.37991552532 2130.186059825488
2082.0217397258275 1871.1558416607525
2082.6634093374414 1709.760722555849
2083.3049243970418 1903.1067563746649
2083.9462849415067 1867.4005924224653
2084.587491007689 2025.6024982163028
2085.2285426324324 1885.17611838823
2085.869439852564 1848.6237534300399
2086.510182704902 1795.8752434628936
2087.1507712262483 1971.0677936169097
2087.791205453381 1773.4935841864226
2088.4314854230743 1972.0770324318503
2089.0716111720867 1893.6251866918324
2089.7115827371617 1701.2481533084283
2090.351400155023 2125.81641349642
2090.991063462385 1911.3634182938174
2091.6305726959527 1623.2478139966374
2092.2699278924047 2038.749251035725
2092.9091290884153 1855.3648729481506
2093.548176320641 1723.031981744185
2094.187069625721 1853.5704531288789
2094.8258090402887 1805.2592511627495
2095.464394600951 1947.8975548438448
2096.102826344313 1781.0763938746754
2096.741104306955 1832.3923091694148
2097.379228525453 1800.329365983866
2098.017199036358 1674.0042069215965
2098.6550158762147 1997.6138442705728
2099.2926790815527 2199.2030755868436
2099.9301886888825 1912.184742756078
2100.5675447347076 1791.2483769282037
2101.2047472555114 1920.9860866336621
2101.841796287761 1829.4171807120651
2102.47869186792 1894.2416499790274
2103.1154340324265 1586.351494539372
2103.752022817709 1865.0688095431055
2104.388458260184 1780.2389359333526
2105.024740396251 1838.2114759206138
2105.660869262292 1767.5199634576916
2106.296844894685 1759.3898591486643
2106.93266732978 1751.28358010708
2107.5683366039284 1796.4659494918155
2108.2038527534532 1845.395700415172
2108.8392158146726 1997.6734778087823
2109.4744258238843 1746.697765156201
2110.1094828173755 1830.7297030986133
2110.744386831422 1989.6879595878993
2111.3791379022787 1968.1809327956685
2112.01373606619 1958.713066453547
2112.648181359389 1997.5823814875662
2113.28247381809 1961.4405999439036
2113.916613478492 1929.9818170140911
2114.550600376786 1974.820660656163
2115.1844345491445 1725.5551305893878
2115.818116031729 1743.2795884597072
2116.451644860679 1793.8215748115376
2117.085021072133 1637.1207612965904
2117.718244702204 1946.1749146220711
2118.3513157869984 1780.5905107022795
2118.984234362604 1784.5472022913189
2119.617000465092 1814.131174038291
2120.249614130529 1962.4821527201184
2120.8820753949585 1975.0603044578268
2121.5143842944162 1758.4011081178771
2122.14654086492 1831.1590754623528
2122.7785451424734 1887.031772365779
2123.4103971630702 1553.3304714943138
2124.042096962681 1852.011575386275
2124.6736445772767 1890.1971460034179
2125.305040042802 1786.5788116704657
2125.936283395191 1868.1436610993799
2126.567374670365 1968.4009869059785
2127.198313904233 1755.114608172798
2127.8291011326855 2214.9695237325623
2128.4597363916037 2197.2799397904028
2129.0902197168507 1815.0294564446335
2129.720551144279 1769.1679060398317
2130.3507307097225 2156.4102869813573
2130.980758449008 2093.0061688953056
2131.6106343979427 2028.788308848123
2132.2403585923203 1964.3931164878115
2132.8699310679276 1879.2683317418239
2133.499351860526 1777.7953565232438
2134.1286210058715 1873.5958236020615
2134.7577385397053 1628.345836155199
2135.3867044977487 1958.1423754446434
2136.0155189157176 2055.7089666681272
2136.644181829308 1961.9593448977837
2137.2726932742025 1766.6944568263432
2137.901053286074 1735.5072020529267
2138.5292619005777 1704.3426381223803
2139.1573191533535 1712.1199314073722
2139.7852250800315 2002.8622271736663
2140.4129797162295 1780.686463537906
2141.0405830975433 1603.476376441879
2141.6680352595613 1688.8535326599322
2142.2953362378576 1774.4134881995462
2142.9224860679915 1869.6311258010096
2143.549484785508 1747.528857215703
2144.1763324259373 1804.9259178514014
2144.803029024799 1777.490059705094
2145.429574617594 1654.8024513064152
2146.0559692398165 1785.6341932315052
2146.682212926942 1828.883877586692
2147.308305714432 1823.7511792432954
2147.9342476377333 1906.2575762652377
2148.5600387322847 2142.7902835141226
2149.185679033506 2040.94890981248
2149.8111685768017 1614.1938732868357
2150.4365073975678 1647.2940780360823
2151.061695531187 1712.5318610466006
2151.686733013021 2029.7111310835958
2152.311619878423 1755.5871573497807
2152.9363561627342 1656.2917355449147
2153.560941901278 1511.8803830640907
2154.1853771293663 1817.2395882217643
2154.809661882293 1740.3939115919013
2155.433796195348 2020.280047175788
2156.0577801037944 1980.8913030689284
2156.681613642895 1941.2636957753098
2157.3052968478896 1845.5361242101862
2157.928829754006 1819.193443479131
2158.552212396462 1827.6442611378013
2159.1754448104566 1927.6658995296816
2159.7985270311783 1683.9438975274297
2160.4214590938027 1550.979959659399
2161.0442410334927 1525.0791608076427
2161.6668728853874 1516.0494767937523
2162.289354684628 1507.072284375464
2162.911686466332 1756.865792000839
2163.533868265602 1739.0164672087753
2164.1559001175337 1973.812799563823
2164.7777820572046 1905.3813502921294
2165.399514119681 1732.9201116991524
2166.021096340013 1858.9852475887733
2166.6425287532384 1844.8615726985001
2167.263811394385 1593.9772032476812
2167.8849442984574 1845.5617209582997
2168.505927500455 1578.8766215722987
2169.126761035366 1946.2111067224778
2169.7474449381552 1841.4685231840529
2170.367979243778 1638.4309940960488
2170.9883639871823 1854.2997918687317
2171.608599203293 1560.2618221868995
2172.2286849270276 2002.641521510246
2172.8486211932886 2121.109059133868
2173.4684080369625 1812.8937728425658
2174.0880454929265 1658.1838895936628
2174.7075335960417 1435.6894555314161
2175.3268723811543 1513.5286252187218
2175.9460618831 1591.5854584755293
2176.565102136701 1793.8544049011657
2177.1839931767627 2008.6404209135587
2177.802735038078 1619.1179394364658
2178.421327755432 1545.3884571655844
2179.0397713635866 1595.400912379291
2179.658065897298 1741.5806701318484
2180.276211391305 1694.2754883412795
2180.8942078803357 1677.5404838257418
2181.5120553991 1763.8292845127721
2182.129753982299 1614.2722044319878
2182.7473036646206 1605.3403332048122
2183.3647044807367 1875.9675398263867
2183.9819564653044 1532.3904069369648
2184.599059652968 1803.6973388199494
2185.216014078367 1796.4835803682163
2185.832819776113 1573.135202921391
2186.4494767808137 1852.1254303919945
2187.065985127063 1816.2151535827368
2187.682344849436 1671.670663639768
2188.298555982501 1915.8866703772117
2188.9146185608097 1779.0438021171856
2189.530532618901 1886.416745314738
2190.1462981912937 1855.3173928794422
2190.761915312507 1688.1785455794986
2191.377384017036 1620.2254678295055
2191.9927043393654 1627.186149107018
2192.6078763139667 1855.2376029535098
2193.2228999753006 1603.0856794356416
2193.837775357808 1813.8746356899628
2194.452502495922 1695.3056709991974
2195.0670814240602 1731.2768011600467
2195.6815121766285 1421.7629598314975
2196.2957947880186 1377.8989543792923
2196.9099292926057 1333.951196100248
2197.523915724758 1750.6885018859807
2198.137754118825 1748.4167371050735
2198.7514445091456 1990.1786076280982
2199.3649869300443 1977.27892606873
2199.9783814158327 1964.4321571324767
2200.5916280008096 2073.345315150129
2201.2047267192593 1920.8107130146352
2201.8176776054515 1747.1172930222478
2202.430480693649 1524.4060614869682
2203.0431360180955 1885.0697097800523
2203.6556436130195 1801.238796680412
2204.268003512645 1630.8154852414063
2204.8802157511727 1598.1970326816881
2205.492280362796 1664.1130243531945
2206.1041973816937 1730.2619211296897
2206.715966842032 1873.0118744983138
2207.3275887779655 1892.5206786676754
2207.93906322363 1723.5004213790776
2208.550390213153 1805.769918504445
2209.1615697806465 2016.1324316232335
2209.7726019602105 1648.384896834458
2210.3834867859277 1624.126142889572
2210.9942242918787 1667.390906957223
2211.6048145121167 1716.188484244603
2212.2152574806914 2133.8053041466596
2212.825553231638 1615.8400341804424
2213.435701798975 2258.8357974294904
2214.045703216707 1658.657040210673
2214.655557518832 1410.5910336596048
2215.2652647393297 1664.2011837172074
2215.874824912169 1651.7383420301624
2216.4842380713 1639.4427171368286
2217.09350425067 1613.0177345951772
2217.7026234842033 1813.0551358652713
2218.311595805819 1775.4029926693722
2218.9204212494133 1820.3833221308646
2219.52909984888 1941.1083659068706
2220.137631638092 1531.036856574293
2220.7460166509154 1920.7749223393835
2221.354254921198 1588.5264577453668
2221.9623464827764 1644.5450958368815
2222.5702913694713 1620.2120624123968
2223.178089615096 1812.954100615271
2223.7857412534486 1646.2574129957873
2224.39324631831 1420.1784426838196
2225.000604843457 1591.5947164840613
2225.607816862641 1851.2709954021575
2226.214882409611 1770.434833030467
2226.8218015180973 1764.509373842419
2227.4285742218217 1600.7990047094415
2228.0352005544864 1726.2030705190816
2228.6416805497847 1536.03019014799
2229.248014241399 1690.394214711101
2229.8542016629945 1570.9848558929518
2230.460242848223 1713.963174582594
2231.0661378307304 1545.1805171067062
2231.671886644139 1376.2417218097444
2232.277489322065 1457.0092986095242
2232.8829458981127 1497.1932409207923
2233.48825640587 1553.4385177278798
2234.0934208789095 1641.0641320723266
2234.6984393507955 1728.8331547700702
2235.3033118550793 1629.4598525001857
2235.9080384252975 1649.6141585780038
2236.5126190949723 1525.3369862334287
2237.1170538976166 1566.0025234188004
2237.721342866729 1440.0712745251626
2238.32548603579 1558.3213329211976
2238.9294834382763 1788.0527086156096
2239.533335107646 1870.088418286401
2240.1370410773434 1670.5929300478103
2240.740601380803 1373.8892947097213
2241.3440160514474 1640.9009578572372
2241.9472851226783 1970.1262750361686
2242.550408627896 1650.9504497269074
2243.1533866004793 1977.846071514165
2243.756219073799 1605.1289036666722
2244.3589060812064 1522.4385818632759
2244.961447656049 1324.442196023324
2245.5638438316564 1597.6263305092623
2246.166094641343 1637.6042714634136
2246.7682001184166 1499.9897523963618
2247.3701602961664 1548.9090327178778
2247.971975207871 1728.50522828278
2248.5736448867974 1924.757664524855
2249.175169366197 1645.5666150865695
2249.7765486793123 1760.09118930004
2250.3777828593684 1637.9091821966706
2250.9788719395783 1625.709152785595
2251.579815953146 1796.8296515653078
2252.1806149332606 1474.1596127325083
2252.781268913097 1757.2719869971377
2253.381777925817 1614.9016098858224
2253.9821420045737 1781.82344337065
2254.5823611825035 1664.759920992546
2255.1824354927303 1593.9850859089588
2255.782364968365 1637.7523539725037
2256.38214964251 1681.6312286592988
2256.9817895482483 1309.3646725585227
2257.5812847186553 1562.587761776518
2258.180635186791 1419.6214917787893
2258.779840985704 1539.6157548305491
2259.37890214843 1443.1325173248645
2259.97781870799 1689.9532841603407
2260.5765906973957 1861.843379610346
2261.175218149645 1721.6567640051194
2261.773701097718 1680.8785099815118
2262.3720395745895 1373.9293910091617
2262.970233613216 1659.482983713358
2263.568283246548 1685.003852412589
2264.1661885075137 1527.1529898398799
2264.763949429038 1379.6393304914645
2265.3615660440246 1920.7711266506171
2265.959038385374 1307.157825291652
2266.5563664859637 1811.060886545048
2267.153550378669 1462.7037661988493
2267.7505900963424 1858.1174680182085
2268.3474856718312 1677.0084857977388
2268.9442371379664 1574.9603455070842
2269.5408445275643 1907.813137251691
2270.1373078734377 1783.0135648337575
2270.7336272083758 1445.3311306804383
2271.32980256516 1500.4555700891865
2271.925833976562 1705.8769038164096
2272.5217214753357 1624.7446812285702
2273.117465094223 1543.4174068347627
2273.7130648659586 1458.8360415273237
2274.308520823257 1663.401381927438
2274.903832998827 1757.4495797116638
2275.4990014253563 1768.4015704475546
2276.094026135528 1780.8848176447223
2276.6889071620117 1519.8988978518942
2277.2836445374614 1767.0623228895233
2277.878238294519 1686.4935327572591
2278.472688465812 1517.4478274273793
2279.066995083962 1735.5351246183704
2279.6611581815705 1567.7563000874602
2280.255177791232 1573.5881299093685
2280.8490539455233 1608.2313653171122
2281.442786677013 1643.0292939408532
2282.0363760182554 1784.5902557317127
2282.6298220017943 1551.1661460140563
2283.223124660155 1546.5679593378743
2283.816284025859 1542.043256744256
2284.4093001314086 1750.1087874145276
2285.002173009292 1600.4008991941105
2285.5949026919952 1705.6700344352096
2286.1874892119777 1635.5008600697142
2286.7799326016993 1627.9022947517533
2287.3722328936 1456.731587289041
2287.964390120109 1338.5996575745085
2288.556404313642 1657.8957414632991
2289.1482755066027 1681.3658397973534
2289.7400037313873 1632.2487161802871
2290.3315890203703 1617.7460192596325
2290.9230314059205 1685.380157001658
2291.5143309203904 1546.060050968277
2292.1054875961236 1724.6438196308488
2292.6965014654506 1792.7798550413022
2293.287372560684 1447.3462164982857
2293.878100914131 1519.4947596659201
2294.468686558086 1591.846307940268
2295.059129524827 1544.2928670723356
2295.649429846617 1831.0170809147537
2296.239587555716 1475.9025383575533
2296.8296026843636 1764.6252550079619
2297.419475264791 1546.7045261540595
2298.0092053292137 1910.1921210090582
2298.598792909839 1743.791892828486
2299.1882380388597 1565.8005840965402
2299.777540748455 1856.9314038983225
2300.3667010707904 1721.8351323358615
2300.9557190380256 1751.7213487427712
2301.544594682302 1604.998263863433
2302.1333280357503 1458.0923930743406
2302.721919130485 1515.1343107614007
2303.3103679986198 1879.44373742565
2303.898674672242 1808.3600783674115
2304.486839183437 1542.5286186978785
2305.0748615642697 1410.1972656229593
2305.6627418468015 1716.6298598693404
2306.2504800630704 1515.0027708134912
2306.8380762451143 1654.1961531565746
2307.425530424949 1613.1936515549573
2308.012842634582 1572.084473080039
2308.6000129060103 1734.5239635829942
2309.187041271214 1803.111134238333
2309.773927762164 1432.735256564454
2310.3606724108213 1678.6987545254153
2310.9472752491274 1393.7849443324217
2311.5337363090184 1746.4750521584742
2312.120055622414 1467.524597148653
2312.706233221221 1502.0863259469281
2313.2922691373424 1435.1293395244202
2313.8781634026564 1817.4924719004644
2314.463916049037 1604.5297880300122
2315.049527108342 1793.9261632695368
2315.6349966124235 1710.4309420496525
2316.2203245931123 1705.8262149746308
2316.8055110822315 1404.128234566394
2317.3905561115935 1607.2533596447272
2317.9754597129977 1602.4278545497068
2318.560221918229 1663.8347167859843
2319.1448427590603 1483.3988386300443
2319.729322267256 1647.801442521824
2320.313660474563 1805.2095665564225
2320.8978574127195 1582.1000118696907
2321.481913113452 1802.4890372962443
2322.0658276084705 1596.445327507899
2322.6496009294806 1535.2172658316972
2323.233233108165 1616.039886074762
2323.8167241762058 1663.551567024831
2324.4000741652617 1568.5145847139804
2324.983283106987 1669.6693460602842
2325.5663510330232 1848.2910478972767
2326.1492779749933 1565.7404296017035
2326.7320639645204 1665.0056800546354
2327.3147090332004 1627.5989737466866
2327.897213212629 1568.854986003214
2328.4795765343843 1509.910493979777
2329.0617990300307 1422.949156015074
2329.643880731124 1745.1858772876392
2330.22582166921 1372.345353055764
2330.807621875816 1362.3673309615456
2331.3892813824623 1352.488569795567
2331.9708002206517 1253.6210321875678
2332.5521784218818 1351.6571797476151
2333.133416017634 1449.9521396624123
2333.7145130393765 1442.974368634516
2334.295469518571 1836.3831444143943
2334.876285486658 1720.703695273008
2335.456960975076 1717.4873987047438
2336.037496015242 1714.2936610594675
2336.6178906385667 1586.1979767419873
2337.198144876451 1675.431080326717
2337.778258760278 1500.7188931074054
2338.3582323214214 1605.5216416864855
2338.938065591243 1710.5276680858096
2339.517758601087 1839.8161596244906
2340.0973113822965 1626.4138538346901
2340.676723966193 1622.940720495017
2341.255996384094 1557.2612379422442
2341.835128667295 1740.3329682862327
2342.4141208470883 1747.2921150525472
2342.992972954751 1731.7562262486058
2343.5716850215467 1525.4615133344873
2344.1502570787306 1318.7094153099479
2344.7286891575386 1472.8016499023101
2345.3069812892045 1809.6237658533603
2345.885133504944 1692.747754031936
2346.4631458359618 1643.4776930866196
2347.04101831345 1323.9731393714067
2347.6187509685915 1359.667498749745
2348.196343832553 1459.9261340691314
2348.7737969364935 1658.0609551227412
2349.351110311558 1402.3447014764888
2349.9282839888765 1380.5466453433232
2350.5053179995757 1439.2378355348142
2351.0822123747585 1410.5693485852537
2351.658967145526 1383.684576508463
2352.2355823429643 1356.8354865057122
2352.812057998144 1452.8569442561252
2353.3883941421263 1296.1813101749137
2353.9645908059647 1541.9321123484292
2354.540648020693 1585.8218278289946
2355.116565817336 1713.550871559669
2355.6923442269126 1509.0332695820339
2356.2679832804224 1663.45966858135
2356.8434830088518 1727.1245445127574
2357.41884344318 1535.9965500401556
2357.994064614377 1790.8526897436172
