#exp_cfg={"servo_angle": 0.0, "laser_lim": 100.0, "servo_angle_to": 18.0, "laser_wup": 0.0, "bt_dev": "EnSpectr-25AE3", "laser_wdn_max": 0.0, "frames": 10.0, "servo_used": 0, "servo_calib_use": 0, "laser_wdn_min": 0.0, "servo_pix_from": 90.0, "cooler_tout": 300.0, "servo_angle_from": 0.0, "servo_calib": "[-1.9174921013161362e-09, 3.9322238269163779e-05, -0.27385609119055809, 653.59552119713567]", "laser_autoctl": 0, "servo_pix_to": 3682.0, "laser_pw": 100.0, "cooler_on": 0, "laser_volt": 4.0, "cooler_autoctl": 0, "cooler_curr": 70.0, "cooler_startup": 10.0, "laser_fixed_pw": 0, "gain": 1.3, "offset": 2.53059635486, "servo_calib_degree": 3.0, "laser_curr": 55.0, "shutter": 8200.0, "servo_calib_step": 1.0, "laser_fixed_curr": 0, "exp": 2000.0, "ccd_volt": 4.7, "bt_addr": "00:06:66:62:5A:E3", "servo_delay": 500.0, "laser_autooff": 1}
#proc_cfg={"flat_auto_wnd": 200.0, "flat_auto_fr": 200.0, "flat_auto_shift": 5.0, "yconv": 1, "flatten": 1, "flatten_strength": 100.0, "xfrom": 300.0, "auto_max_frame": 2000.0, "auto_signal": 48000.0, "flat_auto_tol": 0.1, "autoclip": 1, "xrel_range": 0.0, "flat_auto_to": 4000.0, "intensity_adj": 1.0, "xrel": 7852.0, "rmhot": 1, "flat_auto_slit": 4.999999999999997, "auto_ini_exp": 300.0, "auto_off": 0, "xto": 2860.0, "flat_auto_ref": "", "flat_auto_rank": 1, "autobackg": 0, "xrel_adj": 0.0, "auto_black_lvl": 1, "base_wnd": 100.0, "sub_baseline": 0, "xconv": 2, "auto_max_exp": 1000.0, "auto_total_exp": 10000.0, "auto_exp": 0, "rmripple": 0, "black_lvl": 8278.925, "shutter_clip_adj": 0.0, "auto_bckg": 0, "flat_auto_thr": 0.9, "subbackg": 1}
316.8218498245369 23507.290108042624
317.89969571804795 23224.775659786123
318.977263876126 23233.327070007246
320.05455438786703 23008.472090273382
321.1315673423287 22921.493235783295
322.2083028285215 22862.836036593384
323.2847609354267 22859.145474679877
324.3609417519747 22712.356613989425
325.43684536705587 22589.055686739106
326.5124718695279 22472.214905071633
327.58782134820103 22389.354928928184
328.66289389184385 22402.273958912956
329.7376895891921 22135.74519903863
330.8122085289342 22183.248541376106
331.88645079971866 22171.27533518902
332.9604164901575 22081.49171944035
334.03410568881554 21967.832691066105
335.1075184842266 22079.9663721412
336.18065496487543 21858.44842267662
337.2535152192122 21915.10990873939
338.32609933564163 21856.223572756822
339.39840740253203 21793.974948253373
340.4704395082099 21734.651384926783
341.5421957409617 21542.964691084388
342.6136761890357 21696.622809036697
343.6848809406365 21482.35832619055
344.75581008392874 21395.42355615741
345.82646370703696 21331.247968244443
346.8968418980512 21288.350463258987
347.96694474501055 21340.666746744777
349.0367723359268 21246.70683522881
350.106324758759 21235.728156998648
351.1756021014353 21086.411947467896
352.2446044518383 20985.86158841163
353.31333189781435 21152.27897777914
354.38178452716966 21056.787017319515
355.449962427665 21041.644242945382
356.51786568702846 20966.880917916053
357.58549439294256 21087.534488471476
358.6528486330535 21146.36440867081
359.71992849496564 20960.58434926031
360.7867340662433 20954.56097046312
361.8532654344144 20998.818385613093
362.9195226869597 20991.457649156197
363.9855059113288 20987.005122329887
365.05121519492604 20805.995389128966
366.11665062511565 21060.0250105375
367.1818122892273 20980.35582460086
368.2467002745434 21092.245741005958
369.31131466831175 21078.925801641108
370.375655557742 20933.16075611287
371.4397230299983 21039.789943269978
372.5035171722102 20970.13386363506
373.5670380714637 20935.41932628901
374.6302858148101 21174.697069235022
375.6932604892554 21087.906646265925
376.7559621817709 21078.405537184874
377.81839097928605 20808.73898807686
378.8805469686886 20906.131682634663
379.94243023683157 21007.05846496534
381.0040408705263 20968.556232234238
382.0653789565458 20797.23665630502
383.1264445816196 20883.163243783554
384.1872378324406 20907.90547280444
385.2477587956637 20858.696227326356
386.3080075579037 20646.885912772086
387.3679842057336 20584.133710782662
388.4276888256918 20673.072937084296
389.48712150426945 20571.559181705547
390.54628232792857 20507.80623755602
391.6051713830857 20411.539112850704
392.66378875611736 20484.185629639007
393.7221345333637 20384.88505987655
394.7802088011249 20371.636810567645
395.838011645661 20370.938793875008
396.89554315319765 20230.806981008725
397.9528034099112 20154.626869139654
399.00979250194723 20058.07368588019
400.06651051541485 20050.426411932833
401.1229575363741 20089.543133245792
402.17913365085224 19999.747511765385
403.23503894483656 20066.63266402998
404.2906735042761 19897.985510279697
405.3460374150818 19802.955605388182
406.401130763119 19797.964179069742
407.455953634224 19794.021852914884
408.5105061141876 19754.856287672315
409.56478828876243 19601.247780968326
410.6188002436629 19537.64323584955
411.6725420645689 19535.402639154323
412.72601383711117 19612.648966010755
413.77921564689314 19558.684445571307
414.8321475794728 19490.85793348328
415.88480972036814 19313.651967683814
416.93720215506437 19451.39464282667
417.9893249690049 19227.4723785457
419.04117824759123 19150.6090563728
420.09276207619223 19154.067179952366
421.144076540133 19177.896129291537
422.1951217247042 19133.81668204851
423.24589771515275 19140.98331350961
424.2964045966928 19097.5235615289
425.34664245449494 19119.420122304873
426.3966113736933 19021.604684138285
427.4463114393875 19026.768055795663
428.49574273662984 19086.425533567573
429.5449053504417 19036.53950349089
430.5937993658026 19039.613415806198
431.6424248676558 18824.529887494817
432.6907819409007 18934.891418216586
433.73887067040596 18968.231904388802
434.7866911409965 18921.660513254894
435.8342434374608 18816.504357124842
436.88152764455117 18791.31225550919
437.9285438469724 18740.063983584034
438.9752921294057 18707.386702842643
440.02177257648145 18648.74710813145
441.06798527279716 18457.97789490946
442.1139303029122 18802.424915674397
443.1596077513459 18784.4609435729
444.2050177025794 18656.80141284742
445.25016024105753 18638.18337543349
446.2950354511886 18542.58386018592
447.33964341733736 18527.73683704531
448.383984223834 18495.85407824515
449.4280579549686 18406.78238741758
450.471864694995 18460.62063274197
451.5154045281306 18528.31083803949
452.5586775385509 18469.280987133967
453.60168381039693 18417.391739258386
454.64442342776783 18507.602841364387
455.6868964747264 18418.58767357592
456.7291030353008 18303.480694664617
457.77104319347563 18437.66768303942
458.8127170332027 18337.09779842433
459.854124638392 18408.30951937055
460.895266092919 18454.66514313849
461.93614148061897 18431.214439196017
462.97675088529104 18520.772767209633
464.01709439069236 18430.8150457224
465.0571720805492 18452.913936285866
466.0969840385442 18390.532855208025
467.1365303483253 18522.48087768677
468.17581109350067 18348.163409114648
469.2148263576437 18359.675777842458
470.2535762242878 18384.498581899366
471.29206077693016 18507.663099866677
472.33028009902773 18559.931098522015
473.3682342740012 18609.76181702257
474.40592338523857 18484.742090142772
475.4433475160804 18574.59081254043
476.4805067498364 18525.353593274598
477.51740116978 18575.19935142766
478.5540308591426 18688.486006451472
479.59039590112116 18827.614847132783
480.6264963788726 18736.84933666273
481.6623323755193 18877.72540879195
482.6979039741436 18912.512637648688
483.7332112577915 19093.168168802127
484.76825430947247 19186.12903694801
485.80303321215797 19293.367586313012
486.837548048783 19234.9514707736
487.8717989022425 19434.0932926553
488.90578585539697 19394.04421501439
489.9395089910686 19607.725132510022
490.97296839203955 19432.59153643874
492.00616414106116 19254.890297988222
493.0390963208429 19294.75387464269
494.0717650140559 19316.058535085827
495.10417030333883 19224.04496625629
496.1363122712901 19133.421150328613
497.16819100046814 18936.300881892384
498.1998065734024 18827.85948377732
499.2311590725767 18675.264442063904
500.26224858044407 18578.76280667863
501.2930751794156 18424.347529666622
502.3236389518679 18435.41356480447
503.35393998014115 18173.611102349743
504.38397834653733 18195.16582527655
505.4137541333221 18165.72187888616
506.4432674227228 17961.03043569959
507.4725182969323 17905.43914669969
508.5015068381035 17825.92495344791
509.53023312835467 17816.189481043395
510.55869724976765 17715.09432641819
511.58689928438434 17567.38475080939
512.6148393142121 17611.711360173587
513.6425174212218 17676.058741692515
514.6699336873462 17617.964576104438
515.6970881944835 17647.02842096843
516.7239810244901 17506.232764107517
517.7506122591931 17546.179472442298
518.7769819803761 17588.548248106108
519.8030902697901 17547.047745196447
520.8289372091476 17445.336685481416
521.8545228801249 17617.283610712195
522.8798473643619 17511.05845233397
523.9049107434621 17531.842038502517
524.9297130989908 17470.650846889435
525.9542545124805 17435.91935292929
526.9785350654201 17412.997487468623
528.0025548392696 17365.91351699079
529.0263139154504 17358.513945450955
530.0498123753423 17312.81098102519
531.073050300296 17265.865467672906
532.0960277716204 17118.011108316958
533.1187448705896 17166.47896353694
534.1412016784416 17080.588990901226
535.1633982763833 17058.375552679354
536.1853347455726 16954.022736080547
537.2070111671401 16961.612219340932
538.2284276221817 16857.889268582447
539.2495841917516 16805.612890959517
540.2704809568677 16756.283707829738
541.2911179985167 16785.702793733806
542.3114953976419 16651.22824421634
543.3316132351592 16570.612551777354
544.3514715919409 16533.2938922945
545.3710705488247 16505.49393631702
546.3904101866156 16475.449850295772
547.4094905860784 16521.381974808282
548.4283118279418 16396.39161903556
549.4468739929034 16483.40329405344
550.4651771616191 16292.329201573715
551.4832214147063 16270.848473238526
552.501006832761 16363.156535388753
553.5185334963226 16250.154421328592
554.5358014859103 16327.238112868567
555.5528108820035 16335.809845721466
556.5695617650363 16175.89080951949
557.5860542154242 16401.968004608087
558.6022883135283 16215.582783197993
559.6182641396881 16159.567459713337
560.6339817741991 16209.302858390229
561.6494412973225 16265.388801342982
562.6646427892883 16256.557258151273
563.6795863302796 16208.460578691873
564.694272000459 16196.287487722037
565.7086998799423 16370.803119365644
566.7228700488104 16142.155868251783
567.7367825871115 16167.253822701827
568.7504375748576 16159.389242886376
569.7638350920224 16119.33661683599
570.7769752185486 16127.174000941843
571.7898580343353 16179.037311575457
572.802483619258 16041.677523658398
573.8148520531431 16307.541146091617
574.8269634157932 16212.635442794397
575.8388177869692 16156.951687950981
576.8504152463938 16171.004062292195
577.8617558737587 16407.18960065951
578.8728397487175 16209.032250699642
579.883666950891 16262.424184268462
580.8942375598654 16388.95298511393
581.9045516551851 16400.20711491792
582.9146093163617 16695.99849515906
583.924410622878 16586.678897070266
584.9339556541727 16438.44880008055
585.9432444896538 16630.049871323157
586.9522772086875 16501.050500155812
587.9610538906127 16655.673046827054
588.9695746147318 16549.387588737365
589.9778394603054 16673.951649353847
590.985848506567 16496.414735918777
591.9936018327098 16534.84540099049
593.0010995178891 16337.119544412799
594.0083416412344 16484.87784845957
595.0153282818283 16267.000938557918
596.0220595187293 16264.477031160282
597.0285354309508 16135.330916600888
598.0347560974806 16167.499113784352
599.0407215972609 16133.890057487442
600.0464320092051 16057.67968917562
601.0518874121954 15991.321808917584
602.0570878850685 16009.255884317423
603.062033506636 15934.066572497535
604.0667243556636 16018.621892760963
605.0711605108936 15847.422785239163
606.0753420510264 16080.793135520487
607.0792690547278 15971.78625742463
608.082941600629 15888.043153289094
609.0863597673306 15923.04941941137
610.0895236333909 16042.000682130465
611.0924332773357 16287.165531750075
612.0950887776617 16187.21792511339
613.0974902128219 16207.161729711548
614.0996376612384 16360.633430048674
615.1015312013005 16520.344388895006
616.1031709113595 16593.49970694825
617.1045568697336 16497.857803183502
618.1056891547069 16669.938735525764
619.1065678445229 16825.235923478052
620.1071930173985 17241.243343653252
621.1075647515099 17132.159333250165
622.1076831250048 17264.702280221354
623.1075482159849 17462.945605266785
624.1071601025305 17497.776647661824
625.1065188626781 17806.775584163606
626.105624574433 18000.725563088312
627.1044773157682 18119.227805041173
628.1030771646128 18103.100692241675
629.1014241988742 18311.59993820239
630.0995184964158 18426.25210966616
631.0973601350688 18511.887814055972
632.0949491926294 18740.3853607505
633.0922857468631 18355.64034063335
634.089369875499 18523.36043077448
635.0862016562278 18495.87330116831
636.0827811667077 18229.77062582733
637.0791084845641 18255.017618487218
638.0751836873878 18024.63637731445
639.0710068527369 17973.80683395335
640.0665780581294 17758.145090999198
641.0618973810506 17552.067999830608
642.0569648989604 17483.50897672635
643.0517806892676 17288.600421220613
644.0463448293649 17242.442513810463
645.040657396592 17017.71718294057
646.0347184682723 16848.967246221375
647.0285281216875 16702.931807690627
648.0220864340772 16609.94278789257
649.0153934826558 16509.561898039894
650.0084493446047 16542.87497203334
651.0012540970674 16360.879460098538
651.9938078171526 16258.467331321855
652.9861105819346 16206.502119431234
653.9781624684565 16187.848833733904
654.9699635537254 16024.06121236927
655.9615139147136 16075.518584124318
656.9528136283589 15922.053230711696
657.9438627715699 16008.787573259946
658.9346614212154 15873.890974980628
659.925209654135 15639.570249194057
660.9155075471263 15694.250764134025
661.9055551769616 15749.437737063077
662.895352620375 15840.07110901209
663.8848999540678 15673.761139017577
664.8741972547068 15484.721435520676
665.863244598926 15520.790376774374
666.8520420633213 15650.81637676295
667.8405897244611 15484.52778310776
668.8288876588758 15305.51636010308
669.8169359430613 15549.148241493207
670.8047346534822 15457.721100947592
671.7922838665672 15277.149277779792
672.7795836587156 15361.169323494527
673.766634106285 15531.06296819856
674.7534352856092 15264.804533491322
675.7399872729766 15287.370511493578
676.7262901446538 15337.905415003308
677.712343976862 15344.140325036995
678.6981488457986 15438.716142066023
679.6837048276229 15163.49420974226
680.6690119984596 15225.670043775724
681.6540704344043 15328.727482809869
682.6388802115107 15176.647911257178
683.6234414058108 15158.578861119424
684.6077540932874 15029.358413508016
685.591818349907 15167.73425685772
686.575634251587 15054.99856389735
687.5592018742263 15010.13916769377
688.5425212936734 14768.48471734421
689.5255925857564 15029.038838967657
690.5084158262707 14936.879143682509
691.4909910909646 14809.063926935909
692.4733184555644 14671.819171538355
693.4553979957618 14775.028978792212
694.4372297872123 14810.406166314593
695.4188139055404 14612.9749005695
696.4001504263324 14483.645359396653
697.3812394251509 14679.647555852298
698.3620809775111 14586.8713929152
699.3426751589104 14586.448649031669
700.3230220448004 14441.46322229895
701.3031217106054 14594.53893903447
702.2829742317172 14680.445275573942
703.2625796834873 14461.974754169505
704.2419381412474 14379.394106311618
705.22104968028 14479.632739206092
706.1999143758458 14440.604191919576
707.178532303169 14420.078951617674
708.1569035374378 14427.179863552956
709.1350281538107 14505.363527202102
710.1129062274158 14414.037755843683
711.0905378333373 14595.12134693242
712.0679230466376 14556.89965590467
713.0450619423427 14694.878419663266
714.0219545954424 14742.234828245
714.9986010808989 14577.258666316371
715.9750014736292 14604.020150454677
716.9511558485392 14805.607905831203
717.9270642804786 14900.182049271514
718.9027268442787 14945.596130565016
719.8781436147328 14817.671307033344
720.8533146666014 14809.377934528213
721.828240074612 14781.8002246958
722.8029199134635 14830.94041839401
723.7773542578125 14671.229610199938
724.751543182294 14650.899188922855
725.7254867615029 14650.953364454093
726.6991850700015 14492.949580976672
727.6726381823228 14440.149907446616
728.6458461729599 14402.728365357543
729.6188091163858 14418.328060389036
730.5915270870246 14467.473707013323
731.5640001592856 14336.514462317671
732.536228407529 14315.566138568602
733.5082119060917 14415.010762572178
734.4799507292755 14247.41951861187
735.4514449513481 14277.608873746165
736.4226946465496 14444.196575571594
737.3936998890786 14409.192986665603
738.3644607531078 14203.113182683786
739.3349773127793 14215.930297519744
740.3052496421951 14305.873237156304
741.27527781543 14135.741801819124
742.2450619065221 14010.19519307735
743.2146019894826 14052.496979870391
744.183898138288 14028.435560417594
745.1529504268801 13911.786809606177
746.1217589291682 13809.114369614535
747.0903237190341 13763.786420393448
748.058644870318 13746.62225414551
749.0267224568397 13763.856472559599
749.994556552374 13596.288133516817
750.9621472306771 13616.773022369103
751.9294945654583 13649.02638608024
752.8965986304011 13629.63241433732
753.8634594991636 13529.047440767186
754.8300772453586 13630.031143300952
755.7964519425768 13534.408814465864
756.762583664371 13607.3788351533
757.7284724842611 13741.57340476923
758.6941184757416 13558.190781873298
759.6595217122667 13557.753879522308
760.6246822672638 13569.846834211985
761.5896002141235 13486.361429268945
762.5542756262093 13416.935494714027
763.5187085768503 13541.271877745181
764.4828991393406 13431.40098532701
765.4468473869474 13471.890154661745
766.4105533929032 13406.31327931778
767.3740172304078 13311.156080211633
768.3372389726283 13443.975212229925
769.3002186926988 13254.927449656916
770.2629564637282 13163.576275244273
771.2254523587872 13230.113910932007
772.1877064509154 13111.482362947378
773.1497188131179 12964.986683001986
774.1114895183728 12958.734508937414
775.0730186396268 12957.607439027171
776.0343062497905 12857.801452973563
776.9953524217381 12893.769859286582
777.9561572283274 12858.7127942084
778.9167207423689 12889.641580836682
779.8770430366476 12820.778737688472
780.8371241839159 12822.493133162998
781.7969642568951 12748.083176431674
782.7565633282757 12916.918488844876
783.7159214707099 12747.057719404504
784.6750387568281 12837.937677765203
785.6339152592227 12689.647431518595
786.5925510504512 12676.499115151422
787.5509462030477 12744.826807998743
788.5091007895098 12677.634880277114
789.4670148823006 12726.687410516608
790.4246885538596 12685.653167926339
791.3821218765861 12686.608236313496
792.3393149228505 12596.451679694565
793.2962677649975 12791.938233627972
794.2529804753303 12763.23773694365
795.20945312613 12764.568961510044
796.1656857896378 12654.634671381433
797.1216785380675 12675.869430603489
798.0774314435985 12827.385276834933
799.0329445783846 12954.034568793311
799.9882180145414 12899.873671368707
800.9432518241574 12801.832977439604
801.89804607929 13057.06153552232
802.852600851962 13133.584855470113
803.8069162141637 13009.340489527238
804.760992237856 13129.69672240786
805.714828994971 13316.111201733995
806.6684265574077 13267.562189538605
807.6217849970271 13174.087183950385
808.574904385674 13124.012864386143
809.527784795142 13197.245307649186
810.4804262972102 13307.280869978164
811.4328289636178 13055.663583294448
812.3849928660748 12881.76382128101
813.3369180762638 12883.62248366801
814.2886046658241 12890.139551998185
815.2400527063783 12701.428857088451
816.1912622695108 12591.127485298333
817.1422334267718 12590.011749100155
818.0929662496856 12498.180949801083
819.0434608097457 12362.45086445021
819.9937171784059 12324.453557928244
820.9437354271013 12266.966102137138
821.8935156272255 12305.328688917127
822.8430578501484 12163.063197606316
823.7923621672016 11980.987419298825
824.7414286496896 12158.788799964439
825.6902573688876 12025.70759178803
826.6388483960363 12083.906120273585
827.5872018023492 11861.215678550325
828.5353176590033 12040.874603097249
829.4831960371503 11829.776131980014
830.4308370079016 11927.6248454314
831.3782406423525 11928.694961034613
832.3254070115545 11934.81554608306
833.2723361865319 11782.146693842562
834.2190282382799 11805.120127026328
835.1654832377644 11766.140003385486
836.1117012559116 11786.018990427601
837.0576823636256 11908.448871643408
838.003426631778 11649.88419468696
838.9489341312074 11701.090937549536
839.8942049327197 11898.833762843175
840.8392391070975 11887.845139040071
841.7840367250865 11800.361355983652
842.7285978573982 11706.050568166474
843.672922574724 11898.383401703333
844.6170109477152 11742.962309693427
845.560863046996 11753.286608428421
846.5044789431595 11649.835328396108
847.4478587067697 11689.119551402919
848.3910024083561 11785.630717367192
849.333910118421 11778.351979757885
850.2765819074339 11570.200519189482
851.2190178458332 11769.083403528863
852.161218004032 11788.553258660975
853.1031824524016 11704.134274368005
854.0449112612987 11610.781950027218
854.9864045010327 11675.721171926012
855.9276622418947 11561.099957642538
856.8686845541379 11706.964562670653
857.8094715079915 11610.810148092982
858.7500231736467 11806.919918699947
859.690339621271 11679.844270178919
860.6304209209939 11707.1431215345
861.5702671429244 11520.776749532784
862.5098783571284 11687.076909447285
863.4492546336569 11677.174767137309
864.3883960425155 11600.3644878001
865.3273026536863 11629.448795333583
866.2659745371238 11712.610621218724
867.2044117627465 11840.57959914126
868.1426144004472 11640.901315808147
869.0805825200823 11701.11960874541
870.0183161914847 11787.282791365009
870.9558154844526 11859.26416107408
871.8930804687552 11808.727959277436
872.8301112141307 11705.360081019147
873.7669077902865 11944.500901159696
874.7034702669062 12022.958811380733
875.6397987136315 11950.841246885226
876.5758932000863 11920.718966990209
877.5117537958522 12035.78824776074
878.4473805704911 11878.15688938445
879.3827735935283 11888.402968165745
880.3179329344603 11971.131230475597
881.2528586627541 12102.72363454953
882.1875508478479 12032.952048151807
883.1220095591489 11933.463839210875
884.0562348660296 11803.154250889229
884.9902268378391 12055.499072635086
885.9239855438955 11915.275480668286
886.8575110534839 11772.796982158632
887.7908034358588 11744.796201882558
888.7238627602474 11622.376881683618
889.6566890958475 11710.404762316442
890.5892825118208 11503.921388958981
891.5216430773125 11553.516554507292
892.4537708614189 11599.326685068552
893.3856659332196 11434.905187913984
894.3173283617652 11300.566064468983
895.2487582160684 11350.000101524729
896.179955565116 11293.594389157419
897.110920477864 11227.165970880658
898.0416530232451 11158.864087496568
898.9721532701478 11096.48443460431
899.9024212874428 11243.67070688988
900.8324571439662 11074.529695645866
901.7622609085302 11023.26778214068
902.6918326499072 10863.690208885453
903.6211724368477 11071.39969334276
904.5502803380696 11186.717217200196
905.4791564222614 11186.866360229276
906.4078007580792 10936.027989651988
907.3362134141571 10926.215375405338
908.2643944590909 11092.097090373956
909.1923439614493 10829.221181641245
910.1200619897754 10871.065289405218
911.0475486125779 11148.772056363017
911.9748038983344 10998.513724214094
912.9018279155007 10776.576528678332
913.8286207324982 10791.368971324098
914.7551824177117 10964.32442514665
915.6815130395116 10822.617301635355
916.6076126662283 10713.35524978155
917.533481366163 10775.982465399355
918.4591192075914 10853.756409539985
919.3845262587565 10900.081973069495
920.3097025878706 10729.020632667412
921.2346482631237 10662.001921592737
922.1593633526682 10753.427576960436
923.0838479246304 10776.539014011018
924.0081020471061 10868.927038592745
924.9321257881656 10602.889333645417
925.8559192158464 10709.936447959832
926.7794823981512 10721.28549546504
927.7028154030686 10774.878049385146
928.6259182985414 10584.202739888402
929.5487911524906 10854.506918855743
930.4714340328119 10824.410383608709
931.3938470073608 10534.580654984093
932.3160301439748 10607.731744023415
933.2379835104548 10749.14049675337
934.1597071745709 10757.490300698995
935.0812012040769 10684.960004155884
936.002465666681 10718.093062792192
936.9235006300696 10750.417156127853
937.8443061619055 10789.541051023903
938.7648823298077 10514.079242260665
939.6852292013809 10557.532528167374
940.6053468441951 10687.75500073111
941.5252353257874 10542.967765055726
942.4448947136698 10614.062270064464
943.364325075323 10593.821730217898
944.2835264782043 10633.961125099257
945.2024989897309 10560.822908596616
946.1212426773054 10580.039133850143
947.0397576082851 10598.95593596268
947.9580438500125 10660.829926511888
948.8761014697939 10688.270546481124
949.7939305349064 10735.822827307675
950.7115311125999 10531.198611953183
951.6289032700952 10511.969756960554
952.5460470745875 10609.48173842728
953.4629625932339 10558.008548953481
954.3796498931715 10508.138377202351
955.2961090415029 10598.04224000315
956.2123401053068 10549.008805927468
957.1283431516276 10469.819530148063
958.0441182474842 10412.129137587475
958.9596654598663 10605.387769234925
959.8749848557309 10590.725205398054
960.7900765020167 10425.661535442856
961.7049404656209 10402.802252628844
962.6195768134185 10575.249993147689
963.5339856122537 10542.163283984966
964.4481669289453 10569.773290310673
965.3621208302793 10478.000012575474
966.2758473830145 10435.626843662549
967.1893466538822 10672.704496404553
968.1026187095813 10504.72866105437
969.0156636167867 10413.157524397004
969.9284814421426 10611.214735809388
970.8410722522622 10485.346350246451
971.753436113735 10520.293605180903
972.6655730931161 10386.151535640904
973.5774832569368 10531.080126213548
974.4891666716958 10391.290448648426
975.4006234038698 10381.794596225245
976.3118535198955 10346.15477839188
977.2228570861935 10584.98376288539
978.1336341691494 10494.944025622208
979.0441848351202 10355.759533832126
979.9545091504333 10554.907976514307
980.864607181391 10562.05298857914
981.7744789942699 10549.574417392298
982.6841246553086 10470.699959543937
983.5935442307236 10476.195043286072
984.5027377867027 10539.840740095158
985.4117053894024 10473.943762491033
986.3204471049557 10381.555408971532
987.2289629994648 10564.40488751652
988.1372531390007 10685.907588916329
989.0453175896091 10550.81173554318
989.9531564173067 10631.603976752926
990.860769688079 10497.531490758543
991.7681574678918 10502.82907164897
992.6753198226706 10634.695810134486
993.582256818323 10615.366123975416
994.4889685207218 10613.893999040212
995.3954549957143 10930.217684629997
996.301716309119 10895.210486116823
997.2077525267232 10838.672880477523
998.1135637142943 10642.039325792273
999.0191499375615 10874.27890333145
999.924511262232 10813.426907456666
1000.8296477539861 10901.757319474074
1001.7345594784656 10624.348484262317
1002.6392465012996 10718.118683766808
1003.5437088880753 10661.275291671212
1004.4479467043584 10728.639738993863
1005.3519600156869 10479.941844227693
1006.2557488875718 10613.869287743943
1007.1593133854858 10661.223047454074
1008.0626535748888 10488.152495084101
1008.9657695212009 10356.95174438706
1009.8686612898182 10676.619325034513
1010.7713289461135 10629.26870387408
1011.6737725554212 10538.509350606211
1012.5759921830577 10460.025411508008
1013.4779878943027 10458.232829786868
1014.379759754418 10500.60287938965
1015.2813078286254 10249.866355643342
1016.18263218213 10231.178622208423
1017.0837328801026 10294.47184492883
1017.9846099876886 10401.251307032666
1018.8852635700023 10274.37428989347
1019.7856936921362 10106.763542342278
1020.6859004191447 10409.607255935098
1021.5858838160675 10180.162847056612
1022.4856439479063 10121.122116933562
1023.3851808796389 10029.563838148191
1024.2844946762143 10313.752748153212
1025.183585402554 10189.42745434707
1026.082453123554 9983.606349425343
1026.9810979040776 9979.81218885325
1027.8795198089647 10053.930743033894
1028.777718903024 10058.480264039119
1029.6756952510368 9965.66013725742
1030.5734489177648 9938.593829283656
1031.4709799679313 10002.202141323425
1032.3682884662358 10121.282224053313
1033.2653744773506 9884.281052232978
1034.1622380659192 9899.619164453787
1035.058879296559 10046.99698583305
1035.9552982338591 10051.326812692487
1036.8514949423825 9974.61363178616
1037.7474694866614 9954.092293126034
1038.6432219312028 9985.298426144986
1039.5387523404825 10168.768135523693
1040.4340607789582 10071.651445828977
1041.3291473110476 10021.678743293094
1042.2240120011465 10183.276494859889
1043.1186549136273 10168.44127232175
1044.0130761128294 10120.929335979437
1044.9072756630649 10098.302701500874
1045.8012536286205 10254.44396103173
1046.6950100737577 10176.288761986758
1047.588545062701 10301.09933549727
1048.481858659663 10264.625149948199
1049.3749509288118 10432.33142305617
1050.2678219343034 10107.760945649818
1051.1604717402515 10156.334565911773
1052.0529004107575 10193.3169139038
1052.9451080098825 10267.378989675124
1053.8370946016694 10278.37240029525
1054.7288602501267 10134.276159785488
1055.6204050192446 10155.841041606789
1056.511728972977 10252.168331751978
1057.402832175254 10211.413981622212
1058.2937146899785 10160.849656152383
1059.1843765810263 10102.368477822893
1060.0748179122456 10161.10537517204
1060.9650387474576 10050.04878501958
1061.855039150456 10041.862661647572
1062.7448191850071 10098.086677481198
1063.6343789148505 10196.396942031528
1064.5237184037014 10209.032729960012
1065.412837715241 10073.781419085706
1066.3017369131267 10042.782425661322
1067.190416060992 10012.295403430993
1068.0788752224398 10073.030631998165
1068.9671144610438 10034.127253753859
1069.8551338403558 10112.89545431806
1070.7429334239023 10068.111136783355
1071.6305132751695 9959.266713194727
1072.517873457633 10061.946952535072
1073.4050140347335 9943.633680674391
1074.2919350698776 10056.394221557119
1075.1786366264623 10095.881914375272
1076.0651187678395 9955.428062355848
1076.95138155735 9843.863319358858
1077.8374250582929 9857.292015731164
1078.7232493339507 9921.194084602133
1079.608854447577 9847.217490832541
1080.4942404623907 9837.405840556832
1081.3794074415982 9916.523460096038
1082.2643554483657 9959.027226345705
1083.149084545841 9782.425225801939
1084.033594797138 9685.103478313134
1084.9178862653516 9831.022235744253
1085.8019590135427 9968.912935087163
1086.6858131047484 9731.640210009458
1087.5694486019802 9868.255023076481
1088.4528655682225 9776.556718423157
1089.3360640664287 10009.584631449801
1090.2190441595321 9869.547680390193
1091.1018059104317 9852.602031356195
1091.98434938201 9940.191636312606
1092.866674637111 10054.684839363284
1093.748781738559 9838.154089370397
1094.6306707491512 9682.722595530979
1095.5123417316554 9917.62491793457
1096.3937947488157 9719.95857858569
1097.2750298633455 9766.455074951551
1098.156047137938 9663.455666410671
1099.0368466352556 9866.212459232276
1099.9174284179317 10012.122281852477
1100.7977925485757 9694.11613560616
1101.6779390897755 9684.277348679232
1102.5578681040806 9794.187964626442
1103.4375796540226 9821.039038677527
1104.3170738021054 9754.114805397123
1105.1963506108077 9576.72984738867
1106.0754101425773 9774.401358809422
1106.9542524598382 9736.818124760615
1107.8328776249855 9764.351220583343
1108.7112857003904 9709.73520925713
1109.5894767483987 9711.604157598555
1110.4674508313292 9942.136994434173
1111.3452080114657 9810.937087704011
1112.2227483510815 9876.589946936761
1113.1000719124077 9910.046682968186
1113.9771787576592 10100.901031000632
1114.854068949022 9948.593084651284
1115.7307425486542 10042.542021725665
1116.6071996186893 10211.824221194398
1117.483440221229 10233.912165254564
1118.3594644183577 10178.067944408507
1119.235272272128 10183.499368230927
1120.1108638445658 10346.98559275555
1120.9862391976712 10521.953036930085
1121.8613983934229 10411.544678125352
1122.7363414937627 10515.449225061244
1123.6110685606182 10682.10240272366
1124.485579655884 10745.968181889259
1125.359874841426 10683.57331164316
1126.2339541790916 10683.763338330571
1127.1078177306936 11034.28495485001
1127.9814655580267 10697.669342939207
1128.854897722851 10797.97729036278
1129.7281142869106 10821.264616318795
1130.6011153119125 10796.257026413608
1131.473900859548 10968.41365630588
1132.3464709914697 10704.501381735718
1133.2188257693178 10693.346065038288
1134.0909652546961 10619.560998032775
1134.96288950919 10525.057831986287
1135.8345985943506 10605.573926119056
1136.7060925717087 10443.723324683928
1137.57737150277 10477.000631242408
1138.4484354490069 10506.940882120227
1139.3192844718778 10369.228753556195
1140.1899186327992 10051.376222633702
1141.060337993178 10318.257440831312
1141.930542614382 10210.500966486154
1142.8005325577597 10080.59716916861
1143.670307884635 9875.431634157187
1144.5398686563003 10070.182713904012
1145.409214934025 9961.735985491021
1146.2783467790541 9717.858220862105
1147.1472642526023 9808.500145836524
1148.0159674158622 9808.966768801929
1148.8844563300026 9683.88393620164
1149.7527310561618 9721.164897276347
1150.6207916554504 9528.971385876683
1151.4886381889592 9594.134280157396
1152.3562707177498 9622.729136641425
1153.2236893028585 9524.399603246293
1154.090894005296 9551.024125939277
1154.9578848860474 9617.63820358527
1155.8246620060709 9554.50052265931
1156.6912254262988 9470.362677101552
1157.5575752076438 9446.942622121027
1158.42371141098 9588.317952711284
1159.2896340971656 9550.88255961876
1160.1553433270346 9396.682570444496
1161.0208391613887 9382.568291720969
1161.8861216610057 9521.315746994185
1162.75119088664 9465.763955422168
1163.6160468990201 9419.682486485824
1164.4806897588442 9299.597585659369
1165.3451195267917 9505.876154396938
1166.2093362635114 9425.658945551406
1167.0733400296285 9426.380350367632
1167.9371308857444 9288.2454815735
1168.8007088924278 9400.503486329999
1169.6640741102328 9328.398012836122
1170.5272265996773 9206.17813911032
1171.390166421259 9171.688336231964
1172.252893635452 9405.142793074489
1173.1154083026995 9531.172221746743
1173.977710483421 9377.460389667765
1174.8398002380145 9196.812488211079
1175.7016776268483 9389.390305397497
1176.563342710264 9286.20550681031
1177.4247955485826 9295.842732546476
1178.2860362020947 9325.061996078583
1179.147064731069 9231.610041391797
1180.0078811957483 9411.973497453593
1180.8684856563486 9277.536160898995
1181.7288781730604 9381.66484983174
1182.589058806052 9499.705557541636
1183.4490276154593 9630.546595979113
1184.3087846614017 9348.911640229548
1185.1683300039676 9473.44131390908
1186.027663703222 9658.605614550765
1186.8867858192025 9514.62204946263
1187.7456964119228 9498.084614965595
1188.6043955413716 9520.086769515729
1189.4628832675116 9613.477408181234
1190.3211596502842 9789.836902784073
1191.179224749596 9697.293617025736
1192.0370786253388 9631.08494351485
1192.8947213373758 9737.611539111693
1193.7521529455407 9976.911718253537
1194.6093735096438 9582.456294129463
1195.466383089477 9732.794442690178
1196.3231817447977 9694.975758617951
1197.1797695353398 9884.377351095101
1198.0361465208189 9641.743960765129
1198.8923127609214 9598.133600706724
1199.7482683153048 9873.718274225193
1200.6040132436028 9913.355933076504
1201.459547605431 9670.80236446193
1202.3148714603722 9764.352093550551
1203.1699848679855 9693.444349402405
1204.0248878878065 9783.644111957303
1204.8795805793507 9525.697069545377
1205.7340630020935 9667.430902494585
1206.5883352155033 9764.790431304613
1207.4423972790064 9757.937598975683
1208.2962492520237 9528.880942899468
1209.1498911939307 9487.783876192885
1210.0033231640937 9655.52145608891
1210.8565452218427 9565.731384999814
1211.7095574264913 9307.26197590697
1212.5623598373222 9347.027352740115
1213.4149525135963 9399.27936986352
1214.2673355145507 9436.659549850147
1215.1195088993936 9281.537728159903
1215.9714727273113 9378.064328460354
1216.8232270574663 9488.928908806842
1217.6747719489904 9215.518376605016
1218.5261074609934 9236.133471767756
1219.3772336525653 9262.919141954551
1220.2281505827668 9371.59125238344
1221.0788583106296 9424.319698641508
1221.9293568951707 9236.414040672787
1222.7796463953746 9085.889445649764
1223.629726870202 9370.450067528804
1224.4795983785934 9311.461313817468
1225.3292609794553 9308.227022550589
1226.1787147316809 9170.75841731855
1227.0279596941327 9283.061572974008
1227.8769959256424 9176.651979601224
1228.7258234850306 9257.274505640507
1229.5744424310833 9053.70273122418
1230.422852822563 9365.005910486649
1231.2710547182105 9477.873350643262
1232.119048176739 9299.323612114615
1232.9668332568417 9150.7436604675
1233.8144100171812 9402.097611603247
1234.6617785163999 9322.035270206385
1235.508938813111 8997.517315851419
1236.3558909659114 9197.953481820545
1237.2026350333617 9321.706329075367
1238.049171074008 9427.256940985253
1238.8954991463652 9219.657652612888
1239.741619308932 9154.622248278385
1240.587531620169 9304.611497975351
1241.4332361385277 9342.109033003693
1242.2787329224248 9151.211154111621
1243.1240220302534 9059.121739725173
1243.9691035203869 8996.422499964847
1244.813977451171 9318.79393982739
1245.6586438809263 9156.36462707518
1246.5031028679496 8928.290884148753
1247.3473544705157 9209.106763168826
1248.1913987468706 9120.723418299307
1249.0352357552383 8959.284978891279
1249.8788655538228 8993.9826502707
1250.7222882007918 9122.352821801936
1251.565503754302 9124.711851567099
1252.4085122724755 8831.725895648928
1253.2513138134182 9100.773841089549
1254.0939084352049 9084.925160741692
1254.9362961958905 8987.795957447936
1255.7784771535007 8943.749628372649
1256.6204513660432 9067.541690436678
1257.4622188915 9218.520551611424
1258.3037797878242 8965.397721608924
1259.1451341129468 8904.583232911169
1259.9862819247755 9068.837851817232
1260.8272232811978 8966.453871297086
1261.6679582400666 9172.966279747165
1262.5084868592203 8831.163838066695
1263.34880919647 8852.485746944416
1264.1889253095997 8908.677500711467
1265.0288352563712 9002.551441068423
1265.8685390945266 8860.293254175489
1266.7080368817751 8942.062434028656
1267.5473286758115 8974.208081339662
1268.386414534294 8957.577483855628
1269.2252945148703 8820.504077214091
1270.0639686751547 8773.148372976633
1270.9024370727402 8834.141870156152
1271.7406997651997 8800.208778471724
1272.5787568100714 8670.43253070352
1273.4166082648808 8714.839173869726
1274.2542541871244 8853.058603827365
1275.091694634275 8973.926138800303
1275.9289296637817 8669.578874427607
1276.7659593330663 8910.112938509646
1277.6027836995308 8767.230861170963
1278.4394028205552 8969.587363786883
1279.2758167534867 8788.839623104412
1280.112025555658 8673.955853870028
1280.9480292843746 8918.818668424388
1281.7838279969128 8614.192638380151
1282.6194217505326 8732.944195882144
1283.4548106024686 8576.480512724125
1284.289994609926 8781.19054714127
1285.1249738300921 8789.418730768059
1285.959748320127 8635.782449300264
1286.7943181371702 8619.261154025298
1287.6286833383328 8685.953548270896
1288.4628439807038 8775.837153187367
1289.2968001213521 8729.19655393872
1290.1305518173194 8655.893891940395
1290.9640991256183 8784.563960534168
1291.7974421032523 8688.794612487145
1292.630580807183 8591.236139484237
1293.463515294361 8750.84990871295
1294.29624562171 8908.228539651067
1295.12877184613 8758.133152879105
1295.961094024493 8645.255887117151
1296.79321221365 8764.869871061537
1297.6251264704333 8771.45243109439
1298.4568368516466 8893.365973846052
1299.2883434140658 8757.407373233513
1300.1196462144526 8632.628891864364
1300.9507453095375 8755.383460393587
1301.7816407560313 8806.886591907065
1302.6123326106172 8835.161256838219
1303.4428209299622 8648.96137903655
1304.2731057707024 9049.867604627354
1305.1031871894502 8754.720146511707
1305.933065242798 8866.785192798308
1306.7627399873181 8746.063214740443
1307.5922114795467 9106.597937201457
1308.4214797760123 8961.502809860196
1309.2505449332057 8882.547627006734
1310.0794070076026 8902.01739226855
1310.9080660556538 9006.58274628771
1311.736522133786 9064.345609586944
1312.5647752983987 8869.147621550172
1313.3928256058734 8746.914523840645
1314.2206731125661 8955.095770844859
1315.048317874809 8908.140776193735
1315.8757599489109 8805.19834067782
1316.7029993911547 8853.458804230093
1317.5300362578055 9083.5908691808
1318.356870605101 8794.842867789357
1319.183502489257 8815.207694010282
1320.0099319664623 8942.534290284071
1320.836159092889 8870.303037619982
1321.66218392468 8858.519038187722
1322.4880065179532 8657.291393597234
1323.3136269288134 8810.827197984454
1324.1390452133292 8925.209329141137
1324.9642614275563 8978.373713245019
1325.7892756275214 8737.353058155284
1326.6140878692295 8690.944196965964
1327.4386982086617 9236.394021098491
1328.2631067017755 8844.65276029862
1329.0873134045069 8957.650563634548
1329.911318372764 8698.613488639261
1330.735121662441 8864.976356441886
1331.558723329399 8786.927552064593
1332.3821234294774 8659.765103597376
1333.2053220185007 8665.535643121813
1334.0283191522612 8697.37818235241
1334.851114886529 8778.559389920685
1335.6737092770582 8567.724692241618
1336.4961023795695 8587.03546580531
1337.3182942497697 8514.057926405421
1338.1402849433325 8691.31603931855
1338.962074515921 8500.356080388883
1339.7836630231632 8440.212036497693
1340.6050505206676 8891.762699644374
1341.426237064028 8693.730383345604
1342.2472227088037 8540.362628870542
1343.0680075105338 8457.584211020545
1343.888591524741 8500.375932601479
1344.7089748069138 8686.630606219729
1345.5291574125276 8470.542864356723
1346.3491393970307 8319.438534256984
1347.168920815846 8497.092857471518
1347.9885017243778 8618.857968397124
1348.8078821780036 8444.451730530109
1349.6270622320844 8429.340106822807
1350.4460419419447 8389.63795427383
1351.2648213629054 8510.74839111784
1352.0834005502438 8273.390719170533
1352.90177955923 8268.41781517248
1353.7199584451064 8475.504934948316
1354.5379372630887 8464.731189046097
1355.355716068374 8325.580661511238
1356.1732949161305 8184.395622918253
1356.9906738615155 8419.269289852524
1357.8078529596478 8364.45178169432
1358.6248322656375 8329.226562720254
1359.441611834567 8239.02278752277
1360.2581917214866 8397.993534728193
1361.0745719814367 8308.44891679087
1361.890752669433 8217.659455977928
1362.7067338404577 8120.758568597729
1363.5225155494845 8309.513535078944
1364.3380978514506 8458.218982101058
1365.1534808012839 8091.443160098439
1365.9686644538815 7961.9208250545535
1366.783648864117 8439.436003867615
1367.5984340868417 8343.996481185693
1368.413020176893 8286.336939998288
1369.2274071890715 7962.325150388415
1370.0415951781652 8453.483190326555
1370.8555841989346 8206.578902983532
1371.6693743061223 8184.016724045825
1372.48296555444 8038.7345899390275
1373.2963579985844 8234.989289969235
1374.1095516932255 8262.485011732324
1374.9225466930166 7966.930798034466
1375.7353430525782 8173.588523738635
1376.5479408265164 8155.336482356493
1377.36034006941 8315.507076504771
1378.1725408358216 8264.865620390014
1378.9845431802805 7996.583305416396
1379.796347157304 8490.341093088007
1380.6079528213813 8321.435102673482
1381.4193602269788 8039.292927294508
1382.230569428546 7997.429825963185
1383.0415804805016 8257.964400316248
1383.852393437246 8207.019522859686
1384.6630083531563 8251.055620207862
1385.4734252825892 8094.161492453272
1386.2836442798798 8215.97190722919
1387.0936653993322 8338.312647476612
1387.9034886952395 8022.618631449439
1388.713114221864 8132.261230419182
1389.5225420334482 8080.8175100741355
1390.331772184214 8042.102835194166
1391.1408047283585 7850.114469746835
1391.9496397200564 8022.980149134752
1392.758277213461 8160.270180154572
1393.5667172627054 8121.54743509589
1394.3749599218918 8018.3706100076215
1395.1830052451114 7736.677218197928
1395.9908532864265 7893.520253839316
1396.7985040998774 8039.040005929457
1397.6059577394808 7845.00941820218
1398.4132142592352 7815.369957363752
1399.2202737131156 7751.784157239448
1400.027136155073 7993.3394860098315
1400.8338016390353 7762.167109829259
1401.6402702189134 7651.77838770567
1402.446541948586 7736.24829860107
1403.2526168819204 7767.398017959221
1404.058495072757 7536.378459331713
1404.8641765749107 7625.786014121239
1405.6696614421799 7683.524801206882
1406.4749497283356 7986.618642386956
1407.280041487129 7554.28240833483
1408.084936772295 7348.010417599818
1408.8896356375335 7693.147393634956
1409.6941381365323 7571.076806157292
1410.498444322955 7328.879706617905
1411.3025542504402 7541.22692169772
1412.106467972606 7643.888811679501
1412.9101855430508 7513.021714460583
1413.7137070153458 7224.825885651715
1414.5170324430437 7334.969884182293
1415.320161879672 7511.868658997693
1416.1230953787435 7697.162040074613
1416.925832993742 7424.525059573403
1417.7283747781275 7157.6990209329815
1418.5307207853439 7539.132985717323
1419.3328710688093 7255.052059093412
1420.134825681922 7153.876285089352
1420.9365846780584 7175.836223903677
1421.7381481105713 7566.560237401087
1422.539516032788 7354.370553271755
1423.3406884980232 7234.933459063024
1424.1416655595604 7094.891695897587
1424.942447270665 7267.170439743287
1425.7430336845828 7289.19686975994
1426.5434248545298 7119.0572691793
1427.3436208337116 7287.672692993679
1428.143621675301 7270.188482566967
1428.9434274324558 7420.630724940381
1429.7430381583108 7089.17072617737
1430.5424539059713 7091.601937383969
1431.3416747285337 7616.697565272798
1432.1407006790632 7411.7189767685295
1432.9395318106053 7201.229861465809
1433.7381681761835 7062.371976589029
1434.5366098288014 7341.751904745967
1435.3348568214424 7331.116871709494
1436.1329092070573 7150.0275702900035
1436.9307670385879 7142.190111374262
1437.7284303689503 7483.261119286054
1438.5258992510335 7406.572833355853
1439.3231737377118 7234.042022149882
1440.1202538818306 7176.7770405462825
1440.9171397362225 7184.541757659684
1441.7138313536925 7230.714228665335
1442.5103287870243 7110.666375215158
1443.3066320889775 6946.4061810135
1444.1027413122956 7355.9300100286655
1444.8986565096966 7246.7238739950535
1445.694377733882 7120.358991532734
1446.4899050375207 7016.877712860483
1447.2852384732687 7130.267097733309
1448.0803780937622 7308.961332056337
1448.8753239516063 6995.049139634456
1449.6700760993954 6909.271906226399
1450.464634589689 7031.539300903863
1451.2589994750397 7329.549884880682
1452.0531708079689 6931.981925869618
1452.8471486409799 6822.796665734119
1453.6409330265524 7123.891148411849
1454.4345240171442 6990.838296364709
1455.2279216651987 6941.985991435833
1456.0211260231263 6910.459453556435
1456.8141371433194 7147.638769090647
1457.6069550781594 7215.4694070154055
1458.3995798799897 6787.695731932616
1459.1920116011424 6857.833625173631
1459.98425029393 6818.306404868793
1460.7762960106338 6848.381616085613
1461.5681488035225 6842.907627463556
1462.3598087248392 6887.897736265424
1463.1512758268036 7065.032727699416
1463.942550161617 6830.2477172303525
1464.7336317814625 6713.500079136461
1465.524520738496 6846.381126042143
1466.3152170848552 6761.61962581306
1467.1057208726506 6932.091241278261
1467.8960321539817 6798.593330458399
1468.6861509809169 6745.431893493745
1469.4760774055085 6742.234999016806
1470.265811479785 6888.036264776102
1471.055353255755 6723.061494250665
1471.844702785409 6602.899829063771
1472.6338601207044 6822.237945765992
1473.4228253135934 6959.82562699524
1474.2115984159936 6556.607902359012
1475.0001794798063 6608.68669367031
1475.7885685569145 6860.568129198267
1476.576765699172 6693.681545217053
1477.3647709584238 6667.9770940672115
1478.1525843864802 6957.334071889479
1478.9402060351367 6844.747994615541
1479.7276359561693 6868.482288375117
1480.514874201328 6617.395923068039
1481.3019208223468 6543.464823227252
1482.0887758709323 6592.7747308218195
1482.8754393987747 6857.222784703532
1483.6619114575406 6650.645098222039
1484.4481920988783 6705.54991911795
1485.2342813744108 6821.697513423441
1486.0201793357446 6897.900676886149
1486.8058860344572 6595.045599723079
1487.591401522117 6598.047396882142
1488.3767258502594 6659.354717161351
1489.1618590704056 6781.990413777076
1489.9468012340494 6465.047947495532
1490.7315523926754 6700.111152037175
1491.5161125977356 6810.425952471783
1492.3004819006637 6682.552125908514
1493.084660352877 6510.27927506196
1493.8686480057622 6716.873117459564
1494.6524449106964 6982.087909224603
1495.4360511190262 6808.244304749615
1496.219466682087 6673.620997698233
1497.0026916511779 6624.278928787748
1497.7857260775945 6687.285473373701
1498.5685700125996 6740.176604542887
1499.3512235074395 6586.632941058308
1500.133686613337 6492.855124742027
1500.9159593814966 6545.924093508916
1501.698041863101 7064.01969312642
1502.4799341093094 6526.930180660812
1503.2616361712662 6305.301900525489
1504.043148100087 6693.789186355204
1504.8244699468742 6706.746862609043
1505.6056017626997 6382.978066400827
1506.3865435986281 6438.043101431473
1507.1672955056893 6727.583207317977
1507.9478575348967 6512.385305473023
1508.7282297372512 6719.325922026107
1509.5084121637192 6522.212431854453
1510.2884048652577 6635.089987572113
1511.0682078927948 6444.391066189395
1511.8478212972423 6499.635265595001
1512.6272451294917 6389.059430935153
1513.4064794404076 6547.387705995364
1514.1855242808433 6646.978471962112
1514.9643797016215 6431.35918007956
1515.743045753552 6677.121530960326
1516.5215224874191 6553.268434804606
1517.2998099539836 6360.825972569915
1518.077908203999 6416.539948989283
1518.8558172881785 6371.642297303151
1519.633537257234 6694.868204310727
1520.4110681618404 6580.749654492381
1521.1884100526604 6449.022209319193
1521.9655629803365 6362.443312746323
1522.7425269954856 6633.585120606933
1523.5193021487103 6807.733034214949
1524.2958884905856 6358.94717967899
1525.0722860716687 6442.763278783661
1525.848494942502 6340.68549990496
1526.624515153595 6485.172688246812
1527.4003467554485 6421.506884727299
1528.175989798534 6628.860823370984
1528.9514443333064 6505.423446033987
1529.726710410203 6686.503556050162
1530.5017880796331 6359.487946438244
1531.276677391992 6305.025473652067
1532.0513783976457 6598.913189459551
1532.825891146953 6491.7757458404785
1533.6002156902414 6546.809879687277
1534.3743520778207 6452.294678683758
1535.1483003599806 6476.41786770934
1535.9220605869923 6462.996928749749
1536.6956328091019 6415.791635948971
1537.4690170765407 6431.474218526202
1538.242213439511 6497.165472946661
1539.015221948208 6455.906575570634
1539.78804265279 6381.206379280045
1540.560675603405 6230.544576766192
1541.3331208501804 6585.142329843019
1542.1053784432224 6590.073126399549
1542.8774484326168 6409.639755646854
1543.649330868422 6408.234079118074
1544.4210258006842 6472.238459067494
1545.1925332794308 6465.3333281
1545.9638533546604 6331.361822567778
1546.7349860763552 6380.185268052761
1547.5059314944829 6718.639479475462
1548.27668965898 6399.260112665567
1549.0472606197673 6374.0862802770625
1549.817644426752 6291.79934592373
1550.5878411298072 6573.563500844374
1551.3578507787988 6479.13395619415
1552.1276734235635 6260.496848676323
1552.8973091139233 6530.181323176819
1553.6667578996767 6543.800901154874
1554.436019830604 6303.762184636831
1555.20509495646 6248.826519457644
1555.9739833269869 6187.1933125572095
1556.7426849919011 6350.280638607027
1557.511200000903 6489.708872728528
1558.2795284036674 6379.315457991362
1559.0476702498509 6257.747439349764
1559.8156255890954 6533.0588245323615
1560.5833944710157 6673.754267993218
1561.3509769452048 6205.994808277433
1562.1183730612447 6259.291888405753
1562.8855828686865 6319.599972317588
1563.6526064170703 6474.761912850569
1564.4194437559127 6379.463632256478
1565.1860949347047 6213.9677680864825
1565.9525600029283 6556.016906107664
1566.7188390100328 6582.067416595496
1567.4849320054564 6130.3005027222325
1568.250839038612 6235.380069934143
1569.0165601588997 6335.120759005856
1569.7820954156887 6486.6136166186825
1570.5474448583373 6169.081231476755
1571.31260853618 6220.4661131297635
1572.0775864985299 6138.064491887616
1572.8423787946813 6280.935739411203
1573.6069854739108 6187.895726927958
1574.371406585471 6164.815720673045
1575.1356421785986 6422.396136250265
1575.899692302506 6265.774043003585
1576.6635570063845 6247.903366973964
1577.4272363394157 6072.515893881935
1578.190730350747 6192.759017160192
1578.9540390895163 6253.017477844593
1579.7171626048384 5882.768484998344
1580.480100945806 5962.914649162488
1581.2428541614918 6101.876626252999
1582.0054223009538 6338.1598831712145
1582.767805413223 6100.6640976595545
1583.5300035473156 6145.698282339841
1584.292016752228 6317.123926217779
1585.0538450769309 6269.252015754787
1585.8154885703807 5842.162801816957
1586.5769472815136 5877.678235592851
1587.3382212592405 6012.966869293342
1588.099310552463 6269.226146416822
1588.8602152100484 6109.1994668902535
1589.6209352808564 6156.518886484525
1590.3814708137234 6211.840039981838
1591.14182185746 6378.344677033921
1591.9019884608679 5951.528843271663
1592.6619706727215 5855.93955333558
1593.4217685417734 6030.950219693408
1594.1813821167616 6258.187989975536
1594.9408114464022 5906.483875295175
1595.7000565793933 6020.9763582759415
1596.459117564409 6134.961582440215
1597.2179944501113 5859.246767796976
1597.9766872851324 5828.7022486482865
1598.735196118092 6066.372786578397
1599.4935209975883 5951.741309620049
1600.2516619721973 6181.253559907914
1601.0096190904787 5842.271495644938
1601.7673924009723 5814.879925728086
1602.524981952196 5808.674298164886
1603.2823877926476 5845.498119573415
1604.0396099708087 5667.083409866113
1604.7966485351371 5694.568157178371
1605.5535035340745 5745.8028227478135
1606.3101750160404 6103.017927362741
1607.0666630294363 5700.361782125992
1607.822967622642 5582.214242251579
1608.5790888440224 5865.995610250475
1609.3350267419137 5896.455761516967
1610.0907813646445 5695.860691121526
1610.8463527605145 5725.579971885727
1611.601740977805 5783.159559615349
1612.356946064785 5695.971029857401
1613.1119680696902 5484.128425661811
1613.8668070407512 5537.512178571771
1614.6214630261748 5641.95903430506
1615.375936074137 5706.944534935206
1616.1302262328118 5688.066717581451
1616.8843335503425 5591.8613662550715
1617.638258074854 5585.324574533221
1618.391999854457 5561.868662528914
1619.1455589372363 5687.510065647923
1619.8989353712623 5632.174766376652
1620.65212920458 5381.834509143935
1621.4051404852235 5408.924538435764
1622.1579692611976 5465.085809661787
1622.9106155804966 5245.376791610491
1623.663079491087 5344.584259908513
1624.4153610409248 5596.075370131521
1625.1674602779385 5305.538124602239
1625.9193772500403 5252.083703948195
1626.6711120051277 5687.181114189279
1627.4226645910676 5472.985457299287
1628.174035055721 5251.026304406428
1628.9252234469168 5392.998463431078
1629.676229812474 5269.630452963884
1630.4270542001905 5596.714010690255
1631.1776966578382 5366.897767071793
1631.9281572331747 5213.918035005534
1632.678435973945 5438.416784662593
1633.4285329278573 5347.793283589806
1634.1784481426203 5021.59296088855
1634.9281816659113 5302.014976554585
1635.677733545388 5455.298151644677
1636.4271038286934 5150.229292162128
1637.176292563452 5194.464800017585
1637.9252997972635 5196.640849238824
1638.674125577716 5218.97780251423
1639.4227699523672 5551.90423381592
1640.171232968767 4891.236311841169
1640.9195146744423 5151.4666705381105
1641.6676151168977 5291.268036006709
1642.4155343436178 5453.051156970238
1643.1632724020765 5060.073881312415
1643.9108293397167 5072.163206084751
1644.658205203974 5169.133133623573
1645.4054000422566 5509.019400604423
1646.1524139019566 5167.359498926893
1646.8992468304423 4876.170522826823
1647.6458988750728 4893.899593267359
1648.3923700831765 5076.777222971293
1649.1386605020743 4931.957831931664
1649.8847701790564 5195.884836257554
1650.6306991614038 5075.363313483597
1651.3764474963682 5118.48825106491
1652.1220152311944 4775.5690297863885
1652.867402413096 5056.344141247761
1653.6126090892776 5082.47005508411
1654.3576353069184 5199.772492961945
1655.1024811131829 4969.803380931369
1655.8471465552066 4932.337290813111
1656.5916316801213 5256.617754209663
1657.3359365350298 5023.264476878287
1658.0800611670165 4942.666402896368
1658.824005623148 4974.784981799281
1659.5677699504722 4844.817303914415
1660.3113541960192 5003.485383953406
1661.054758406799 4879.697504011094
1661.7979826297997 4786.393437517578
1662.5410269119966 4805.284976132198
1663.283891300338 5073.451849319111
1664.0265758417645 4716.165058206603
1664.7690805831826 4900.962988875167
1665.5114055714948 5013.038925088813
1666.2535508535748 5230.465458579718
1666.9955164762814 4636.67279396883
1667.7373024864555 4759.776733263438
1668.478908930916 4928.821902460892
1669.220335856462 4816.53212953426
1669.9615833098778 4769.938963896707
1670.7026513379296 4689.041002027655
1671.44353998736 4790.230155467696
1672.1842493048916 4821.254938620621
1672.9247793372379 4646.722482218936
1673.6651301310812 4753.318968009238
1674.4053017330934 4753.459023685365
1675.1452941899242 4833.243139386885
1675.885107548207 4419.81577096842
1676.6247418545518 4400.046904977504
1677.3641971555535 4497.635834921917
1678.1034734977893 4618.795476384044
1678.8425709278108 4644.329279826927
1679.5814894921605 4716.2703783933575
1680.320229237359 4736.958190747848
1681.0587902098978 4834.427209706729
1681.7971724562685 4480.386740557944
1682.5353760229264 4429.852017745697
1683.2734009563173 4668.335901601744
1684.0112473028657 4433.1578923877405
1684.7489151089794 4609.957202855965
1685.4864044210462 4594.967129239592
1686.2237152854377 4233.19788065483
1686.960847748498 4684.955911893726
1687.6978018565642 4221.81578230726
1688.434577655944 4242.878603596332
1689.1711751929379 4171.29363948382
1689.9075945138156 4425.604793706702
1690.6438356648396 4345.388248738228
1691.3798986922448 3885.2726624654656
1692.1157836422499 4296.930631759845
1692.851490561059 4229.63664319948
1693.587019494853 4250.113651437619
1694.3223704897991 4019.372421490252
1695.0575435920364 3988.7980829191415
1695.792538847696 4404.8869419616385
1696.527356302886 4069.4940959674327
1697.2619960036936 3953.0096521720093
1697.9964579961907 4008.3186368439965
1698.730742326432 3804.0329136388864
1699.4648490404488 3885.114919705182
1700.1987781842563 3964.900897839366
1700.9325298038548 4222.952008069057
1701.6661039452174 4319.326274086859
1702.3995006543082 4045.4057714074784
1703.1327199770658 4222.128294930593
1703.865761959416 3548.4193092894793
1704.598626647261 4198.992322480832
1705.3313140864866 3833.001592834679
1706.0638243229587 3869.4482348858087
1706.7961574025303 4078.5414335361843
1707.528313371029 3938.2034093685397
1708.260292274268 3841.7809605462235
1708.9920941580403 3928.246298185818
1709.7237190681226 3990.144832735451
1710.4551670502697 3798.0165943028087
1711.18643815022 3634.3472198281925
1711.9175324136959 4263.168429785843
1712.6484498863938 3879.4286285669723
1713.379190614005 3576.283270133369
1714.109754642188 3657.499439359145
1714.8401420165883 3573.4623365875423
1715.570352782839 4269.492138174722
1716.3003869865497 3872.202055179156
1717.0302446733076 3562.901250312037
1717.7599258886876 3699.578201994865
1718.4894306782444 3976.7096522205475
1719.2187590875183 3467.0563201464406
1719.9479111620203 3922.2413964329526
1720.6768869472544 3570.2091787359373
1721.4056864887025 3966.3733631194955
1722.1343098318284 3986.292835151464
1722.8627570220742 3618.4777028763224
1723.591028104871 3587.058383548732
1724.3191231256242 3382.665687555552
1725.0470421297232 3722.892538462978
1725.7747851625427 3706.69360364616
1726.5023522694337 3858.071083932509
1727.2297434957363 3634.9457278790956
1727.9569588867635 3554.6130808347743
1728.6839984878152 3808.245648313629
1729.4108623441734 3326.6862053442737
1730.1375505011038 3716.8720223046394
1730.8640630038426 3538.408544238918
1731.5903998976264 3471.319271596278
1732.316561227657 3668.752868623931
1733.0425470391274 3392.525604730691
1733.7683573772065 3653.069505557658
1734.4939922870508 3585.3049964339325
1735.2194518137949 3540.0913849911217
1735.9447360025606 3604.9942600079266
1736.669844898439 3530.273467631067
1737.3947785465189 3391.796073831658
1738.1195369918605 3270.3256656608946
1738.8441202795093 3578.692871697526
1739.5685284544943 3583.5971481908805
1740.292761561821 3575.272696681972
1741.0168196464838 3572.8926549896605
1741.7407027534518 3647.0676052693575
1742.464410927687 3505.8852881028724
1743.187944214118 3481.252634702024
1743.9113026576688 3368.4758110787952
1744.634486303241 3438.6291833006994
1745.3574951957125 3453.765277728122
1746.0803293799509 3628.481749284486
1746.8029889008048 3510.1834542271827
1747.5254738031017 3579.186121071974
1748.2477841316504 3337.289226631348
1748.969919931249 3583.282288776758
1749.6918812466665 3422.118307229261
1750.4136681226646 3678.7568523923924
1751.1352806039777 3543.777319519999
1751.856718735331 3270.5159841656387
1752.5779825614281 3222.0424574177423
1753.2990721269507 3507.168592305571
1754.0199874765676 3451.21924141804
1754.7407286549314 3299.2205958851896
1755.4612957066693 3298.0697091931497
1756.1816886763954 3275.534737031733
1756.9019076087097 3429.2370395451244
1757.6219525481865 3456.062123703902
1758.3418235393856 3455.121652041871
1759.061520626854 3486.7593490227127
1759.7810438551096 3710.9435512347895
1760.5003932686614 3290.100736238026
1761.2195689119999 3631.950828096815
1761.938570829594 3463.465140563686
1762.657399065898 3475.571430977912
1763.376053665348 3186.2837823449677
1764.0945346723602 3213.6618117879098
1764.812842131334 3527.6806710229575
1765.5309760866512 3188.1550872425046
1766.2489365826787 3216.2519296417804
1766.9667236637597 3348.680268966686
1767.684337374223 3042.4941229182377
1768.401777758383 3104.9333570311405
1769.1190448605284 3179.4924582206413
1769.836138724937 3125.1931594383277
1770.5530593958665 3215.17783881587
1771.2698069175603 3460.9831640405255
1771.9863813342326 3456.904824569819
1772.702782690094 3278.393711959224
1773.4190110293293 3469.664398680017
1774.1350663961111 3338.9247131708166
1774.8509488345844 3131.860206981205
1775.5666583888924 3306.7048488473547
1776.2821951031437 3510.400846244036
1776.9975590214362 3278.519066707448
1777.7127501878585 3420.831425250959
1778.4277686464684 3327.2503299002246
1779.1426144413108 3419.642626543843
1779.8572876164162 3545.288345390344
1780.571788215797 3082.1204734275407
1781.2861162834415 3269.125352998354
1782.0002718633277 3216.072837768391
1782.7142549994132 3368.2214161028046
1783.4280657356376 3242.491793494601
1784.141704115922 3164.729941843064
1784.855170184177 3156.0406872689846
1785.5684639842839 3290.1369482798254
1786.2815855601148 2986.0698332699003
1786.9945349555237 3398.417917211026
1787.707312214343 3124.851648374918
1788.4199173803918 3609.582482850087
1789.132350497468 3019.1155068473813
1789.8446116093583 3180.447205391267
1790.556700759822 3077.3729226467226
1791.2686179926077 3131.2416022073257
1791.9803633514493 3109.52727297446
1792.6919368800554 3055.106259098622
1793.4033386221236 3167.0513299735526
1794.1145686213295 3237.479399277217
1794.8256269213307 3428.2702283126177
1795.536513565774 3330.308353053134
1796.247228598284 2889.4188394810476
1796.9577720624693 3024.5581861609035
1797.6681440019165 3162.3989908807957
1798.3783444602013 3181.997578460724
1799.0883734808776 3157.8724115316563
1799.7982311074884 3235.69225593843
1800.5079173835475 3155.949273695912
1801.2174323525633 3292.9212794579958
1801.9267760580187 3118.565398097694
1802.635948543386 3205.788104671385
1803.3449498521113 2942.3955879208033
1804.0537800276325 3234.654427887301
1804.7624391133668 3130.6705839570636
1805.47092715271 2892.377047064626
1806.1792441890484 2950.6355106239444
1806.8873902657433 3242.9922981799505
1807.5953654261448 3106.6387663647847
1808.3031697135812 3051.5506846086264
1809.0108031713662 3083.666910689755
1809.71826584279 2997.6248288106717
1810.425557771141 3166.095192081003
1811.1326789996747 3671.968088279623
1811.839629571632 2973.89401938172
1812.5464095302468 3072.1003518963016
1813.2530189187182 3113.537765758251
1813.959457780249 3108.1856662127166
1814.6657261580076 3349.097662118238
1815.371824095153 3110.7736264201308
1816.0777516348262 3270.9197954291967
1816.78350882015 2785.875359042898
1817.4890956942272 2788.9598508057816
1818.1945123001533 2946.967433116163
1818.8997586809928 3094.3178014481837
1819.6048348798067 2960.321199648969
1820.3097409396287 3059.173030320178
1821.0144769034796 3376.091335396123
1821.7190428143622 3135.1211565064805
1822.423438715261 3235.422746466461
1823.1276646491478 3083.6906700889253
1823.8317206589727 3061.9093919398956
1824.5356067876692 3197.1172367167082
1825.2393230781581 3036.4936584648694
1825.942869573335 2772.3656075412064
1826.646246316086 2924.2973766576843
1827.3494533492758 3054.454140703495
1828.052490715756 3072.852437462837
1828.7553584583547 3097.223745561083
1829.458056619891 3094.7665939560275
1830.1605852431585 2974.5579267784756
1830.8629443709433 2826.5999729927407
1831.5651340460063 2952.495102461337
1832.2671543110919 2891.529591584422
1832.9690052089318 3179.0101653061865
1833.6706867822395 2822.2932443109016
1834.3721990737104 3075.9746339098733
1835.0735421260233 3141.115564541279
1835.774715981841 3011.469662876016
1836.4757206838058 3227.839472492104
1837.1765562745459 2915.393782336124
1837.8772227966747 2770.2172598985517
1838.5777202927839 3006.855187658366
1839.2780488054523 2917.427121752088
1839.9782083772352 2861.371789732247
1840.6781990506806 3270.173606876144
1841.378020868313 2910.8182054163044
1842.0776738726418 2994.740794582182
1842.777158106157 2875.854900448895
1843.4764736113375 2845.274916634564
1844.1756204306403 3040.938794208795
1844.8745986065078 3025.9095432093973
1845.5734081813607 2720.3433071134396
1846.2720491976124 2855.4280018922864
1846.970521697649 2953.2709755735605
1847.6688257238511 2941.506855019078
1848.3669613185684 2882.8334449047393
1849.0649285241452 2604.99543028079
1849.7627273829057 3107.375352706885
1850.460357937156 2995.7719574404996
1851.1578202291857 2664.2929524881065
1851.8551143012664 2944.1137004931434
1852.5522401956569 2881.767105837348
1853.2491979545957 3112.7779354452805
1853.9459876203055 2757.946155825538
1854.6426092349902 2761.765551067239
1855.3390628408451 2754.7526815766264
1856.0353484800362 3087.917704554043
1856.7314661947203 3007.3338999791195
1857.4274160270397 2726.2603510631866
1858.123198019115 2815.759328271207
1858.8188122130487 2650.098466088915
1859.5142586509319 2967.444631343379
1860.209537374838 2877.0114742754463
1860.9046484268183 2891.3663966644767
1861.599591848917 3068.0419913794826
1862.294367683151 2743.677459098867
1862.988975971528 2802.1827502967785
1863.6834167560355 3014.7295510843446
1864.3776900786452 3089.9965678977687
1865.0717959813119 2797.7053689866707
1865.7657345059724 2690.738966076068
1866.4595056945564 3072.29035474508
1867.1531095889586 3019.677895746409
1867.846546231076 2651.606620158921
1868.5398156627743 3029.9555532327286
1869.2329179259123 2754.1867155019595
1869.9258530623283 3105.2699445853996
1870.618621113843 2678.2030508924827
1871.3112221222636 2627.7195171184294
1872.0036561293764 2821.238193687774
1872.695923176956 2935.8833185528165
1873.3880233067594 3098.17123644845
1874.0799565605212 2626.9152617589834
1874.7717229799673 2807.7701621735014
1875.4633226068036 3179.396574866272
1876.1547554827175 2978.141958017409
1876.8460216493859 2708.5786524590358
1877.5371211484617 2804.4693451635653
1878.2280540215852 2901.378058954887
1878.9188203103804 2585.885730981455
1879.6094200564548 2801.4155124507465
1880.299853301396 2833.716434642805
1880.9901200867826 3070.1013899852446
1881.6802204541673 2858.40437691649
1882.3701544450942 2977.787404717362
1883.059922101087 2593.1131674919734
1883.7495234636517 3012.261906509014
1884.4389585742792 2772.121147688603
1885.1282274744517 2670.620481371413
1885.8173302056166 2743.7291827321415
1886.506266809225 2816.9397823124855
1887.195037326701 2602.7884175303493
1887.8836417994517 2806.527348745513
1888.5720802688702 3111.654826422884
1889.260352776333 2961.8643680498053
1889.9484593632042 3080.555540763637
1890.63640007082 2801.5996719190816
1891.3241749405151 2733.914931308116
1892.0117840135954 2895.9543884776995
1892.6992273313572 2786.071463677967
1893.3865049350788 2590.5686795883003
1894.0736168660223 3173.070842264526
1894.7605631654333 2840.5166856683995
1895.4473438745408 2532.563125094297
1896.133959034556 3107.82456266056
1896.820408686679 2913.052245264912
1897.506692872088 3117.9354241781934
1898.192811631945 2724.022076303815
1898.8787650073991 2784.3745035108786
1899.5645530395832 2995.9459655297346
1900.2501757696118 2968.0922043905566
1900.9356332385796 2746.5657721453517
1901.620925487574 3071.556187422984
1902.3060525576602 2847.4847261387495
1902.9910144898859 2914.7408738527765
1903.6758113252872 2734.09646597779
1904.3604431048789 2798.019205181968
1905.0449098696663 2943.2433448481515
1905.7292116606295 2722.1126518191454
1906.4133485187394 2809.137212322571
1907.0973204849488 2569.025359121874
1907.7811276001976 2573.603021567321
1908.4647699053967 2669.7126686770616
1909.1482474414588 2167.0933606517674
1909.8315602492694 2654.713194179725
1910.5147083696957 2955.663815823293
1911.1976918436012 2718.1571506277537
1911.880510711815 2606.1953174294053
1912.5631650151681 3074.114446070089
1913.2456547944657 2683.745318998042
1913.927980090495 2675.4977684213304
1914.6101409440362 2746.6071590659762
1915.2921373958416 2831.697344586543
1915.9739694866603 2701.61876515102
1916.655637257214 3081.008836722892
1917.3371407482136 2730.6938968459067
1918.0184800003572 3039.3498856017172
1918.6996550543154 2902.51264549051
1919.3806659507554 2783.9096119566707
1920.0615127303208 2874.7752149300013
1920.7421954336423 2936.8157444054227
1921.4227141013343 3082.444812704377
1922.103068773993 2790.277996338117
1922.783259492202 2942.4830243000497
1923.4632862965227 2771.9871186637674
1924.1431492275078 2735.5348542089428
1924.8228483256917 2609.707659428442
1925.5023836315922 2666.6316227190264
1926.1817551857057 2497.8727676978183
1926.8609630285227 2956.6804593867673
1927.5400072005123 2865.7062045157236
1928.218887742125 2683.954145459862
1928.8976046938005 2500.156546530112
1929.5761580959588 2854.3667301041905
1930.2545479890086 2736.432323218477
1930.9327744133352 2496.197326905112
1931.6108374093164 2644.9865934214763
1932.2887370173066 2488.9239347227053
1932.9664732776473 2332.435904543894
1933.6440462306673 2701.396792472766
1934.3214559166754 2664.6423385561416
1934.9987023759659 2946.586792909059
1935.675785648813 2965.7567670396757
1936.3527057754836 2439.7736487753286
1937.029462796223 3101.051502485851
1937.70605675126 2604.6009761697487
1938.3824876808085 2552.3051600271638
1939.058755625072 2664.694942926716
1939.7348606242267 2587.659526612096
1940.4108027184448 2705.18049467488
1941.0865819478713 2926.1715883443208
1941.7621983526478 2637.7444701861596
1942.4376519728921 2491.337694713876
1943.1129428487038 2742.477169559813
1943.7880710201734 2945.1584134820487
1944.4630365273733 2781.120023826843
1945.1378394103576 2451.1880269234257
1945.8124797091714 2427.663325393408
1946.4869574638324 2404.00701700464
1947.161272714353 2559.6786550978322
1947.8354255007234 2853.664837078842
1948.5094158629272 2637.8149671887395
1949.1832438409183 2753.3683275389003
1949.8569094746435 2804.248261226975
1950.530412804037 2962.783821691473
1951.2037538690092 2891.7071887281527
1951.8769327094578 2644.743896870438
1952.5499493652678 2734.4518408151307
1953.222803876306 2939.9175156517967
1953.895496282421 2690.1138744087957
1954.5680266234522 2843.965683427768
1955.2403949392155 2759.1424440798783
1955.9126012695142 2477.137146558887
1956.5846456541403 2589.9491891627804
1957.2565281328643 2553.5449989502226
1957.9282487454457 2938.2993483393993
1958.5998075316202 2839.705667617428
1959.27120453112 2538.5248887983544
1959.9424397836501 2695.277033225121
1960.613513328908 2776.8478576156367
1961.2844252065697 2977.217246369101
1961.9551754563017 2532.8666656524674
1962.6257641177453 2533.738722059063
1963.29619123054 2421.4377924216524
1963.966456834296 2508.5502805845763
1964.6365609686181 2377.168071743091
1965.306503673086 2730.0770070789067
1965.976284987275 2415.2428877215693
1966.645904950734 2561.383788052643
1967.315363603002 2288.401303125769
1967.9846609836077 2611.045715867366
1968.6537971320486 2660.3969583355274
1969.3227720878222 2706.7051224692323
1969.9915858904042 2641.379834212509
1970.660238579252 2614.598054672527
1971.3287301938108 2550.3966075908984
1971.997060773514 2545.719006058636
1972.665230357772 2470.0980600706234
1973.3332389859843 2464.9680352920486
1974.0010866975335 2421.398298902349
1974.6687735317864 2666.529439034108
1975.3362995280932 2673.812252727285
1976.003664725793 2643.2322428972507
1976.6708691642052 2293.2244288280554
1977.3379128826364 2508.7152619787225
1978.004795920373 2700.4232576205595
1978.6715183166925 2417.046221237965
1979.3380801108524 2840.5675196892057
1980.0044813420973 2587.431917446148
1980.6707220496555 2212.863884487779
1981.3368022727373 2581.037934281286
1982.0027220505417 2691.1013369141274
1982.66848142225 2195.26467320955
1983.3340804270283 2342.5813158430383
1983.999519104027 2542.4054933670286
1984.6647974923835 2682.4565014192103
1985.329915631215 2855.90882948771
1985.99487355963 2524.8790776171772
1986.6596713167146 2869.4008287432634
1987.3243089415428 2332.0472254203255
1987.9887864731754 2844.182026567345
1988.6531039506553 2337.047648814777
1989.3172614130071 2356.212804089623
1989.9812588992481 2375.4481336873246
1990.645096448372 2195.4638639754075
1991.3087740993633 2518.4376712343237
1991.9722918911848 2487.3117818420874
1992.635649862792 2570.789170140915
1993.2988480531185 2675.7996168122363
1993.9618865010852 2973.206596196911
1994.6247652455968 2344.4351565650145
1995.287484325545 2401.9869760342826
1995.9500437798033 2404.7188996312966
1996.6124436472292 2493.3116191711206
1997.2746839666706 2651.6782080451144
1997.936764776954 2476.823004120209
1998.598686116895 2454.1858315160985
1999.2604480252903 2837.668874343877
1999.9220505409212 2736.1553527476926
2000.5834937025593 2282.6419609722134
2001.2447775489582 2512.4212967028416
2001.9059021188514 2621.9242911076585
2002.5668674509616 2466.419645200086
2003.2276735839987 2465.227481711327
2003.8883205566508 2713.7594742920924
2004.5488084075987 2422.153169719652
2005.2091371755014 2479.6488730429714
2005.8693068990033 2362.465160581268
2006.5293176167397 2677.1074257408554
2007.1891693673224 2443.19023503409
2007.848862189354 2289.978004302545
2008.5083961214223 2496.01273895977
2009.1677712020955 2357.4659581539518
2009.8269874699254 2396.773214974536
2010.4860449634598 2298.2041430998497
2011.1449437212177 2199.51216858903
2011.8036837817108 2785.8433771159953
2012.4622651834325 2800.34881153228
2013.1206879648653 2528.8124959725546
2013.7789521644736 2315.842838166168
2014.4370578207036 2652.197323031733
2015.0950049719922 2486.667355319504
2015.7527936567585 2668.6315783915006
2016.4104239134067 2446.497273933062
2017.067895780323 2917.531223755254
2017.725209295886 2870.7792845007684
2018.3823644984514 2823.8272704483475
2019.0393614263648 2490.9705387246822
2019.6962001179545 2440.0941854130183
2020.3528806115355 2740.535056039475
2021.0094029454067 2648.273465417072
2021.6657671578487 2217.26485980947
2022.321973287133 2494.1799649770405
2022.9780213715148 2345.736998539869
2023.6339114492293 2416.8764420930647
2024.2896435585026 2398.1358419806415
2024.9452177375442 2335.3380906692273
2025.600634024544 2675.5718665044074
2026.2558924576842 2634.7877528977792
2026.9109930751292 2715.0385858499085
2027.565935915025 2393.592626518598
2028.2207210155066 2801.4373435305192
2028.8753484146964 2880.103013437832
2029.529818150695 2833.141196110758
2030.1841302615903 2785.844680685771
2030.8382847854573 2272.279421232045
2031.4922817603601 2622.231779997447
2032.1461212243357 2508.413814043926
2032.7998032154192 2247.0585334612324
2033.4533277716218 2265.8592771804833
2034.1066949309443 2338.280718352918
2034.7599047313688 2217.0851813023223
2035.4129572108704 2471.9297428531463
2036.0658524074006 2446.2607494702293
2036.7185903589016 2541.8172675521046
2037.3711711032956 2463.3562288034814
2038.023594678496 2520.7484558984115
2038.675861122394 2291.163755911454
2039.3279704728757 2294.7739996308815
2039.9799227678031 2298.6036358162564
2040.6317180450278 2477.8233564280317
2041.2833563423865 2497.665672771457
2041.9348376977014 2762.152542242861
2042.5861621487784 2566.2961692146014
2043.2373297334088 2425.516008236108
2043.8883404893695 2412.52144812525
2044.5391944544208 2655.0316739935206
2045.1898916663158 2745.697318500114
2045.8404321627804 2787.027015867544
2046.4908159815368 2308.7009361853193
2047.1410431602853 2427.7600589189337
2047.7911137367173 2252.0103757871575
2048.441027748504 2237.442100864791
2049.090785233302 2222.776306088721
2049.7403862287592 2374.1772254133
2050.389830772503 2723.3760049222765
2051.0391189021466 2288.777902306175
2051.688250655294 2604.748445271392
2052.337226069527 2208.141311622764
2052.986045182417 2727.3919052404613
2053.634708031521 2618.5225860319456
2054.283214654375 2509.6560621036797
2054.931565088511 2024.4112038621995
2055.579759371436 2258.8141112366193
2056.2277975406523 2452.81637936842
2056.8756796336384 2256.118391715304
2057.5234056878617 2058.8664701121133
2058.1709757407752 2298.7379347603446
2058.8183898298194 2714.039593701041
2059.465647992416 2537.892254889829
2060.1127502659747 2598.2956870102444
2060.759696687888 2235.951536969639
2061.4064872955405 2512.728840801021
2062.053122126292 2651.395896169061
2062.699601217497 1988.7395820254878
2063.345924606485 2284.1371576947945
2063.992092330587 2470.9476114074328
2064.638104427102 2210.873761477602
2065.283960933324 2779.4180215720085
2065.92966188653 2465.974726665775
2066.5752073239855 2670.4207345390196
2067.2205972829397 2097.522155147794
2067.86583180062 2439.6257584287277
2068.5109109142522 2229.1079063156126
2069.15583466104 2455.5269652463994
2069.8006030781708 2187.906821966105
2070.445216202821 2356.4017688075014
2071.089674072153 2666.374785960362
2071.7339767233116 2512.4922499261224
2072.3781241934303 2391.57536397619
2073.0221165196253 2538.839173890333
2073.6659537390024 2357.425653947116
2074.3096358886505 2658.125003209683
2074.953163005637 2201.217087171741
2075.596535127028 2042.4163780094582
2076.2397522898664 2261.2409767414883
2076.882814531182 2276.444853977312
2077.5257218879924 2479.655796598236
2078.1684743973 2161.210857596723
2078.8110720960885 2231.4156948620334
2079.453515021336 2341.2770971409054
2080.095803209997 2451.2016536337874
2080.7379366990135 2462.8673176931757
2081.37991552532 2650.4748385955545
2082.0217397258275 2552.825093272152
2082.6634093374414 2141.914655502557
2083.3049243970418 2427.6672073844807
2083.9462849415067 2437.2466949561976
2084.587491007689 2427.4207769434133
2085.2285426324324 2350.805816465213
2085.869439852564 2388.5940559691603
2086.510182704902 2272.708093061409
2087.1507712262483 2386.9698983480116
2087.791205453381 2227.9811822895567
2088.4314854230743 2612.4549531932325
2089.0716111720867 2269.956902269922
2089.7115827371617 2066.278316419107
2090.351400155023 2141.8715507865136
2090.991063462385 2217.708015466147
2091.6305726959527 2042.8524973295498
2092.2699278924047 2059.514154779031
2092.9091290884153 2076.290268032668
2093.548176320641 2093.7343027593233
2094.187069625721 2367.362815107067
2094.8258090402887 2125.259198683411
2095.464394600951 2353.813325862639
2096.102826344313 2437.3743700249047
2096.741104306955 2440.0816730204947
2097.379228525453 2240.52584564735
2098.017199036358 2466.120922856145
2098.6550158762147 2185.9720786462585
2099.2926790815527 2468.591072204064
2099.9301886888825 2329.5108315059856
2100.5675447347076 2307.161609015661
2101.2047472555114 2494.2634949878275
2101.841796287761 2133.1350925451225
2102.47869186792 2486.535056698497
2103.1154340324265 2235.0975604965465
2103.752022817709 2302.9164111141963
2104.388458260184 2338.7671455900563
2105.024740396251 2308.0031068686476
2105.660869262292 2157.9249423116744
2106.296844894685 2554.451374780747
2106.93266732978 2266.9251871690713
2107.5683366039284 2204.998495097496
2108.2038527534532 2352.6960120846243
2108.8392158146726 2637.591932127513
2109.4744258238843 2167.566176028031
2110.1094828173755 2271.3829593557375
2110.744386831422 2660.9723915078876
2111.3791379022787 2319.528743127366
2112.01373606619 2584.6709647232683
2112.648181359389 2479.254440406229
2113.28247381809 2344.450511060352
2113.916613478492 2529.283983907081
2114.550600376786 2398.8418927885987
2115.1844345491445 2233.9247269022135
2115.818116031729 2086.749618167135
2116.451644860679 2333.7340092568506
2117.085021072133 1956.9101979140062
2117.718244702204 2040.5168837962815
2118.3513157869984 2030.1296678439132
2118.984234362604 1962.1768043688644
2119.617000465092 2199.8806376235216
2120.249614130529 2178.3505982018096
2120.8820753949585 2156.7903588385334
2121.5143842944162 2205.1677395893753
2122.14654086492 2270.9594516511115
2122.7785451424734 2458.7315992260064
2123.4103971630702 2085.0728683727743
2124.042096962681 2298.196892588263
2124.6736445772767 2455.344975720578
2125.305040042802 2246.304512798801
2125.936283395191 2261.725843029517
2126.567374670365 2369.92755035653
2127.198313904233 2100.109988688092
2127.8291011326855 2062.718484616132
2128.4597363916037 2025.0036276430317
2129.0902197168507 2448.246129129252
2129.720551144279 2075.642223301501
2130.3507307097225 2537.8093059815606
2130.980758449008 2605.4726320808104
2131.6106343979427 2642.536120077736
2132.2403585923203 2679.5045561871007
2132.8699310679276 2511.1249248953277
2133.499351860526 2260.130230488224
2134.1286210058715 2338.676677056411
2134.7577385397053 2433.6138599930555
2135.3867044977487 2528.7657283272706
2136.0155189157176 2671.733448538508
2136.644181829308 2658.544910471584
2137.2726932742025 2442.499336157601
2137.901053286074 2602.4769952923552
2138.5292619005777 2043.6265334496052
2139.1573191533535 2117.0269517810225
2139.7852250800315 2369.1551268384414
2140.4129797162295 2348.684385315767
2141.0405830975433 2014.541394678305
2141.6680352595613 2068.7864715751693
2142.2953362378576 2123.1590217342755
2142.9224860679915 2236.4035127993075
2143.549484785508 2241.1207935934535
2144.1763324259373 2193.9335770990274
2144.803029024799 2194.7401320826284
2145.429574617594 2405.9549961397756
2146.0559692398165 2426.9870342922213
2146.682212926942 2129.0405726624485
2147.308305714432 2312.219077194642
2147.9342476377333 2443.351331699489
2148.5600387322847 2760.3675439805747
2149.185679033506 2372.4061432745784
2149.8111685768017 2161.2041207267603
2150.4365073975678 1924.39332860848
2151.061695531187 2140.465416450187
2151.686733013021 2491.2704123672975
2152.311619878423 2373.631202136535
2152.9363561627342 2230.177380364916
2153.560941901278 1983.8324488229998
2154.1853771293663 2313.994494627158
2154.809661882293 2430.0853681216136
2155.433796195348 2736.120354760088
2156.0577801037944 2634.789449946073
2156.681613642895 2533.092784250562
2157.3052968478896 2180.3500434250755
2157.928829754006 2385.7312301164966
2158.552212396462 2283.7106101293584
2159.1754448104566 2399.4007570304525
2159.7985270311783 2002.6127642187755
2160.4214590938027 1699.6632198470531
2161.0442410334927 1738.3966848867653
2161.6668728853874 1919.3983872153465
2162.289354684628 2100.804149813187
2162.911686466332 2226.9321111070194
2163.533868265602 2469.7983569243124
2164.1559001175337 2713.00026554182
2164.7777820572046 2398.711514385722
2165.399514119681 2142.2553473730086
2166.021096340013 2101.041464198458
2166.6425287532384 2423.86953259088
2167.263811394385 2083.6872114502676
2167.8849442984574 2094.7573287153955
2168.505927500455 2106.065269499996
2169.126761035366 2394.37651333045
2169.7474449381552 2084.988071920264
2170.367979243778 1778.8796219973424
2170.9883639871823 2511.3074175679585
2171.608599203293 1974.0732454301397
2172.2286849270276 2641.742238386271
2172.8486211932886 2776.8516930413643
2173.4684080369625 2093.9606596742037
2174.0880454929265 1935.647280368535
2174.7075335960417 1766.3355894821532
2175.3268723811543 1896.8291295955219
2175.9460618831 2027.678218782735
2176.565102136701 2209.2933835470835
2177.1839931767627 2143.8166270470874
2177.802735038078 2078.197617943418
2178.421327755432 1995.7592829778655
2179.0397713635866 1990.377190477997
2179.658065897298 2047.6377387549808
2180.276211391305 2381.5570122277227
2180.8942078803357 2092.7029054285135
2181.5120553991 2172.766448957238
2182.129753982299 1937.8473773793405
2182.7473036646206 2111.8439180045116
2183.3647044807367 2201.620183862695
2183.9819564653044 1913.5958571973788
2184.599059652968 2233.866776969101
2185.216014078367 2308.1146854482117
2185.832819776113 1978.699890658127
2186.4494767808137 2093.8870352989884
2187.065985127063 2209.150383596328
2187.682344849436 2075.828503653577
2188.298555982501 2473.634621264252
2188.9146185608097 2338.610501963046
2189.530532618901 2330.983593267815
2190.1462981912937 2183.341042202069
2190.761915312507 2366.119894622782
2191.377384017036 2155.790068578065
2191.9927043393654 2134.6276678082277
2192.6078763139667 2406.829295825385
2193.2228999753006 1959.9433743414247
2193.837775357808 2180.6652061570853
2194.452502495922 1755.943937608946
2195.0670814240602 2001.5587149797611
2195.6815121766285 1814.354648739761
2196.2957947880186 1862.1624083371494
2196.9099292926057 1910.0731591900228
2197.523915724758 2253.1324915512837
2198.137754118825 2313.3520594347715
2198.7514445091456 2504.73738277149
2199.3649869300443 2096.384840615573
2199.9783814158327 2574.140089506649
2200.5916280008096 2734.9795281783977
2201.2047267192593 2327.0461648477894
2201.8176776054515 2284.218486834078
2202.430480693649 1930.2837313932955
2203.0431360180955 2383.2307057314233
2203.6556436130195 2475.4634819995363
2204.268003512645 1801.3201280781109
2204.8802157511727 2023.0043998684519
2205.492280362796 2415.9607915777683
2206.1041973816937 2075.106779588884
2206.715966842032 2208.5486232329467
2207.3275887779655 2255.2113939108126
2207.93906322363 2221.640723652861
2208.550390213153 2381.9166200676145
2209.1615697806465 2497.0487943861617
2209.7726019602105 1936.5129167121097
2210.3834867859277 1846.1270933431974
2210.9942242918787 2082.959012221411
2211.6048145121167 2243.546947892767
2212.2152574806914 2823.904684943822
2212.825553231638 2027.708698695101
2213.435701798975 2950.9855218160064
2214.045703216707 2099.284811799439
2214.655557518832 1443.6116471624937
2215.2652647393297 1834.768071091056
2215.874824912169 1623.7984012214683
2216.4842380713 2131.4886545030495
2217.09350425067 1838.2285118925859
2217.7026234842033 2359.037024712453
2218.311595805819 2188.0117110681335
2218.9204212494133 2132.1099102376947
2219.52909984888 2587.6977631299224
2220.137631638092 2558.257226813559
2220.7460166509154 2528.5935551240427
2221.354254921198 1911.5907632949577
2221.9623464827764 2379.8094217109365
2222.5702913694713 2050.1796766700145
2223.178089615096 2090.190315565113
2223.7857412534486 2130.2761617298233
2224.39324631831 1746.1874537753697
2225.000604843457 2030.3601266618948
2225.607816862641 2490.9993969605466
2226.214882409611 2212.8178817039816
2226.8218015180973 2343.0740579552835
2227.4285742218217 1951.2393063050658
2228.0352005544864 2191.1726809947495
2228.6416805497847 2227.1261346607857
2229.248014241399 2263.0639205518996
2229.8542016629945 1870.0173209663365
2230.460242848223 2219.0883343895107
2231.0661378307304 2060.029078887125
2231.671886644139 1900.8397301034365
2232.277489322065 1861.3507174496222
2232.8829458981127 1800.0300580095773
2233.48825640587 2090.677672664907
2234.0934208789095 2222.3236253537375
2234.6984393507955 2354.1809662558844
2235.3033118550793 2366.0238079661367
2235.9080384252975 2000.1594465039695
2236.5126190949723 1832.3569024121275
2237.1170538976166 1811.9060100407728
2237.721342866729 1775.3689967128018
2238.32548603579 2028.5249937116587
2238.9294834382763 2200.0535912550517
2239.533335107646 2270.6907820155297
2240.1370410773434 2141.9198015973548
2240.740601380803 1829.4362660088912
2241.3440160514474 2139.4153003422366
2241.9472851226783 2317.595602674556
2242.550408627896 2076.7025183500746
2243.1533866004793 2068.1498505402933
2243.756219073799 2059.617531940561
2244.3589060812064 1943.3914665516982
2244.961447656049 1863.9101148913608
2245.5638438316564 2056.2949283454186
2246.166094641343 2170.680986595349
2246.7682001184166 2009.8900082245461
2247.3701602961664 2244.6117439679406
2247.971975207871 2221.6086888890436
2248.5736448867974 2526.7666089853396
2249.175169366197 2051.8942722166407
2249.7765486793123 2157.8461304728326
2250.3777828593684 2280.210083795672
2250.9788719395783 2253.5827289817503
2251.579815953146 2177.577090440932
2252.1806149332606 1920.809643440846
2252.781268913097 2135.510083826633
2253.381777925817 1796.1508307016186
2253.9821420045737 2281.612305383739
2254.5823611825035 2336.8906113225144
2255.1824354927303 2088.4217086950166
2255.782364968365 1970.751389246323
2256.38214964251 1852.979614019625
2256.9817895482483 1972.8598599920515
2257.5812847186553 2064.4661055823663
2258.180635186791 1801.711705434557
2258.779840985704 2067.889479522438
2259.37890214843 1995.9476525300677
2259.97781870799 2173.214019959506
2260.5765906973957 2350.8152035195512
2261.175218149645 2269.919652641131
2261.773701097718 2333.8402449889318
2262.3720395745895 1830.929560470812
2262.970233613216 1902.0228044099258
2263.568283246548 2094.2839637056613
2264.1661885075137 1807.9423123547774
2264.763949429038 1965.4032198833963
2265.3615660440246 2526.666590666159
2265.959038385374 1911.9579429469227
2266.5563664859637 2592.5616749760497
2267.153550378669 1910.2588042125194
2267.7505900963424 2275.608896662209
2268.3474856718312 2032.423080863196
2268.9442371379664 2029.8366452230057
2269.5408445275643 1952.5558295894766
2270.1373078734377 2295.37927320725
2270.7336272083758 2092.8524792780445
2271.32980256516 1932.7529173332773
2271.925833976562 2184.6069323669317
2272.5217214753357 2459.9413185098606
2273.117465094223 1947.8469089491336
2273.7130648659586 2015.8688786195314
2274.308520823257 2085.5517615550275
2274.903832998827 2438.805483930982
2275.4990014253563 2351.7331620507725
2276.094026135528 2264.449739692875
2276.6889071620117 1892.6806056784833
2277.2836445374614 2228.299797851335
2277.878238294519 2127.9915816755347
2278.472688465812 1896.567813397085
2279.066995083962 1664.73056071079
2279.6611581815705 1966.8197777343053
2280.255177791232 1867.4112371400104
2280.8490539455233 2064.6056046238696
2281.442786677013 2262.2502099837307
2282.0363760182554 2278.3431019633153
2282.6298220017943 2345.245614636917
2283.223124660155 2412.4316215128592
2283.816284025859 2013.9440053759129
2284.4093001314086 2328.8226263156926
2285.002173009292 1921.634979229101
2285.5949026919952 2204.291173533965
2286.1874892119777 1952.7797935496176
2286.7799326016993 2257.966226915768
2287.3722328936 1887.857341612143
2287.964390120109 1702.5013273764223
2288.556404313642 1996.934731688935
2289.1482755066027 2005.7207144577333
2289.7400037313873 2014.4342622988383
2290.3315890203703 1888.1595964514029
2290.9230314059205 1930.732804344899
2291.5143309203904 1973.4350810358853
2292.1054875961236 1848.5673605184195
2292.6965014654506 2515.534450384016
2293.287372560684 1955.1956865485195
2293.878100914131 1962.8047270864056
2294.468686558086 1970.4932182444627
2295.059129524827 1979.0291042106983
2295.649429846617 1907.9480627359903
2296.239587555716 1836.6587886203251
2296.8296026843636 1991.7108041010517
2297.419475264791 1989.6326262279956
2298.0092053292137 1987.4271094775177
2298.598792909839 2629.087776944244
2299.1882380388597 2317.276781589888
2299.777540748455 2690.65775151204
2300.3667010707904 2381.327450220992
2300.9557190380256 2352.2399038441135
2301.544594682302 2123.9791376580038
2302.1333280357503 1895.4398085104488
2302.721919130485 2187.3332993552
2303.3103679986198 2685.508234158146
2303.898674672242 2447.651871170305
2304.486839183437 2298.293162466792
2305.0748615642697 2148.943982926371
2305.6627418468015 2252.8371777476905
2306.2504800630704 2130.958515497825
2306.8380762451143 2201.3160222166102
2307.425530424949 2203.8479825125714
2308.012842634582 2206.3685873959384
2308.6000129060103 2637.2837460559344
2309.187041271214 2763.761795406757
2309.773927762164 2069.201514642363
2310.3606724108213 2499.9319453987982
2310.9472752491274 2416.5528553036543
2311.5337363090184 2333.020505766318
2312.120055622414 2027.0145190881751
2312.706233221221 1952.6303996086615
2313.2922691373424 1686.333297698632
2313.8781634026564 1808.1620073318682
2314.463916049037 1930.2606272762841
2315.049527108342 2195.694088800683
2315.6349966124235 2537.451365660112
2316.2203245931123 2584.9067254456136
2316.8055110822315 1837.0007334994891
2317.3905561115935 1878.7083951391373
2317.9754597129977 1950.2648904521561
2318.560221918229 1847.3139401260482
2319.1448427590603 1744.1695382271823
2319.729322267256 1804.3249460321745
2320.313660474563 2040.8568169600883
2320.8978574127195 2194.9115913325595
2321.481913113452 2349.483544108328
2322.0658276084705 1980.6975177016684
2322.6496009294806 2018.5882849811273
2323.233233108165 1932.785376881055
2323.8167241762058 1972.3652124457192
2324.4000741652617 2166.3285737134725
2324.983283106987 2269.939730378398
2325.5663510330232 2430.7834091985396
2326.1492779749933 1899.6626223108178
2326.7320639645204 2201.5028285120725
2327.3147090332004 1832.2349115652073
2327.897213212629 1968.612319020442
2328.4795765343843 2105.027642250229
2329.0617990300307 1927.161206620861
2329.643880731124 2471.2719942524354
2330.22582166921 2071.8458787038116
2330.807621875816 1771.0775302500092
2331.3892813824623 1469.9811143595089
2331.9708002206517 1766.5431208943235
2332.5521784218818 2345.710068732727
2333.133416017634 2242.7187316323125
2333.7145130393765 2139.571681046977
2334.295469518571 2315.657209879383
2334.876285486658 2425.6357691697003
2335.456960975076 2389.051223735746
2336.037496015242 2352.4262821181865
2336.6178906385667 2142.918170197284
2337.198144876451 2135.1412700137034
2337.778258760278 2149.6581315685517
2338.3582323214214 2130.713337954167
2338.938065591243 2111.6710142954043
2339.517758601087 2344.684434511506
2340.0973113822965 2292.078271166979
2340.676723966193 2208.2300237743743
2341.255996384094 2182.863690911835
2341.835128667295 2503.1195039205645
2342.4141208470883 2183.8447990770014
2342.992972954751 2173.9505120484278
2343.5716850215467 1784.328366250817
2344.1502570787306 1393.8752011965898
2344.7286891575386 1725.2167933508488
2345.3069812892045 2543.8394369156367
2345.885133504944 2448.4270642444453
2346.4631458359618 1889.531398825518
2347.04101831345 1650.338289782338
2347.6187509685915 1972.160767740955
2348.196343832553 2032.666386665483
2348.7737969364935 2077.5401216214213
2349.351110311558 1937.3666057218784
2349.9282839888765 1818.0438216845173
2350.5053179995757 1875.2943239100514
2351.0822123747585 1628.1606650375625
2351.658967145526 1732.8355588225543
2352.2355823429643 1837.787751913043
2352.812057998144 2085.1776662579796
2353.3883941421263 1974.7935986884781
2353.9645908059647 2273.9926825802813
2354.540648020693 1820.4935330294418
2355.116565817336 1619.822128038826
2355.6923442269126 1783.0320767507724
2356.2679832804224 1946.5899970426085
2356.8434830088518 2120.1752166069273
2357.41884344318 2071.040141610387
2357.994064614377 2237.8461550889233
