#exp_cfg={"servo_angle": 0.0, "laser_lim": 100.0, "servo_angle_to": 18.0, "laser_wup": 0.0, "bt_dev": "EnSpectr-25AE3", "laser_wdn_max": 0.0, "frames": 10.0, "servo_used": 0, "servo_calib_use": 0, "laser_wdn_min": 0.0, "servo_pix_from": 90.0, "cooler_tout": 300.0, "servo_angle_from": 0.0, "servo_calib": "[-1.9174921013161362e-09, 3.9322238269163779e-05, -0.27385609119055809, 653.59552119713567]", "laser_autoctl": 0, "servo_pix_to": 3682.0, "laser_pw": 100.0, "cooler_on": 0, "laser_volt": 4.0, "cooler_autoctl": 0, "cooler_curr": 70.0, "cooler_startup": 10.0, "laser_fixed_pw": 0, "gain": 1.3, "offset": 2.53059635486, "servo_calib_degree": 3.0, "laser_curr": 55.0, "shutter": 8200.0, "servo_calib_step": 1.0, "laser_fixed_curr": 0, "exp": 2000.0, "ccd_volt": 4.7, "bt_addr": "00:06:66:62:5A:E3", "servo_delay": 500.0, "laser_autooff": 1}
#proc_cfg={"flat_auto_wnd": 200.0, "flat_auto_fr": 200.0, "flat_auto_shift": 5.0, "yconv": 1, "flatten": 1, "flatten_strength": 100.0, "xfrom": 300.0, "auto_max_frame": 2000.0, "auto_signal": 48000.0, "flat_auto_tol": 0.1, "autoclip": 1, "xrel_range": 0.0, "flat_auto_to": 4000.0, "intensity_adj": 1.0, "xrel": 7852.0, "rmhot": 1, "flat_auto_slit": 4.999999999999997, "auto_ini_exp": 300.0, "auto_off": 0, "xto": 2860.0, "flat_auto_ref": "", "flat_auto_rank": 1, "autobackg": 0, "xrel_adj": 0.0, "auto_black_lvl": 1, "base_wnd": 100.0, "sub_baseline": 0, "xconv": 2, "auto_max_exp": 1000.0, "auto_total_exp": 10000.0, "auto_exp": 0, "rmripple": 0, "black_lvl": 8277.875, "shutter_clip_adj": 0.0, "auto_bckg": 0, "flat_auto_thr": 0.9, "subbackg": 1}
316.8218498245369 17825.157432389875
317.89969571804795 17568.464257974814
318.977263876126 17594.569866605416
320.05455438786703 17381.012716847887
321.1315673423287 17299.34445881035
322.2083028285215 17364.311890790254
323.2847609354267 17242.64636226651
324.3609417519747 17170.301156055073
325.43684536705587 17019.636328454457
326.5124718695279 16979.066734353088
327.58782134820103 16947.718845206586
328.66289389184385 16966.37736680144
329.7376895891921 16739.449961221042
330.8122085289342 16753.712169597195
331.88645079971866 16720.653060915396
332.9604164901575 16671.20804164232
334.03410568881554 16631.23425323382
335.1075184842266 16749.309007486656
336.18065496487543 16559.950022342364
337.2535152192122 16602.896074366672
338.32609933564163 16571.056888025698
339.39840740253203 16528.126456019934
340.4704395082099 16477.23596588931
341.5421957409617 16345.598462160537
342.6136761890357 16417.399486730712
343.6848809406365 16301.590817400709
344.75581008392874 16219.277005826327
345.82646370703696 16189.129485513075
346.8968418980512 16189.955140123988
347.96694474501055 16189.444234717337
349.0367723359268 16143.61813426138
350.106324758759 16086.877833804174
351.1756021014353 15955.599837627055
352.2446044518383 15913.240357032866
353.31333189781435 16108.10143021091
354.38178452716966 15935.607616143601
355.449962427665 15925.24400795158
356.51786568702846 15823.206612059546
357.58549439294256 15981.833878048574
358.6528486330535 15918.797111228554
359.71992849496564 15875.769529092326
360.7867340662433 15799.752536677779
361.8532654344144 15885.417113870659
362.9195226869597 16064.370376226818
363.9855059113288 15840.498470021073
365.05121519492604 15772.691917808153
366.11665062511565 15978.750940831005
367.1818122892273 15961.9021218421
368.2467002745434 15908.511762465238
369.31131466831175 15892.396886108003
370.375655557742 15918.390961719904
371.4397230299983 15904.620591229028
372.5035171722102 15865.923462156474
373.5670380714637 15901.837895029803
374.6302858148101 15937.02131603999
375.6932604892554 15974.561678418735
376.7559621817709 15909.263482719593
377.81839097928605 15798.052648009174
378.8805469686886 15862.762969573858
379.94243023683157 15945.423198066599
381.0040408705263 15796.738319307324
382.0653789565458 15711.1048029337
383.1264445816196 15757.679527014596
384.1872378324406 15712.841506657613
385.2477587956637 15724.010087430574
386.3080075579037 15523.037858928898
387.3679842057336 15478.986187972627
388.4276888256918 15592.435838187735
389.48712150426945 15506.462269700662
390.54628232792857 15449.033233132239
391.6051713830857 15317.948943738093
392.66378875611736 15409.297091333367
393.7221345333637 15384.082279780323
394.7802088011249 15267.911537493903
395.838011645661 15276.985709280343
396.89554315319765 15247.005378400136
397.9528034099112 15121.698649204558
399.00979250194723 15063.59438148951
400.06651051541485 15089.858073851137
401.1229575363741 15092.72218038656
402.17913365085224 15020.746130993168
403.23503894483656 15060.473840072907
404.2906735042761 14871.122499265406
405.3460374150818 14937.005703581843
406.401130763119 14894.312548474298
407.455953634224 14861.440015078546
408.5105061141876 14802.355829030657
409.56478828876243 14714.430369013367
410.6188002436629 14605.206122968279
411.6725420645689 14701.865982412672
412.72601383711117 14663.042786567565
413.77921564689314 14713.72774812009
414.8321475794728 14524.271288583675
415.88480972036814 14518.979147059214
416.93720215506437 14445.11043977608
417.9893249690049 14397.27062915182
419.04117824759123 14365.996176716866
420.09276207619223 14402.621521357363
421.144076540133 14385.118410339051
422.1951217247042 14340.561155341875
423.24589771515275 14395.30838492016
424.2964045966928 14308.272528306334
425.34664245449494 14300.163543815914
426.3966113736933 14334.221402974386
427.4463114393875 14262.712450992758
428.49574273662984 14263.677766123259
429.5449053504417 14178.721659784487
430.5937993658026 14280.296186482059
431.6424248676558 14193.105307783513
432.6907819409007 14097.774169450791
433.73887067040596 14170.93054414982
434.7866911409965 14208.384690665165
435.8342434374608 14158.451014031025
436.88152764455117 14059.272800307604
437.9285438469724 14054.27445705023
438.9752921294057 13989.000530179774
440.02177257648145 14017.741350600667
441.06798527279716 13900.961290315736
442.1139303029122 14050.948003154315
443.1596077513459 14179.623621705407
444.2050177025794 14033.482094510877
445.25016024105753 13999.32700136547
446.2950354511886 13931.568386801693
447.33964341733736 13881.091364144988
448.383984223834 13947.80264781869
449.4280579549686 13869.309255542456
450.471864694995 13874.407480503749
451.5154045281306 13896.528049526572
452.5586775385509 13858.951387004436
453.60168381039693 13815.792351860466
454.64442342776783 14002.382994646154
455.6868964747264 13862.485090581464
456.7291030353008 13783.814475097097
457.77104319347563 13927.967275297506
458.8127170332027 13842.824918100043
459.854124638392 13803.883364330886
460.895266092919 13943.467277539317
461.93614148061897 13928.71943155905
462.97675088529104 13941.97206378567
464.01709439069236 13910.654878451553
465.0571720805492 13873.168066476806
466.0969840385442 13897.893628304431
467.1365303483253 14001.46209768152
468.17581109350067 13916.94028096888
469.2148263576437 13854.22690850701
470.2535762242878 13927.771094967906
471.29206077693016 14061.69882972525
472.33028009902773 14105.155259827958
473.3682342740012 14060.062934719832
474.40592338523857 14057.037945546801
475.4433475160804 14148.372382651683
476.4805067498364 14207.833735940603
477.51740116978 14121.644593090916
478.5540308591426 14347.808844771565
479.59039590112116 14488.547478227842
480.6264963788726 14545.046396044234
481.6623323755193 14785.612015087598
482.6979039741436 14836.53259568878
483.7332112577915 15175.801616746056
484.76825430947247 15433.068456646146
485.80303321215797 15413.34265942176
486.837548048783 15570.132394505887
487.8717989022425 15762.96880064144
488.90578585539697 15902.9967297277
489.9395089910686 16090.453009287969
490.97296839203955 15901.077239459464
492.00616414106116 15752.658508948141
493.0390963208429 15793.046493843116
494.0717650140559 15708.308883177957
495.10417030333883 15454.478605426082
496.1363122712901 15385.416231339312
497.16819100046814 15065.773989638754
498.1998065734024 14965.243273959708
499.2311590725767 14827.153451641305
500.26224858044407 14657.060769807464
501.2930751794156 14485.681665352604
502.3236389518679 14430.796564345204
503.35393998014115 14175.593974637708
504.38397834653733 14170.031013985305
505.4137541333221 14115.495439951494
506.4432674227228 13943.813475524372
507.4725182969323 13907.429866247976
508.5015068381035 13862.705647435316
509.53023312835467 13946.437495630486
510.55869724976765 13823.617148818259
511.58689928438434 13757.483458393483
512.6148393142121 13732.766442853637
513.6425174212218 13827.49250523422
514.6699336873462 13774.414770132284
515.6970881944835 13836.32351389182
516.7239810244901 13755.282822508516
517.7506122591931 13750.668175870984
518.7769819803761 13823.43289530072
519.8030902697901 13830.80912358532
520.8289372091476 13819.450034186302
521.8545228801249 13968.840242678012
522.8798473643619 13793.63674521888
523.9049107434621 13857.646519614651
524.9297130989908 13855.707711124047
525.9542545124805 13844.91827308746
526.9785350654201 13765.864642767872
528.0025548392696 13733.975597958892
529.0263139154504 13733.34595788469
530.0498123753423 13812.927351845652
531.073050300296 13740.716815827438
532.0960277716204 13600.539883215755
533.1187448705896 13715.662927426616
534.1412016784416 13650.17153912273
535.1633982763833 13648.159790407124
536.1853347455726 13557.142877400296
537.2070111671401 13491.897859708779
538.2284276221817 13415.797096127764
539.2495841917516 13431.759207918876
540.2704809568677 13298.104252069053
541.2911179985167 13356.684482416986
542.3114953976419 13233.630118703208
543.3316132351592 13239.384884773393
544.3514715919409 13080.500735629012
545.3710705488247 13162.131817610072
546.3904101866156 13085.119671517965
547.4094905860784 13120.785574102847
548.4283118279418 13005.1645153057
549.4468739929034 13074.156712451586
550.4651771616191 12934.742569562994
551.4832214147063 12930.09864705609
552.501006832761 12968.567943579292
553.5185334963226 12926.944969836564
554.5358014859103 12974.97735730883
555.5528108820035 12950.172901997314
556.5695617650363 12896.358002207939
557.5860542154242 12931.36443405871
558.6022883135283 12934.84580674494
559.6182641396881 12900.732116174711
560.6339817741991 12897.575251427024
561.6494412973225 13026.314968759387
562.6646427892883 13048.320331032035
563.6795863302796 12946.879776605649
564.694272000459 12935.12668332936
565.7086998799423 13099.155871377701
566.7228700488104 12966.913085888584
567.7367825871115 12904.101337536697
568.7504375748576 13054.15403512589
569.7638350920224 12982.603887618441
570.7769752185486 13004.723381903123
571.7898580343353 13058.161748197905
572.802483619258 13005.560071851514
573.8148520531431 13151.885109947558
574.8269634157932 13154.307694070681
575.8388177869692 13130.71126601556
576.8504152463938 13153.415219176959
577.8617558737587 13368.87140538722
578.8728397487175 13220.116299233627
579.883666950891 13477.956594941945
580.8942375598654 13499.45580358778
581.9045516551851 13668.340960321546
582.9146093163617 13863.224487400435
583.924410622878 13779.574958564797
584.9339556541727 13817.408780856636
585.9432444896538 13934.48158135677
586.9522772086875 13831.544871367809
587.9610538906127 13838.006240309227
588.9695746147318 13821.934466623245
589.9778394603054 13868.611134028848
590.985848506567 13671.246232640406
591.9936018327098 13651.568638459401
593.0010995178891 13417.124994661765
594.0083416412344 13519.422047664551
595.0153282818283 13164.406786543399
596.0220595187293 13144.980946690896
597.0285354309508 13151.676074448067
598.0347560974806 13001.07612377279
599.0407215972609 12957.807944968597
600.0464320092051 12900.618481844289
601.0518874121954 12907.02281415593
602.0570878850685 12863.395051580352
603.062033506636 12802.018774705295
604.0667243556636 12853.130569973033
605.0711605108936 12699.465015165071
606.0753420510264 13089.314454980975
607.0792690547278 12998.1732443261
608.082941600629 12810.010850423076
609.0863597673306 12945.093320955097
610.0895236333909 13069.003016906658
611.0924332773357 13211.825670880668
612.0950887776617 13183.14590536028
613.0974902128219 13304.746495529584
614.0996376612384 13505.088658812127
615.1015312013005 13599.430332098427
616.1031709113595 13748.449735907987
617.1045568697336 13651.012564544348
618.1056891547069 13905.7349559213
619.1065678445229 14008.201191907647
620.1071930173985 14343.13671786548
621.1075647515099 14445.799041653616
622.1076831250048 14630.871911640677
623.1075482159849 14764.027048689972
624.1071601025305 14860.46736479297
625.1065188626781 14999.315269551787
626.105624574433 15425.758038773132
627.1044773157682 15495.081737331744
628.1030771646128 15552.06896504754
629.1014241988742 15818.106953466762
630.0995184964158 15942.979722265018
631.0973601350688 16087.163537424061
632.0949491926294 16235.515703669153
633.0922857468631 16056.604464973396
634.089369875499 16123.436025644845
635.0862016562278 16101.636332313985
636.0827811667077 15868.929343822447
637.0791084845641 15941.26431717273
638.0751836873878 15672.187222403465
639.0710068527369 15646.540610496237
640.0665780581294 15301.598162414142
641.0618973810506 15152.935185496375
642.0569648989604 15154.12527356355
643.0517806892676 14819.744354845703
644.0463448293649 14683.613527121512
645.040657396592 14421.214153315581
646.0347184682723 14217.436025263534
647.0285281216875 13945.564681762862
648.0220864340772 13892.922856139878
649.0153934826558 13725.602999248717
650.0084493446047 13579.571697508838
651.0012540970674 13584.681405210265
651.9938078171526 13360.125664008223
652.9861105819346 13262.646471299562
653.9781624684565 13362.643701760113
654.9699635537254 12975.074284305658
655.9615139147136 13082.771485286494
656.9528136283589 12843.137871266426
657.9438627715699 12912.886743161149
658.9346614212154 12875.02207216745
659.925209654135 12586.381206082786
660.9155075471263 12597.068727097943
661.9055551769616 12641.627824527483
662.895352620375 12766.698389518304
663.8848999540678 12479.261716272737
664.8741972547068 12407.17306915862
665.863244598926 12378.062294527912
666.8520420633213 12488.421011155917
667.8405897244611 12276.476943542028
668.8288876588758 12201.658602292986
669.8169359430613 12251.209934248509
670.8047346534822 12279.009209989968
671.7922838665672 12119.67945770066
672.7795836587156 12242.992919433678
673.766634106285 12429.767935503198
674.7534352856092 12197.330204897382
675.7399872729766 12110.173718050777
676.7262901446538 12219.75011953336
677.712343976862 12102.611105354454
678.6981488457986 12267.793879430414
679.6837048276229 12041.494997790407
680.6690119984596 12075.723584418924
681.6540704344043 12213.567626862086
682.6388802115107 12062.98985633095
683.6234414058108 12034.811509717083
684.6077540932874 11927.318245221471
685.591818349907 12014.258330454082
686.575634251587 12045.698194837127
687.5592018742263 12000.890445103469
688.5425212936734 11858.1980081672
689.5255925857564 12051.890198908104
690.5084158262707 11993.45584388558
691.4909910909646 11919.537166676904
692.4733184555644 11852.792865994097
693.4553979957618 12033.48264190265
694.4372297872123 11942.727537846975
695.4188139055404 11925.695128978838
696.4001504263324 11788.549190545555
697.3812394251509 11954.040505717992
698.3620809775111 11979.750228107649
699.3426751589104 11808.096446831807
700.3230220448004 11858.255683331507
701.3031217106054 11839.955054391849
702.2829742317172 12041.543010405643
703.2625796834873 11763.90173632657
704.2419381412474 11747.623460549648
705.22104968028 11912.52283294375
706.1999143758458 11843.885532150684
707.178532303169 11783.663827373903
708.1569035374378 11962.112714196595
709.1350281538107 11977.206710337974
710.1129062274158 12028.512982325394
711.0905378333373 12220.44069837183
712.0679230466376 12247.809212389695
713.0450619423427 12428.553125249491
714.0219545954424 12580.488999907953
714.9986010808989 12534.457773158641
715.9750014736292 12742.685224584011
716.9511558485392 12956.226154336498
717.9270642804786 13113.169013752098
718.9027268442787 13186.223664186316
719.8781436147328 13171.532312270681
720.8533146666014 13179.45000228899
721.828240074612 13130.435679428407
722.8029199134635 13060.800963279657
723.7773542578125 12964.809603202903
724.751543182294 12800.725680796808
725.7254867615029 12816.93083030002
726.6991850700015 12527.038095293334
727.6726381823228 12471.451504701186
728.6458461729599 12457.235290403058
729.6188091163858 12402.810042736483
730.5915270870246 12342.539476626836
731.5640001592856 12244.683799897484
732.536228407529 12297.986618154613
733.5082119060917 12196.086525624483
734.4799507292755 12317.506774084997
735.4514449513481 12180.02011621928
736.4226946465496 12284.654492267378
737.3936998890786 12271.721037776826
738.3644607531078 12153.948626647252
739.3349773127793 12125.476203649598
740.3052496421951 12149.283551801085
741.27527781543 11976.09307950911
742.2450619065221 11841.73086915311
743.2146019894826 12018.839207798641
744.183898138288 11906.043635205413
745.1529504268801 11760.169778541154
746.1217589291682 11639.635945809383
747.0903237190341 11641.894291519258
748.058644870318 11698.725608373285
749.0267224568397 11591.375155298796
749.994556552374 11475.02842678893
750.9621472306771 11559.193985503129
751.9294945654583 11502.046756203275
752.8965986304011 11575.488409606229
753.8634594991636 11527.947244751336
754.8300772453586 11501.541858386696
755.7964519425768 11468.200063360146
756.762583664371 11535.310870736117
757.7284724842611 11573.205843634856
758.6941184757416 11581.532781975317
759.6595217122667 11509.217959373904
760.6246822672638 11492.598915900755
761.5896002141235 11391.29614049548
762.5542756262093 11506.782018501448
763.5187085768503 11484.919878814906
764.4828991393406 11454.797853798123
765.4468473869474 11439.283342310413
766.4105533929032 11478.654623532295
767.3740172304078 11348.479162461876
768.3372389726283 11561.424976403516
769.3002186926988 11304.159243586695
770.2629564637282 11246.537545869134
771.2254523587872 11232.765132280676
772.1877064509154 11187.211733591259
773.1497188131179 11162.323285345585
774.1114895183728 11028.631821228944
775.0730186396268 11143.152035039471
776.0343062497905 11069.418346061331
776.9953524217381 10981.338480258793
777.9561572283274 11046.101555851794
778.9167207423689 10955.62808489351
779.8770430366476 10890.768443436518
780.8371241839159 11009.921888526189
781.7969642568951 10969.981479755172
782.7565633282757 11173.398774005032
783.7159214707099 10991.991606274012
784.6750387568281 11044.838197232279
785.6339152592227 11065.103871797732
786.5925510504512 11033.303577486387
787.5509462030477 11146.83553911919
788.5091007895098 11033.843091778072
789.4670148823006 11050.344102296824
790.4246885538596 11045.105010104027
791.3821218765861 11038.600533274537
792.3393149228505 11022.21734145294
793.2962677649975 11130.667071799731
794.2529804753303 11201.059641205498
795.20945312613 11201.730805133175
796.1656857896378 11131.305331623236
797.1216785380675 11117.358910621699
798.0774314435985 11323.651693714633
799.0329445783846 11487.871103884501
799.9882180145414 11412.241229446652
800.9432518241574 11324.984965559404
801.89804607929 11568.623757966325
802.852600851962 11620.725351285999
803.8069162141637 11648.149647005408
804.760992237856 11675.656145362487
805.714828994971 11818.943141951957
806.6684265574077 11744.383847497214
807.6217849970271 11742.56522765339
808.574904385674 11615.234507067396
809.527784795142 11794.388744725007
810.4804262972102 11839.734706460116
811.4328289636178 11571.745539859572
812.3849928660748 11397.060397805633
813.3369180762638 11281.88743374556
814.2886046658241 11403.707043896076
815.2400527063783 11215.268382548962
816.1912622695108 11079.275376148682
817.1422334267718 11169.51495302164
818.0929662496856 10901.622419232242
819.0434608097457 10856.149498601768
819.9937171784059 10793.673398939498
820.9437354271013 10707.491760818782
821.8935156272255 10798.591195787314
822.8430578501484 10576.499339350517
823.7923621672016 10522.059451906087
824.7414286496896 10602.05684482255
825.6902573688876 10586.978547699762
826.6388483960363 10470.967058151808
827.5872018023492 10378.0962634256
828.5353176590033 10545.745626936323
829.4831960371503 10391.915919126452
830.4308370079016 10311.469397730883
831.3782406423525 10407.20640559359
832.3254070115545 10441.655827936487
833.2723361865319 10343.58298672124
834.2190282382799 10210.466146389577
835.1654832377644 10319.854764452684
836.1117012559116 10263.108465586705
837.0576823636256 10362.911641804505
838.003426631778 10153.357303794595
838.9489341312074 10166.162826704713
839.8942049327197 10323.556333280103
840.8392391070975 10361.021853628685
841.7840367250865 10259.605795481124
842.7285978573982 10091.560408148793
843.672922574724 10305.976125070574
844.6170109477152 10205.431746152723
845.560863046996 10257.446793570092
846.5044789431595 10207.831063414551
847.4478587067697 10169.990044850105
848.3910024083561 10301.481517237005
849.333910118421 10218.408815210012
850.2765819074339 10099.358153742633
851.2190178458332 10263.086764716929
852.161218004032 10291.883652961882
853.1031824524016 10279.495813961787
854.0449112612987 10166.561864396373
854.9864045010327 10322.789553098823
855.9276622418947 10171.07803914784
856.8686845541379 10218.062534970484
857.8094715079915 10211.168394474174
858.7500231736467 10348.891199714486
859.690339621271 10247.774555029737
860.6304209209939 10327.173487854274
861.5702671429244 10128.457767562904
862.5098783571284 10237.925012772545
863.4492546336569 10292.922337357377
864.3883960425155 10322.272691880407
865.3273026536863 10148.346933140494
866.2659745371238 10181.051847298175
867.2044117627465 10474.419097929853
868.1426144004472 10257.32709183408
869.0805825200823 10424.360423740422
870.0183161914847 10388.158593032776
870.9558154844526 10523.220199880569
871.8930804687552 10541.67122776157
872.8301112141307 10499.81935409227
873.7669077902865 10598.358344161206
874.7034702669062 10724.09976521341
875.6397987136315 10637.615431628026
876.5758932000863 10733.536822446475
877.5117537958522 10840.503854997118
878.4473805704911 10715.562811784786
879.3827735935283 10723.873491923312
880.3179329344603 10959.050088932654
881.2528586627541 11022.240772254681
882.1875508478479 10946.470381995352
883.1220095591489 10791.679380124198
884.0562348660296 10820.214995963162
884.9902268378391 10886.574278491164
885.9239855438955 10765.275215232976
886.8575110534839 10613.668750834462
887.7908034358588 10689.774407430912
888.7238627602474 10717.902547294401
889.6566890958475 10639.391490570464
890.5892825118208 10486.511058027292
891.5216430773125 10387.586895953107
892.4537708614189 10439.088077454477
893.3856659332196 10366.962555295398
894.3173283617652 10263.671226112307
895.2487582160684 10276.328142778435
896.179955565116 10119.768752340005
897.110920477864 10060.579282098786
898.0416530232451 10112.584093637834
898.9721532701478 10010.594470856098
899.9024212874428 10057.235269443197
900.8324571439662 9906.239514190076
901.7622609085302 9856.839475192066
902.6918326499072 9794.977193409966
903.6211724368477 9892.411261676469
904.5502803380696 9884.290773224338
905.4791564222614 10068.883961872607
906.4078007580792 9767.447923794625
907.3362134141571 9791.69795959092
908.2643944590909 9956.7048942454
909.1923439614493 9761.371152323947
910.1200619897754 9769.342377485475
911.0475486125779 9956.153663451698
911.9748038983344 9770.944983372248
912.9018279155007 9711.035078565288
913.8286207324982 9689.84654045258
914.7551824177117 9796.196038769918
915.6815130395116 9663.588516603482
916.6076126662283 9556.126779712347
917.533481366163 9598.774296910351
918.4591192075914 9621.910124225747
919.3845262587565 9736.68528700254
920.3097025878706 9551.732989176433
921.2346482631237 9517.992060789975
922.1593633526682 9618.309257739067
923.0838479246304 9623.87969844557
924.0081020471061 9752.632022948212
924.9321257881656 9451.791602251853
925.8559192158464 9547.485559530829
926.7794823981512 9436.908336292287
927.7028154030686 9508.15035866733
928.6259182985414 9398.633192457502
929.5487911524906 9613.07456374061
930.4714340328119 9572.619158028227
931.3938470073608 9386.819818242491
932.3160301439748 9430.268614427427
933.2379835104548 9525.163377514702
934.1597071745709 9472.80552794671
935.0812012040769 9390.34853415119
936.002465666681 9540.045289275376
936.9235006300696 9502.371169309006
937.8443061619055 9519.437409828413
938.7648823298077 9345.497321453131
939.6852292013809 9368.307963093892
940.6053468441951 9528.839773705371
941.5252353257874 9346.833257663315
942.4448947136698 9363.025757541216
943.364325075323 9431.777683529803
944.2835264782043 9489.86799068083
945.2024989897309 9484.989511440215
946.1212426773054 9498.485099302507
947.0397576082851 9428.241631726556
947.9580438500125 9623.028902831662
948.8761014697939 9599.050890043069
949.7939305349064 9551.330998049132
950.7115311125999 9494.144461690345
951.6289032700952 9510.700307674717
952.5460470745875 9643.409009619649
953.4629625932339 9488.528320741281
954.3796498931715 9527.872011111811
955.2961090415029 9552.398558202642
956.2123401053068 9519.889191665365
957.1283431516276 9432.509371303067
958.0441182474842 9382.907883809577
958.9596654598663 9602.290607496134
959.8749848557309 9421.719165998578
960.7900765020167 9371.669152679871
961.7049404656209 9337.696448105211
962.6195768134185 9409.326317006118
963.5339856122537 9378.882775341921
964.4481669289453 9357.465271347935
965.3621208302793 9248.525649498388
966.2758473830145 9266.066609948008
967.1893466538822 9430.425643393148
968.1026187095813 9302.67384189818
969.0156636167867 9311.252546117503
969.9284814421426 9364.174034875701
970.8410722522622 9282.518180043933
971.753436113735 9315.60965370101
972.6655730931161 9270.99280036242
973.5774832569368 9391.777812558545
974.4891666716958 9250.853509537028
975.4006234038698 9171.35164319728
976.3118535198955 9262.170294608812
977.2228570861935 9310.851370075721
978.1336341691494 9400.632891591044
979.0441848351202 9209.11673122532
979.9545091504333 9352.34686427584
980.864607181391 9318.576997682683
981.7744789942699 9355.758999172329
982.6841246553086 9317.470247463061
983.5935442307236 9372.755951356685
984.5027377867027 9426.050610290336
985.4117053894024 9361.76380817553
986.3204471049557 9343.278638433407
987.2289629994648 9457.901408688927
988.1372531390007 9553.437826216028
989.0453175896091 9506.143877307626
989.9531564173067 9527.6682108197
990.860769688079 9400.061585216876
991.7681574678918 9464.617465122003
992.6753198226706 9547.972401484247
993.582256818323 9530.091841681702
994.4889685207218 9477.094935860561
995.3954549957143 9673.47181527006
996.301716309119 9647.576562669994
997.2077525267232 9571.3005200251
998.1135637142943 9528.32638470388
999.0191499375615 9805.587106928517
999.924511262232 9732.640597432528
1000.8296477539861 9727.613183017887
1001.7345594784656 9639.26966931883
1002.6392465012996 9550.627535226326
1003.5437088880753 9724.453449201694
1004.4479467043584 9659.67650067767
1005.3519600156869 9419.522255263368
1006.2557488875718 9597.624056324286
1007.1593133854858 9552.578790358826
1008.0626535748888 9491.51642407657
1008.9657695212009 9341.371212933593
1009.8686612898182 9618.13300628963
1010.7713289461135 9523.75120394967
1011.6737725554212 9492.116614072966
1012.5759921830577 9380.98241532152
1013.4779878943027 9360.624860763155
1014.379759754418 9412.056751548362
1015.2813078286254 9234.239131361257
1016.18263218213 9162.272003246924
1017.0837328801026 9192.248028920325
1017.9846099876886 9280.627642415242
1018.8852635700023 9166.471095262757
1019.7856936921362 8982.958132316033
1020.6859004191447 9151.021603410001
1021.5858838160675 8990.521886009872
1022.4856439479063 9061.142615387034
1023.3851808796389 8938.181593647554
1024.2844946762143 9189.797847626189
1025.183585402554 9072.112764471689
1026.082453123554 8844.419848830365
1026.9810979040776 8924.578562351
1027.8795198089647 8800.614919331198
1028.777718903024 8971.886515736334
1029.6756952510368 8846.37678508649
1030.5734489177648 8797.000956827504
1031.4709799679313 8804.240318351318
1032.3682884662358 8968.237782692082
1033.2653744773506 8685.967094587133
1034.1622380659192 8680.3008490527
1035.058879296559 8806.978572459313
1035.9552982338591 8930.067103813743
1036.8514949423825 8716.285145886808
1037.7474694866614 8622.792819501274
1038.6432219312028 8582.335426306938
1039.5387523404825 8759.019936146451
1040.4340607789582 8707.420850178582
1041.3291473110476 8637.97870076838
1042.2240120011465 8729.322406823305
1043.1186549136273 8760.840057440231
1044.0130761128294 8578.09648135436
1044.9072756630649 8593.63102426709
1045.8012536286205 8769.37244178892
1046.6950100737577 8705.523745139983
1047.588545062701 8764.127024995316
1048.481858659663 8732.749408836822
1049.3749509288118 8882.609948727473
1050.2678219343034 8688.657419103401
1051.1604717402515 8758.16779438659
1052.0529004107575 8650.523252714327
1052.9451080098825 8806.517173578792
1053.8370946016694 8747.14548054766
1054.7288602501267 8861.615038138314
1055.6204050192446 8834.463027152538
1056.511728972977 8973.663879396294
1057.402832175254 8906.560261368091
1058.2937146899785 8815.024681362054
1059.1843765810263 8825.91159304379
1060.0748179122456 8935.6280957423
1060.9650387474576 8925.079168242453
1061.855039150456 8929.432724416956
1062.7448191850071 8910.083586491668
1063.6343789148505 8953.258183288604
1064.5237184037014 9139.045127040994
1065.412837715241 8886.793183354519
1066.3017369131267 8952.935791383099
1067.190416060992 8916.288439978613
1068.0788752224398 8881.022926874055
1068.9671144610438 8924.031477921566
1069.8551338403558 8982.030773681548
1070.7429334239023 8955.620032747325
1071.6305132751695 8762.727422235219
1072.517873457633 8965.921369045609
1073.4050140347335 8743.209990264611
1074.2919350698776 8796.466360195871
1075.1786366264623 8837.328860760637
1076.0651187678395 8822.179127667623
1076.95138155735 8626.439334393306
1077.8374250582929 8685.512083479369
1078.7232493339507 8702.438190189492
1079.608854447577 8618.393528874823
1080.4942404623907 8539.221454090331
1081.3794074415982 8608.501035458878
1082.2643554483657 8632.130944527287
1083.149084545841 8523.676747320762
1084.033594797138 8496.92361110917
1084.9178862653516 8560.179258113772
1085.8019590135427 8632.115900456578
1086.6858131047484 8429.868832373146
1087.5694486019802 8554.145647270692
1088.4528655682225 8500.332370599714
1089.3360640664287 8662.57890874935
1090.2190441595321 8608.82962575812
1091.1018059104317 8522.238468249969
1091.98434938201 8552.295596880092
1092.866674637111 8703.259419307284
1093.748781738559 8486.99372626317
1094.6306707491512 8336.911099718189
1095.5123417316554 8627.214058503972
1096.3937947488157 8437.97829381476
1097.2750298633455 8416.168438665598
1098.156047137938 8360.134229955636
1099.0368466352556 8417.031846113092
1099.9174284179317 8541.148144398643
1100.7977925485757 8209.568426208903
1101.6779390897755 8289.78451581936
1102.5578681040806 8302.613186612063
1103.4375796540226 8282.344631866164
1104.3170738021054 8289.80783049864
1105.1963506108077 8152.678852117296
1106.0754101425773 8166.165458672008
1106.9542524598382 8251.201802624662
1107.8328776249855 8254.275122096524
1108.7112857003904 8132.256198086543
1109.5894767483987 8231.513013692036
1110.4674508313292 8285.637292748237
1111.3452080114657 8220.950642607115
1112.2227483510815 8306.518307455957
1113.1000719124077 8378.432853224858
1113.9771787576592 8562.179103006412
1114.854068949022 8381.280284107112
1115.7307425486542 8495.49863464026
1116.6071996186893 8626.33006826047
1117.483440221229 8660.168267076097
1118.3594644183577 8590.917675105971
1119.235272272128 8584.128218586256
1120.1108638445658 8802.560224734607
1120.9862391976712 9042.804788927537
1121.8613983934229 8926.791617765022
1122.7363414937627 8958.029857392552
1123.6110685606182 9062.08695407729
1124.485579655884 9207.945833528796
1125.359874841426 9148.18751788369
1126.2339541790916 9059.879796538833
1127.1078177306936 9380.197596332197
1127.9814655580267 9167.004220438303
1128.854897722851 9267.81963925197
1129.7281142869106 9229.790676228185
1130.6011153119125 9345.3693917239
1131.473900859548 9434.375027672362
1132.3464709914697 9313.51688565336
1133.2188257693178 9214.217225904595
1134.0909652546961 9103.117309257694
1134.96288950919 9069.93495600366
1135.8345985943506 9144.982888356766
1136.7060925717087 8862.46020358668
1137.57737150277 8884.948309682199
1138.4484354490069 8932.697033870274
1139.3192844718778 8840.660894741584
1140.1899186327992 8526.768991159004
1141.060337993178 8719.404703647533
1141.930542614382 8563.983494915363
1142.8005325577597 8383.372877216781
1143.670307884635 8252.450564032846
1144.5398686563003 8410.360008455882
1145.409214934025 8291.549663052834
1146.2783467790541 8007.041264350897
1147.1472642526023 8025.8525932306675
1148.0159674158622 8192.410731313921
1148.8844563300026 7962.254705982981
1149.7527310561618 7818.2678814349765
1150.6207916554504 7780.570963937297
1151.4886381889592 7792.258258630727
1152.3562707177498 7890.312115327746
1153.2236893028585 7719.162474838764
1154.090894005296 7647.088579971774
1154.9578848860474 7693.081004769881
1155.8246620060709 7626.768036518928
1156.6912254262988 7490.595598684932
1157.5575752076438 7517.144998171236
1158.42371141098 7708.0861462129715
1159.2896340971656 7667.431181051412
1160.1553433270346 7574.67436390206
1161.0208391613887 7647.996208246857
1161.8861216610057 7642.552479648698
1162.75119088664 7643.1309577108605
1163.6160468990201 7468.5623119069405
1164.4806897588442 7401.430846766767
1165.3451195267917 7573.780543960706
1166.2093362635114 7513.947410480885
1167.0733400296285 7540.235645147784
1167.9371308857444 7423.0287120120365
1168.8007088924278 7427.389186587041
1169.6640741102328 7523.015232448883
1170.5272265996773 7437.602401472456
1171.390166421259 7455.566473081516
1172.252893635452 7452.267615779276
1173.1154083026995 7602.228777522719
1173.977710483421 7485.805256213998
1174.8398002380145 7273.2352320264445
1175.7016776268483 7529.327313001438
1176.563342710264 7468.885514882614
1177.4247955485826 7350.039909179564
1178.2860362020947 7444.935455090928
1179.147064731069 7275.710062535031
1180.0078811957483 7461.119384217249
1180.8684856563486 7318.770781263692
1181.7288781730604 7459.05349816776
1182.589058806052 7579.346751898809
1183.4490276154593 7747.8064450552065
1184.3087846614017 7489.426871456921
1185.1683300039676 7622.373173344366
1186.027663703222 7816.838325866471
1186.8867858192025 7662.489297510292
1187.7456964119228 7734.687254714084
1188.6043955413716 7718.8825691993
1189.4628832675116 7935.638378929272
1190.3211596502842 8023.471702325216
1191.179224749596 7904.807289408313
1192.0370786253388 7851.659491119867
1192.8947213373758 8055.331179078357
1193.7521529455407 8081.022488926457
1194.6093735096438 7917.595410601444
1195.466383089477 7979.5739032672045
1196.3231817447977 8041.121276326092
1197.1797695353398 8241.234779182274
1198.0361465208189 7883.385553477676
1198.8923127609214 7939.260040689718
1199.7482683153048 8124.257298255237
1200.6040132436028 8196.32636853103
1201.459547605431 8027.975190076855
1202.3148714603722 8015.480243573664
1203.1699848679855 8044.737963635349
1204.0248878878065 8051.9891125332815
1204.8795805793507 7746.110254113437
1205.7340630020935 7930.017029275832
1206.5883352155033 8016.63606438854
1207.4423972790064 7954.441305475622
1208.2962492520237 7672.050550879991
1209.1498911939307 7696.312873154202
1210.0033231640937 7702.027194557975
1210.8565452218427 7714.417351358874
1211.7095574264913 7493.944382500039
1212.5623598373222 7426.021013767221
1213.4149525135963 7378.457937573793
1214.2673355145507 7474.877273264232
1215.1195088993936 7339.953688855365
1215.9714727273113 7349.976838519348
1216.8232270574663 7482.906080391478
1217.6747719489904 7201.074774104687
1218.5261074609934 7201.592611945211
1219.3772336525653 7303.272051968881
1220.2281505827668 7256.767997069716
1221.0788583106296 7298.8564149838885
1221.9293568951707 7024.539874729972
1222.7796463953746 7063.432061473434
1223.629726870202 7235.4533508580325
1224.4795983785934 7169.644638122665
1225.3292609794553 7069.159389926373
1226.1787147316809 6944.834093617015
1227.0279596941327 7165.894938120646
1227.8769959256424 6972.561553829769
1228.7258234850306 7111.2036085185055
1229.5744424310833 6887.050946770056
1230.422852822563 7123.446632731463
1231.2710547182105 7307.765177640179
1232.119048176739 7083.391698449438
1232.9668332568417 6927.552871122787
1233.8144100171812 7093.003235527154
1234.6617785163999 7108.289565617217
1235.508938813111 6877.749396309753
1236.3558909659114 6911.89570439692
1237.2026350333617 7096.587936949703
1238.049171074008 7127.985755074709
1238.8954991463652 6917.162342770284
1239.741619308932 7030.970673077587
1240.587531620169 5908.0162723303265
1241.4332361385277 7077.3193054803705
1242.2787329224248 6926.889327227985
1243.1240220302534 6858.908703084005
1243.9691035203869 6794.489938407317
1244.813977451171 7179.885185597914
1245.6586438809263 7010.812880084617
1246.5031028679496 6762.663836014401
1247.3473544705157 6968.529838995435
1248.1913987468706 6915.659285158411
1249.0352357552383 6739.96231442021
1249.8788655538228 6891.399732878024
1250.7222882007918 6934.565652884243
1251.565503754302 6918.647508570798
1252.4085122724755 6683.195383137761
1253.2513138134182 7006.73182038779
1254.0939084352049 6931.993331775285
1254.9362961958905 6876.233362619101
1255.7784771535007 6868.768318523007
1256.6204513660432 6865.38965645701
1257.4622188915 7071.108849374314
1258.3037797878242 6935.8772994573155
1259.1451341129468 6718.798054368339
1259.9862819247755 6941.832695692601
1260.8272232811978 6954.029052331898
1261.6679582400666 7098.197910606531
1262.5084868592203 6691.944424844996
1263.34880919647 6731.934401496731
1264.1889253095997 6876.964320836477
1265.0288352563712 7010.519853225494
1265.8685390945266 6793.516359496537
1266.7080368817751 6844.19789954038
1267.5473286758115 7032.025386835556
1268.386414534294 6945.36869723645
1269.2252945148703 6631.609175244041
1270.0639686751547 6738.488038863358
1270.9024370727402 6775.45033694155
1271.7406997651997 6675.648534208213
1272.5787568100714 6581.533471409826
1273.4166082648808 6693.8793506963
1274.2542541871244 6646.643790981043
1275.091694634275 6915.5751377519355
1275.9289296637817 6467.927025894019
1276.7659593330663 6765.882245513087
1277.6027836995308 6611.552550048449
1278.4394028205552 6772.5506609856475
1279.2758167534867 6562.5588260026225
1280.112025555658 6620.609841516583
1280.9480292843746 6686.437303237045
1281.7838279969128 6516.254044226697
1282.6194217505326 6555.291676534578
1283.4548106024686 6464.47044387671
1284.289994609926 6616.571413026706
1285.1249738300921 6667.624753698912
1285.959748320127 6547.101561430591
1286.7943181371702 6551.50918659445
1287.6286833383328 6522.280859993119
1288.4628439807038 6577.22049165275
1289.2968001213521 6512.717057115588
1290.1305518173194 6551.4980217161
1290.9640991256183 6599.583041860635
1291.7974421032523 6471.260407422716
1292.630580807183 6466.043224594235
1293.463515294361 6558.699225580356
1294.29624562171 6679.562320600819
1295.12877184613 6506.203818347186
1295.961094024493 6488.994039100012
1296.79321221365 6575.991641257069
1297.6251264704333 6726.946949523384
1298.4568368516466 6868.266545579619
1299.2883434140658 6577.8331892077385
1300.1196462144526 6611.214754598082
1300.9507453095375 6743.492137861637
1301.7816407560313 6723.533402538642
1302.6123326106172 6686.664438151692
1303.4428209299622 6639.290558616502
1304.2731057707024 6895.7689713250975
1305.1031871894502 6697.329272383009
1305.933065242798 6837.913576099995
1306.7627399873181 6685.834741308061
1307.5922114795467 7123.021231320543
1308.4214797760123 7028.7265811006755
1309.2505449332057 6816.841061188337
1310.0794070076026 6917.317956480698
1310.9080660556538 7123.654773562562
1311.736522133786 7129.723320798694
1312.5647752983987 6975.2823002320465
1313.3928256058734 6688.186414771235
1314.2206731125661 7034.805174207686
1315.048317874809 7054.973730358611
1315.8757599489109 6908.853543455656
1316.7029993911547 6948.1707862682115
1317.5300362578055 7146.6150602160415
1318.356870605101 6855.915126086604
1319.183502489257 6857.104734324702
1320.0099319664623 7036.023560204766
1320.836159092889 7019.462998575994
1321.66218392468 7056.799774166025
1322.4880065179532 6816.457832234152
1323.3136269288134 6952.59106786756
1324.1390452133292 7108.952686209237
1324.9642614275563 7105.981003869971
1325.7892756275214 6835.703783780996
1326.6140878692295 6781.922137378147
1327.4386982086617 7383.797765440324
1328.2631067017755 6927.15151775916
1329.0873134045069 6966.029053186539
1329.911318372764 6836.877872600549
1330.735121662441 6929.253604959864
1331.558723329399 6879.608824009636
1332.3821234294774 6708.207856056407
1333.2053220185007 6853.774130166332
1334.0283191522612 6716.284306134208
1334.851114886529 6791.657705170704
1335.6737092770582 6580.631433813964
1336.4961023795695 6640.308431101371
1337.3182942497697 6570.151994533553
1338.1402849433325 6632.336074736714
1338.962074515921 6462.033140071247
1339.7836630231632 6372.539659682014
1340.6050505206676 6865.317721475112
1341.426237064028 6678.620905123016
1342.2472227088037 6443.101828684328
1343.0680075105338 6309.577594604715
1343.888591524741 6539.536711621475
1344.7089748069138 6636.251177901186
1345.5291574125276 6484.383458770389
1346.3491393970307 6342.635629130056
1347.168920815846 6536.414896394544
1347.9885017243778 6526.328587015019
1348.8078821780036 6334.759985269283
1349.6270622320844 6452.2897623299905
1350.4460419419447 6349.736414775591
1351.2648213629054 6434.490008700101
1352.0834005502438 6178.9723539296265
1352.90177955923 6128.668559544094
1353.7199584451064 6465.721313109172
1354.5379372630887 6461.250506267409
1355.355716068374 6286.526240135883
1356.1732949161305 6161.442761894856
1356.9906738615155 6241.648015434233
1357.8078529596478 6269.268244515945
1358.6248322656375 6391.064667035633
1359.441611834567 6259.610454192515
1360.2581917214866 6408.224688287917
1361.0745719814367 6275.1355564588575
1361.890752669433 6158.100715555784
1362.7067338404577 6166.220645903156
1363.5225155494845 6406.943899845604
1364.3380978514506 6356.861890855131
1365.1534808012839 5984.50957030873
1365.9686644538815 5914.017911907108
1366.783648864117 6368.627471500324
1367.5984340868417 6365.852314908606
1368.413020176893 6375.074438932183
1369.2274071890715 5942.936932366643
1370.0415951781652 6365.735699091203
1370.8555841989346 6172.733686762624
1371.6693743061223 6113.802475647279
1372.48296555444 5955.064194525627
1373.2963579985844 6152.802766389492
1374.1095516932255 6052.328964158971
1374.9225466930166 5877.630210051883
1375.7353430525782 6120.44826965294
1376.5479408265164 5905.674756565316
1377.36034006941 6153.179516582954
1378.1725408358216 6049.958446696161
1378.9845431802805 5826.335612069295
1379.796347157304 6294.721760149974
1380.6079528213813 6012.6260460104695
1381.4193602269788 5856.588424833394
1382.230569428546 5822.542928641816
1383.0415804805016 6051.222023156649
1383.852393437246 6064.977467214663
1384.6630083531563 6099.696160209787
1385.4734252825892 5871.175540969964
1386.2836442798798 5893.886415149076
1387.0936653993322 5979.980609520711
1387.9034886952395 5904.627403084416
1388.713114221864 6026.103051334894
1389.5225420334482 5957.9932980519525
1390.331772184214 5847.130247791304
1391.1408047283585 5696.17943705629
1391.9496397200564 5873.479389475691
1392.758277213461 6036.282929898969
1393.5667172627054 6048.504291524134
1394.3749599218918 5878.61952886762
1395.1830052451114 5682.020671058943
1395.9908532864265 5803.527491568206
1396.7985040998774 6163.488149409411
1397.6059577394808 5698.915982008068
1398.4132142592352 5802.681323033772
1399.2202737131156 5791.368075266558
1400.027136155073 5951.948977592638
1400.8338016390353 5716.519107096209
1401.6402702189134 5652.638256561355
1402.446541948586 5780.751735961186
1403.2526168819204 5716.424393646144
1404.058495072757 5588.431627296609
1404.8641765749107 5746.116900757703
1405.6696614421799 5841.712338729291
1406.4749497283356 6103.717685090293
1407.280041487129 5577.876665124926
1408.084936772295 5472.367751916036
1408.8896356375335 5805.376864908534
1409.6941381365323 5729.173378285958
1410.498444322955 5479.266938478725
1411.3025542504402 5540.273750252856
1412.106467972606 5711.239489528668
1412.9101855430508 5620.755408952906
1413.7137070153458 5399.372747687334
1414.5170324430437 5528.041616518785
1415.320161879672 5696.541419611361
1416.1230953787435 5836.536478508468
1416.925832993742 5447.955591759733
1417.7283747781275 5335.680903814945
1418.5307207853439 5612.193511938391
1419.3328710688093 5611.949270128322
1420.134825681922 5174.926601876383
1420.9365846780584 5404.590552541554
1421.7381481105713 5780.864086654703
1422.539516032788 5547.976083399399
1423.3406884980232 5324.881564022578
1424.1416655595604 5317.96021569683
1424.942447270665 5420.284675037629
1425.7430336845828 5552.362454672023
1426.5434248545298 5214.493176592433
1427.3436208337116 5506.82848597325
1428.143621675301 5399.616347438345
1428.9434274324558 5629.3184531462475
1429.7430381583108 5257.854480581418
1430.5424539059713 5262.843076783075
1431.3416747285337 5732.040515894264
1432.1407006790632 5513.217245594027
1432.9395318106053 5401.476713170863
1433.7381681761835 5257.873592819627
1434.5366098288014 5516.180499925918
1435.3348568214424 5543.236777222877
1436.1329092070573 5125.1706351175
1436.9307670385879 5266.501647598265
1437.7284303689503 5420.528537199496
1438.5258992510335 5512.5324810363845
1439.3231737377118 5340.377454399417
1440.1202538818306 5273.1907608972215
1440.9171397362225 5373.323199720755
1441.7138313536925 5263.716508465538
1442.5103287870243 5165.94517674798
1443.3066320889775 5101.634362385238
1444.1027413122956 5375.370559590692
1444.8986565096966 5215.942227218467
1445.694377733882 5172.18937356362
1446.4899050375207 4984.208339512487
1447.2852384732687 5336.646410091159
1448.0803780937622 5297.224775470162
1448.8753239516063 5034.475417506974
1449.6700760993954 4985.645530073731
1450.464634589689 5085.108247052571
1451.2589994750397 5402.381112859856
1452.0531708079689 4958.4114911473725
1452.8471486409799 4896.829597980471
1453.6409330265524 5286.6142487502675
1454.4345240171442 5007.813075826784
1455.2279216651987 4988.787896437341
1456.0211260231263 4984.227329627609
1456.8141371433194 5148.79552741727
1457.6069550781594 5152.577079397243
1458.3995798799897 4827.63863716882
1459.1920116011424 4877.721441653314
1459.98425029393 4848.3104853432105
1460.7762960106338 4896.0964748806055
1461.5681488035225 4856.627576294396
1462.3598087248392 4987.520832273061
1463.1512758268036 5205.284800135252
1463.942550161617 4938.357944102988
1464.7336317814625 4847.758048011307
1465.524520738496 4970.637784805816
1466.3152170848552 4830.307086282118
1467.1057208726506 4910.665019573024
1467.8960321539817 4871.754464669973
1468.6861509809169 4775.864227892081
1469.4760774055085 4847.073420455772
1470.265811479785 4990.730012632717
1471.055353255755 4642.613585259181
1471.844702785409 4710.907671267774
1472.6338601207044 4697.728111371522
1473.4228253135934 4951.682139830353
1474.2115984159936 4668.356200488646
1475.0001794798063 4528.378882532402
1475.7885685569145 4815.915055812801
1476.576765699172 4732.871974685278
1477.3647709584238 4593.283555039958
1478.1525843864802 4921.209115297035
1478.9402060351367 4847.916396976613
1479.7276359561693 4853.8882354197685
1480.514874201328 4683.111974365982
1481.3019208223468 4561.523911730754
1482.0887758709323 4512.36768660928
1482.8754393987747 4878.081459650685
1483.6619114575406 4527.996549868573
1484.4481920988783 4622.045709354014
1485.2342813744108 4781.460276583495
1486.0201793357446 4897.95488384907
1486.8058860344572 4598.627170659456
1487.591401522117 4591.464289431409
1488.3767258502594 4688.846303585775
1489.1618590704056 4694.947164122623
1489.9468012340494 4384.915399519954
1490.7315523926754 4794.029347591248
1491.5161125977356 4751.940889969798
1492.3004819006637 4650.7481203964235
1493.084660352877 4468.888013122059
1493.8686480057622 4736.26767300282
1494.6524449106964 5036.713653004275
1495.4360511190262 4928.0021050461355
1496.219466682087 4683.595121933855
1497.0026916511779 4654.620105541188
1497.7857260775945 4717.091072563769
1498.5685700125996 4764.066710593142
1499.3512235074395 4497.441910836173
1500.133686613337 4401.843041794227
1500.9159593814966 4610.071596718355
1501.698041863101 5083.161629051339
1502.4799341093094 4481.711119401677
1503.2616361712662 4364.282195537159
1504.043148100087 4676.693319806112
1504.8244699468742 4686.1169392910715
1505.6056017626997 4392.396876920848
1506.3865435986281 4457.56747235291
1507.1672955056893 4731.807804585458
1507.9478575348967 4522.973156207351
1508.7282297372512 4768.939050981656
1509.5084121637192 4574.078054827378
1510.2884048652577 4629.354429591801
1511.0682078927948 4402.361806157288
1511.8478212972423 4528.868643944973
1512.6272451294917 4409.741561604873
1513.4064794404076 4603.456978225338
1514.1855242808433 4609.792287289727
1514.9643797016215 4551.437450127736
1515.743045753552 4598.19741776604
1516.5215224874191 4605.538013297392
1517.2998099539836 4337.948858107847
1518.077908203999 4449.244628523255
1518.8558172881785 4404.992926257357
1519.633537257234 4621.395663973878
1520.4110681618404 4636.973851056557
1521.1884100526604 4534.893999369855
1521.9655629803365 4527.482372944681
1522.7425269954856 4650.357003232744
1523.5193021487103 4886.6240830681145
1524.2958884905856 4402.062334300349
1525.0722860716687 4565.969486413501
1525.848494942502 4420.805371733649
1526.624515153595 4509.2854930922795
1527.4003467554485 4520.426873912589
1528.175989798534 4747.367859509936
1528.9514443333064 4503.893722011412
1529.726710410203 4806.764991398917
1530.5017880796331 4365.7535308726665
1531.276677391992 4504.200616121119
1532.0513783976457 4798.810020386623
1532.825891146953 4535.042080086356
1533.6002156902414 4666.140763290493
1534.3743520778207 4600.831123819529
1535.1483003599806 4582.459724902516
1535.9220605869923 4598.832257798645
1536.6956328091019 4637.094651352423
1537.4690170765407 4549.298345773566
1538.242213439511 4786.528497255378
1539.015221948208 4617.915980822012
1539.78804265279 4492.6133560588805
1540.560675603405 4382.63436601226
1541.3331208501804 4743.83422267687
1542.1053784432224 4784.737263405521
1542.8774484326168 4571.278123943806
1543.649330868422 4671.5205552594
1544.4210258006842 4640.219823206787
1545.1925332794308 4580.906597953735
1545.9638533546604 4627.333482318665
1546.7349860763552 4511.010053208138
1547.5059314944829 4926.660769457111
1548.27668965898 4687.6475745640655
1549.0472606197673 4675.8683713662485
1549.817644426752 4464.555870842703
1550.5878411298072 4734.517068875606
1551.3578507787988 4679.228272112999
1552.1276734235635 4485.980849825132
1552.8973091139233 4573.894235764492
1553.6667578996767 4802.561922904618
1554.436019830604 4659.34878015367
1555.20509495646 4581.454381722671
1555.9739833269869 4533.558826577891
1556.7426849919011 4556.785298637452
1557.511200000903 4881.67408226791
1558.2795284036674 4701.173382142701
1559.0476702498509 4601.388585930916
1559.8156255890954 4783.0792622126155
1560.5833944710157 5101.6181143144595
1561.3509769452048 4534.922564985259
1562.1183730612447 4603.40318160089
1562.8855828686865 4651.415806619016
1563.6526064170703 4964.163241398794
1564.4194437559127 4731.516873403403
1565.1860949347047 4581.4924846690965
1565.9525600029283 4861.103165449518
1566.7188390100328 4985.144146546978
1567.4849320054564 4584.271996298814
1568.250839038612 4491.825248742467
1569.0165601588997 4616.331803118641
1569.7820954156887 4760.6502473027385
1570.5474448583373 4608.815578725391
1571.31260853618 4519.585344365758
1572.0775864985299 4470.706059452345
1572.8423787946813 4618.800145763604
1573.6069854739108 4449.738151687021
1574.371406585471 4596.037579947318
1575.1356421785986 4701.746264161961
1575.899692302506 4432.813753168102
1576.6635570063845 4653.413945006407
1577.4272363394157 4478.601400695146
1578.190730350747 4386.613634610137
1578.9540390895163 4636.666013513095
1579.7171626048384 4218.134586935983
1580.480100945806 4407.560991535678
1581.2428541614918 4375.330073939948
1582.0054223009538 4633.405558077738
1582.767805413223 4456.487151685511
1583.5300035473156 4488.541000769805
1584.292016752228 4664.763180522934
1585.0538450769309 4665.617300939828
1585.8154885703807 4318.7660808265955
1586.5769472815136 4291.162402562993
1587.3382212592405 4565.098093480953
1588.099310552463 4613.208012413632
1588.8602152100484 4330.707801507075
1589.6209352808564 4484.564926372261
1590.3814708137234 4513.811422299646
1591.14182185746 4854.7634820075455
1591.9019884608679 4399.319061901121
1592.6619706727215 4201.99576654212
1593.4217685417734 4595.343022102069
1594.1813821167616 4708.957774814202
1594.9408114464022 4323.321756347964
1595.7000565793933 4421.6667598791755
1596.459117564409 4508.253776978311
1597.2179944501113 4377.572998059555
1597.9766872851324 4375.15342904132
1598.735196118092 4617.102162310501
1599.4935209975883 4488.133225545675
1600.2516619721973 4549.436422107416
1601.0096190904787 4282.024515581737
1601.7673924009723 4372.76845818109
1602.524981952196 4373.274413860861
1603.2823877926476 4242.617783728447
1604.0396099708087 4345.150830309083
1604.7966485351371 4271.082233820156
1605.5535035340745 4356.000338972883
1606.3101750160404 4611.602639511694
1607.0666630294363 4155.963718454995
1607.822967622642 4167.117276461395
1608.5790888440224 4337.179352370264
1609.3350267419137 4450.4091394189345
1610.0907813646445 4358.163819894084
1610.8463527605145 4254.196037979294
1611.601740977805 4427.049785926622
1612.356946064785 4302.599635219323
1613.1119680696902 4177.38290762222
1613.8668070407512 4265.177858071606
1614.6214630261748 4213.028010426342
1615.375936074137 4400.207390972841
1616.1302262328118 4278.9499308333125
1616.8843335503425 4362.778095565039
1617.638258074854 4258.605001456429
1618.391999854457 4352.95647245284
1619.1455589372363 4454.116109962921
1619.8989353712623 4330.569393474979
1620.65212920458 4019.904477582055
1621.4051404852235 4198.860489223882
1622.1579692611976 4364.517666389639
1622.9106155804966 4091.393055900131
1623.663079491087 4234.679303987907
1624.4153610409248 4281.362961438133
1625.1674602779385 4209.570900660819
1625.9193772500403 4134.057311205187
1626.6711120051277 4548.510193037426
1627.4226645910676 4231.173685609224
1628.174035055721 4057.8441380131953
1628.9252234469168 4302.857144750515
1629.676229812474 4157.898542218891
1630.4270542001905 4687.3195572537825
1631.1776966578382 4372.128771539917
1631.9281572331747 4329.963449139684
1632.678435973945 4472.277392123715
1633.4285329278573 4314.276941282051
1634.1784481426203 4140.496020512479
1634.9281816659113 4372.55789767601
1635.677733545388 4594.702418918406
1636.4271038286934 4265.108936895343
1637.176292563452 4395.398451722782
1637.9252997972635 4383.254700252325
1638.674125577716 4525.9615802678145
1639.4227699523672 4867.8180155832115
1640.171232968767 4200.982493777456
1640.9195146744423 4514.02461097356
1641.6676151168977 4625.711878249288
1642.4155343436178 4783.423435413439
1643.1632724020765 4526.789475300915
1643.9108293397167 4603.890033519159
1644.658205203974 4453.8906442133675
1645.4054000422566 5048.465912988684
1646.1524139019566 4509.3428753513435
1646.8992468304423 4413.155330223757
1647.6458988750728 4530.792545000551
1648.3923700831765 4598.208917402979
1649.1386605020743 4479.421653650909
1649.8847701790564 4870.286133194795
1650.6306991614038 4675.553795751785
1651.3764474963682 4743.306345590185
1652.1220152311944 4302.4150692350595
1652.867402413096 4659.041697776536
1653.6126090892776 4730.604408238492
1654.3576353069184 4843.408419170007
1655.1024811131829 4544.959953354746
1655.8471465552066 4481.317357231903
1656.5916316801213 4757.051180366671
1657.3359365350298 4659.1448242088345
1658.0800611670165 4399.3488688378875
1658.824005623148 4548.242496030785
1659.5677699504722 4415.612776091862
1660.3113541960192 4528.834504629729
1661.054758406799 4381.237318763338
1661.7979826297997 4232.439360272136
1662.5410269119966 4256.241521313632
1663.283891300338 4558.9581039147115
1664.0265758417645 4259.616890912402
1664.7690805831826 4424.822013341042
1665.5114055714948 4490.419219999414
1666.2535508535748 4663.43021466237
1666.9955164762814 4192.387902396258
1667.7373024864555 4256.254004397048
1668.478908930916 4432.715129074418
1669.220335856462 4229.884153161829
1669.9615833098778 4211.3326754388745
1670.7026513379296 4143.592830646748
1671.44353998736 4329.106853401647
1672.1842493048916 4342.72962128349
1672.9247793372379 4038.153656377
1673.6651301310812 4214.12840176478
1674.4053017330934 4085.279198840595
1675.1452941899242 4355.889651653635
1675.885107548207 3752.419879065282
1676.6247418545518 3956.072805893039
1677.3641971555535 3890.5179353502244
1678.1034734977893 4130.1970324687645
1678.8425709278108 3908.3073598682686
1679.5814894921605 4124.822200459026
1680.320229237359 4150.113813912186
1681.0587902098978 4152.918287948758
1681.7971724562685 3844.5233056993916
1682.5353760229264 3866.365438387431
1683.2734009563173 4062.6864237542964
1684.0112473028657 3742.7299476938897
1684.7489151089794 3983.334358724916
1685.4864044210462 3984.5411027071195
1686.2237152854377 3561.6166845275065
1686.960847748498 4061.3290008759577
1687.6978018565642 3615.777359897146
1688.434577655944 3555.8785551568844
1689.1711751929379 3564.9037089762614
1689.9075945138156 3807.765155450167
1690.6438356648396 3638.331094963728
1691.3798986922448 3299.038541051986
1692.1157836422499 3604.652165428207
1692.851490561059 3541.914907814512
1693.587019494853 3645.0113347803185
1694.3223704897991 3343.132376029402
1695.0575435920364 3262.5460755754357
1695.792538847696 3901.712528294052
1696.527356302886 3463.793668659016
1697.2619960036936 3328.749249577211
1697.9964579961907 3297.462415463654
1698.730742326432 3041.598389385083
1699.4648490404488 3316.2680281466287
1700.1987781842563 3433.094848605436
1700.9325298038548 3470.978439909507
1701.6661039452174 3683.5017205347967
1702.3995006543082 3482.5591305975568
1703.1327199770658 3522.3333494462436
1703.865761959416 3261.8068497753834
1704.598626647261 3554.7788511169992
1705.3313140864866 3237.5664532198307
1706.0638243229587 3207.9438900585706
1706.7961574025303 3463.638474370615
1707.528313371029 3314.648771531757
1708.260292274268 3186.6911885388645
1708.9920941580403 3269.6970057897925
1709.7237190681226 3234.253141648223
1710.4551670502697 3255.5220849613042
1711.18643815022 3001.2022921630733
1711.9175324136959 3571.880112709444
1712.6484498863938 3238.14676583996
1713.379190614005 3017.6730065593406
1714.109754642188 3200.1902242419624
1714.8401420165883 3139.5654571076548
1715.570352782839 3770.536632459544
1716.3003869865497 3190.4701177518473
1717.0302446733076 3020.581972308549
1717.7599258886876 3200.0104974342894
1718.4894306782444 3530.427565808472
1719.2187590875183 2992.0077550824176
1719.9479111620203 3382.503979328672
1720.6768869472544 3095.8489912134946
1721.4056864887025 3522.306147702814
1722.1343098318284 3521.607072317177
1722.8627570220742 3174.3894590095133
1723.591028104871 3047.2471750265654
1724.3191231256242 2993.4255142488546
1725.0470421297232 3119.0544916975455
1725.7747851625427 3291.2959888450773
1726.5023522694337 3131.4622848911745
1727.2297434957363 3110.5828071196756
1727.9569588867635 3034.509673348633
1728.6839984878152 3149.132553605931
1729.4108623441734 2790.9514189052147
1730.1375505011038 3131.7210156067454
1730.8640630038426 3019.294624408428
1731.5903998976264 2958.5359869054564
1732.316561227657 3137.2641858545812
1733.0425470391274 2945.3141910798104
1733.7683573772065 3121.852769455365
1734.4939922870508 3037.4926910336612
1735.2194518137949 3120.9394688206476
1735.9447360025606 3098.5617422746263
1736.669844898439 3059.8974848793227
1737.3947785465189 2883.572703630401
1738.1195369918605 2799.072286151736
1738.8441202795093 3038.2703600841755
1739.5685284544943 3173.5747005829517
1740.292761561821 3092.264783565689
1741.0168196464838 3046.6971784372536
1741.7407027534518 3053.1205637188655
1742.464410927687 3173.819412068906
1743.187944214118 2939.5113162334137
1743.9113026576688 2924.640313156325
1744.634486303241 2975.250093183408
1745.3574951957125 3027.6860227000834
1746.0803293799509 3284.3804334077845
1746.8029889008048 3052.505108400362
1747.5254738031017 3055.5074126939057
1748.2477841316504 2891.0532598661816
1748.969919931249 3050.8247480561736
1749.6918812466665 2942.4986634243037
1750.4136681226646 3183.1682636796963
1751.1352806039777 2998.8528295018123
1751.856718735331 2701.7411375799475
1752.5779825614281 2809.547621409869
1753.2990721269507 3080.2118958904493
1754.0199874765676 3005.870808198442
1754.7407286549314 2741.1427531387867
1755.4612957066693 2795.5694008729693
1756.1816886763954 2763.1695868294873
1756.9019076087097 3063.3768473782548
1757.6219525481865 3027.348302103422
1758.3418235393856 3020.6569941662165
1759.061520626854 3025.431253781061
1759.7810438551096 3189.06380321081
1760.5003932686614 2815.0191065857266
1761.2195689119999 3197.434247696563
1761.938570829594 2981.6586783603043
1762.657399065898 2966.0237594778678
1763.376053665348 2737.693281423752
1764.0945346723602 2738.031413232334
1764.812842131334 3072.9227225889977
1765.5309760866512 2745.611387124088
1766.2489365826787 2820.5927043732095
1766.9667236637597 2886.383625972404
1767.684337374223 2638.1672774644876
1768.401777758383 2655.132745811454
1769.1190448605284 2731.5811923497677
1769.836138724937 2849.4743136149027
1770.5530593958665 2862.2205355613983
1771.2698069175603 3216.396500591836
1771.9863813342326 2977.5670940702403
1772.702782690094 2806.499563744169
1773.4190110293293 3029.951552964288
1774.1350663961111 2977.7322933326523
1774.8509488345844 2788.7184767416034
1775.5666583888924 2847.5220764806645
1776.2821951031437 3041.3052984673614
1776.9975590214362 2823.4954229354967
1777.7127501878585 2952.688171712748
1778.4277686464684 2953.2518383257716
1779.1426144413108 3189.5962174084952
1779.8572876164162 3156.235521718067
1780.571788215797 2606.8094986968995
1781.2861162834415 2843.979847273583
1782.0002718633277 2812.222450783765
1782.7142549994132 2926.932124178203
1783.4280657356376 2804.810054921725
1784.141704115922 2738.756111911534
1784.855170184177 2704.6875616575076
1785.5684639842839 2909.540490921449
1786.2815855601148 2491.1961320766195
1786.9945349555237 2996.2391797204486
1787.707312214343 2719.942291828888
1788.4199173803918 3197.8590203346403
1789.132350497468 2691.375069406892
1789.8446116093583 2697.303402558714
1790.556700759822 2660.36118059078
1791.2686179926077 2684.473521854702
1791.9803633514493 2831.693620438699
1792.6919368800554 2543.7216664705093
1793.4033386221236 2821.6540906581195
1794.1145686213295 2917.046633350554
1794.8256269213307 3057.589756301548
1795.536513565774 2878.974506100837
1796.247228598284 2531.0790458319625
1796.9577720624693 2619.064360175083
1797.6681440019165 2909.3023207060605
1798.3783444602013 2741.9652514346644
1799.0883734808776 2952.8491697070317
1799.7982311074884 2905.248439492868
1800.5079173835475 2818.6309427358437
1801.2174323525633 2822.47448043639
1801.9267760580187 2829.466194291852
1802.635948543386 2867.7359490158155
1803.3449498521113 2599.9921386580936
1804.0537800276325 2814.258472137291
1804.7624391133668 2827.585613788358
1805.47092715271 2498.797535531333
1806.1792441890484 2614.0018176721865
1806.8873902657433 2877.0947067965762
1807.5953654261448 2642.5237974272814
1808.3031697135812 2692.608861554749
1809.0108031713662 2579.811315074837
1809.71826584279 2778.7734141870897
1810.425557771141 2766.4505326608755
1811.1326789996747 3162.960247768219
1811.839629571632 2783.8160863147937
1812.5464095302468 2758.516491524102
1813.2530189187182 2693.8632203912885
1813.959457780249 2716.708776540029
1814.6657261580076 2836.392812707813
1815.371824095153 2708.112022704917
1816.0777516348262 2928.248028015606
1816.78350882015 2363.617855968235
1817.4890956942272 2582.298589812
1818.1945123001533 2612.145399722305
1818.8997586809928 2740.0489517957176
1819.6048348798067 2555.581807950841
1820.3097409396287 2705.351195429669
1821.0144769034796 3064.0271191389124
1821.7190428143622 2806.13246457846
1822.423438715261 2875.2434422276906
1823.1276646491478 2683.920917147604
1823.8317206589727 2748.5418155036828
1824.5356067876692 2765.2020999462643
1825.2393230781581 2732.2192511118224
1825.942869573335 2510.895034144216
1826.646246316086 2432.4041897806724
1827.3494533492758 2808.846910220703
1828.052490715756 2749.8010229753318
1828.7553584583547 2844.7615441240678
1829.458056619891 2803.5161030792615
1830.1605852431585 2649.5354733686536
1830.8629443709433 2603.3628459426614
1831.5651340460063 2652.4903831304964
1832.2671543110919 2531.530653856959
1832.9690052089318 2855.92738381877
1833.6706867822395 2447.531185125581
1834.3721990737104 2776.1099939228807
1835.0735421260233 2711.67463172781
1835.774715981841 2651.8193708989184
1836.4757206838058 2856.7303265724945
1837.1765562745459 2504.696518941132
1837.8772227966747 2531.322078627073
1838.5777202927839 2606.4770585508722
1839.2780488054523 2525.5020699136044
1839.9782083772352 2631.08621730329
1840.6781990506806 3012.70622488214
1841.378020868313 2628.6440358366385
1842.0776738726418 2595.5820965581943
1842.777158106157 2481.1487674049076
1843.4764736113375 2462.1251363404617
1844.1756204306403 2787.2702594727994
1844.8745986065078 2691.585697386791
1845.5734081813607 2433.635284713872
1846.2720491976124 2467.5148801859364
1846.970521697649 2480.7887190027927
1847.6688257238511 2704.5543876863203
1848.3669613185684 2534.647418381832
1849.0649285241452 2395.2083637805727
1849.7627273829057 2666.636974203751
1850.460357937156 2660.4786146068077
1851.1578202291857 2375.689478759777
1851.8551143012664 2584.9993143379756
1852.5522401956569 2588.128732267104
1853.2491979545957 2871.6362600700354
1853.9459876203055 2444.390259315657
1854.6426092349902 2404.124909438677
1855.3390628408451 2616.75370621294
1856.0353484800362 2748.8059221323974
1856.7314661947203 2704.23159576454
1857.4274160270397 2375.3993978540366
1858.123198019115 2489.697867831271
1858.8188122130487 2342.817939793352
1859.5142586509319 2614.8849917304815
1860.209537374838 2502.507542182386
1860.9046484268183 2411.6135091490737
1861.599591848917 2874.4005627054
1862.294367683151 2516.879241239415
1862.988975971528 2498.7139275008753
1863.6834167560355 2684.07337446793
1864.3776900786452 2840.0739758193977
1865.0717959813119 2381.19962992248
1865.7657345059724 2392.506633276005
1866.4595056945564 2670.878733997844
1867.1531095889586 2699.1601338820174
1867.846546231076 2336.0705119615436
1868.5398156627743 2782.374614329468
1869.2329179259123 2438.1109759073147
1869.9258530623283 2780.1603873701793
1870.618621113843 2450.15543399839
1871.3112221222636 2326.645510617019
1872.0036561293764 2431.2217063611542
1872.695923176956 2607.9771843829203
1873.3880233067594 2759.4642363994944
1874.0799565605212 2287.9531295266524
1874.7717229799673 2527.5712729627758
1875.4633226068036 2838.1427751791575
1876.1547554827175 2598.6705432234567
1876.8460216493859 2448.014213982029
1877.5371211484617 2455.312331695662
1878.2280540215852 2765.1073252825777
1878.9188203103804 2309.642605223728
1879.6094200564548 2527.613759133839
1880.299853301396 2416.075871317303
1880.9901200867826 2743.532615070173
1881.6802204541673 2550.238117863987
1882.3701544450942 2640.96126828045
1883.059922101087 2320.958273876418
1883.7495234636517 2781.738752280484
1884.4389585742792 2455.9576448474845
1885.1282274744517 2345.3343958393425
1885.8173302056166 2444.9756100983036
1886.506266809225 2544.753638049054
1887.195037326701 2340.238420650211
1887.8836417994517 2416.029214087494
1888.5720802688702 2851.4142408464713
1889.260352776333 2687.1133222210437
1889.9484593632042 2757.2379643417207
1890.63640007082 2467.2717476965863
1891.3241749405151 2360.7490807469603
1892.0117840135954 2570.952668714602
1892.6992273313572 2505.718074489469
1893.3865049350788 2409.7868959870166
1894.0736168660223 2828.368681782432
1894.7605631654333 2565.7913811575813
1895.4473438745408 2306.303621202124
1896.133959034556 2763.274760314779
1896.820408686679 2677.4746334380056
1897.506692872088 2804.567423409673
1898.192811631945 2571.2853120809887
1898.8787650073991 2442.620118190641
1899.5645530395832 2628.6535617549125
1900.2501757696118 2578.829573433738
1900.9356332385796 2414.98511198962
1901.620925487574 2851.208250419645
1902.3060525576602 2665.954810216538
1902.9910144898859 2625.860972260926
1903.6758113252872 2291.2654619381988
1904.3604431048789 2577.7022844169337
1905.0449098696663 2654.3461545067494
1905.7292116606295 2459.348138609217
1906.4133485187394 2568.9117195928184
1907.0973204849488 2233.4630982824556
1907.7811276001976 2309.979589488117
1908.4647699053967 2581.708971854263
1909.1482474414588 2501.2903241269582
1909.8315602492694 2420.5935929815087
1910.5147083696957 2802.181749194917
1911.1976918436012 2540.6399211241887
1911.880510711815 2351.2408025410778
1912.5631650151681 2715.8294031615815
1913.2456547944657 2349.1627123222265
1913.927980090495 2432.8994766165656
1914.6101409440362 2305.421956527165
1915.2921373958416 2654.323041402327
1915.9739694866603 2391.9529850741646
1916.655637257214 2760.9363038623383
1917.3371407482136 2576.9864273223684
1918.0184800003572 2846.622485667088
1918.6996550543154 2662.369829954109
1919.3806659507554 2477.7427475750055
1920.0615127303208 2604.6142185435815
1920.7421954336423 2752.86932491692
1921.4227141013343 2703.259090949372
1922.103068773993 2586.6101903203926
1922.783259492202 2711.7285416095892
1923.4632862965227 2389.385299615865
1924.1431492275078 2386.2222749960933
1924.8228483256917 2381.3152809578282
1925.5023836315922 2551.856934430532
1926.1817551857057 2198.202705163343
1926.8609630285227 2806.2279675549307
1927.5400072005123 2628.178000259124
1928.218887742125 2296.488276037283
1928.8976046938005 2337.1168579056157
1929.5761580959588 2517.6936263521925
1930.2545479890086 2483.868355389316
1930.9327744133352 2144.665737890615
1931.6108374093164 2475.5696127049805
1932.2887370173066 2803.4909502927444
1932.9664732776473 2202.2306806896204
1933.6440462306673 2491.7359697449706
1934.3214559166754 2486.889244874109
1934.9987023759659 2763.914615107946
1935.675785648813 2582.095025144944
1936.3527057754836 2189.402181818593
1937.029462796223 2222.0791426133906
1937.70605675126 2254.8781108818116
1938.3824876808085 2374.3673215430545
1939.058755625072 2344.6649076780736
1939.7348606242267 2374.0422055237327
1940.4108027184448 2414.0038789228324
1941.0865819478713 2631.7925749970577
1941.7621983526478 2391.818073135821
1942.4376519728921 2254.708801487129
1943.1129428487038 2409.697943491469
1943.7880710201734 2499.7040283584165
1944.4630365273733 2580.224986797867
1945.1378394103576 2225.0734315183827
1945.8124797091714 2241.281081938107
1946.4869574638324 2257.442527757834
1947.161272714353 2456.389462000318
1947.8354255007234 2619.9181646171464
1948.5094158629272 2221.1843347042377
1949.1832438409183 2575.3084288893456
1949.8569094746435 2495.3143745750467
1950.530412804037 2760.1770163442793
1951.2037538690092 2646.240356988278
1951.8769327094578 2363.14028970831
1952.5499493652678 2495.3611419613503
1953.222803876306 2812.46497114534
1953.895496282421 2534.3406672647225
1954.5680266234522 2570.2393884900566
1955.2403949392155 2564.170922335476
1955.9126012695142 2279.1148896100935
1956.5846456541403 2313.737545351863
1957.2565281328643 2333.787439950635
1957.9282487454457 2568.897441281205
1958.5998075316202 2685.1526378671865
1959.27120453112 2472.9013263707966
1959.9424397836501 2508.1653745316003
1960.613513328908 2462.169879089429
1961.2844252065697 2738.7970937605423
1961.9551754563017 2282.482031238115
1962.6257641177453 2259.5936813729527
1963.29619123054 2226.732345612786
1963.966456834296 2263.5542541127597
1964.6365609686181 2176.3178853124
1965.306503673086 2490.706711046219
1965.976284987275 2190.524733324568
1966.645904950734 2444.9936609055585
1967.315363603002 2068.394723623685
1967.9846609836077 2359.370485785061
1968.6537971320486 2311.8919281280423
1969.3227720878222 2431.1530494209383
1969.9915858904042 2373.64280331575
1970.660238579252 2493.992702614721
1971.3287301938108 2397.124462072573
1971.997060773514 2366.6589152398856
1972.665230357772 2301.8130048250696
1973.3332389859843 2339.141836588939
1974.0010866975335 2201.3162299862283
1974.6687735317864 2431.3768928887876
1975.3362995280932 2516.8868811381526
1976.003664725793 2645.1573938389092
1976.6708691642052 2117.1571964675613
1977.3379128826364 2378.301124187271
1978.004795920373 2530.1027493567626
1978.6715183166925 2306.402177467134
1979.3380801108524 2082.4390813275886
1980.0044813420973 2336.0258191239295
1980.6707220496555 2138.945809699392
1981.3368022727373 2480.0986076135027
1982.0027220505417 2557.0929244316944
1982.66848142225 2073.1422501378474
1983.3340804270283 2148.2372597954627
1983.999519104027 2422.0486350718993
1984.6647974923835 2503.7765881007626
1985.329915631215 2519.347152784986
1985.99487355963 2384.0529243296364
1986.6596713167146 2619.753710453033
1987.3243089415428 2282.627441062823
1987.9887864731754 2647.529639387375
1988.6531039506553 2224.9848928865586
1989.3172614130071 2775.2451580675774
1989.9812588992481 2367.2989751296122
1990.645096448372 2031.5138078371642
1991.3087740993633 2347.2509919859544
1991.9722918911848 2274.41405859429
1992.635649862792 2334.360511659265
1993.2988480531185 2431.0219889858295
1993.9618865010852 2761.728597804938
1994.6247652455968 2376.930514608922
1995.287484325545 2240.988723605492
1995.9500437798033 2355.708037639394
1996.6124436472292 2292.1238639504795
1997.2746839666706 2541.2208967070264
1997.936764776954 2339.623268979909
1998.598686116895 2279.934346831828
1999.2604480252903 2635.514059259798
1999.9220505409212 2626.200767173836
2000.5834937025593 2072.8391289317246
2001.2447775489582 2319.900317132663
2001.9059021188514 2400.3777084467188
2002.5668674509616 2092.090926219882
2003.2276735839987 2434.2081911914547
2003.8883205566508 2558.8110426786866
2004.5488084075987 2350.7937100843783
2005.2091371755014 2346.2023920329966
2005.8693068990033 2094.407398937476
2006.5293176167397 2147.8733900015964
2007.1891693673224 2201.624375656068
2007.848862189354 2245.300251365706
2008.5083961214223 2305.8792882715393
2009.1677712020955 2184.7909188482304
2009.8269874699254 2182.244606591991
2010.4860449634598 2152.200585773506
2011.1449437212177 2122.2046817203363
2011.8036837817108 2540.139347349486
2012.4622651834325 2456.9375807369397
2013.1206879648653 2418.670410061689
2013.7789521644736 2700.580775888767
2014.4370578207036 2114.7913631647903
2015.0950049719922 2321.2581315730336
2015.7527936567585 2571.531701530332
2016.4104239134067 2353.4803371843186
2017.067895780323 2795.821428306852
2017.725209295886 2711.8248518718833
2018.3823644984514 2627.5283492651674
2019.0393614263648 2418.6770942593894
2019.6962001179545 2336.8586643966887
2020.3528806115355 2745.7936669410105
2021.0094029454067 2469.0379226794994
2021.6657671578487 2159.528802019194
2022.321973287133 2372.194746269199
2022.9780213715148 2243.923056389393
2023.6339114492293 2382.4846744640467
2024.2896435585026 2266.998804338525
2024.9452177375442 2264.2482550606283
2025.600634024544 2538.610073614984
2026.2558924576842 2545.1011785156584
2026.9109930751292 2517.036742911025
2027.565935915025 2197.4164916549776
2028.2207210155066 2864.318585629669
2028.8753484146964 2663.6892993792885
2029.529818150695 2558.654482105072
2030.1841302615903 2453.1139227043373
2030.8382847854573 2247.08724785721
2031.4922817603601 2391.355056726651
2032.1461212243357 2316.670040522734
2032.7998032154192 2067.154039291722
2033.4533277716218 2320.6756868594493
2034.1066949309443 2228.3401166060376
2034.7599047313688 2066.365450294046
2035.4129572108704 2375.0169459561794
2036.0658524074006 2392.2267392748345
2036.7185903589016 2452.4723802647773
2037.3711711032956 2446.7412767690676
2038.023594678496 2308.702248431443
2038.675861122394 2224.7862463569963
2039.3279704728757 2530.357059767152
2039.9799227678031 2070.3563031268545
2040.6317180450278 2189.4013074142113
2041.2833563423865 2239.9661523057216
2041.9348376977014 2679.802911766151
2042.5861621487784 2584.0389104002347
2043.2373297334088 2242.656663578887
2043.8883404893695 2386.7888158269925
2044.5391944544208 2537.6895353322057
2045.1898916663158 2584.654230402636
2045.8404321627804 2771.2945318972934
2046.4908159815368 2292.9574080555512
2047.1410431602853 2373.9187471580494
2047.7911137367173 2231.7649096907107
2048.441027748504 2488.5699725372074
2049.090785233302 2049.9272069212802
2049.7403862287592 2203.495749497142
2050.389830772503 2187.094891255521
2051.0391189021466 2170.740299797303
2051.688250655294 2432.691022682865
2052.337226069527 2223.817842535243
2052.986045182417 2596.759041294947
2053.634708031521 2524.397980640772
2054.283214654375 2452.091588010114
2054.931565088511 2213.897841434141
2055.579759371436 2078.055340531467
2056.2277975406523 2373.6294669106255
2056.8756796336384 2568.7867810794514
2057.5234056878617 2001.0764571914556
2058.1709757407752 2197.894368678594
2058.8183898298194 2609.765086762372
2059.465647992416 2586.5358388283757
2060.1127502659747 2603.890120502758
2060.759696687888 2552.0343886213286
2061.4064872955405 2500.191758212669
2062.053122126292 2568.5818367301094
2062.699601217497 2419.478453979488
2063.345924606485 2270.457992043785
2063.992092330587 2365.3770110405662
2064.638104427102 2186.971273343825
2065.283960933324 2505.7406758518778
2065.92966188653 2406.843578753843
2066.5752073239855 2612.400530296848
2067.2205972829397 2067.8955339136164
2067.86583180062 2405.4370223099672
2068.5109109142522 2230.1745671952735
2069.15583466104 2257.391586477423
2069.8006030781708 2186.696814614746
2070.445216202821 2344.9369993904993
2071.089674072153 2441.7487218854158
2071.7339767233116 2479.3496753547442
2072.3781241934303 2281.9760516999922
2073.0221165196253 2433.752763034108
2073.6659537390024 2279.6942058244167
2074.3096358886505 2428.37170152706
2074.953163005637 2361.2185499571033
2075.596535127028 2022.8953308086536
2076.2397522898664 1941.7636815115816
2076.882814531182 2291.2655517214007
2077.5257218879924 2351.1988654693855
2078.1684743973 1911.0876386311556
2078.8110720960885 2115.422536454218
2079.453515021336 2209.710803905083
2080.095803209997 2304.0476825138194
2080.7379366990135 2493.8372903824757
2081.37991552532 2480.1606038427167
2082.0217397258275 2461.8351594018955
2082.6634093374414 2371.557153426444
2083.3049243970418 2281.27991885971
2083.9462849415067 2660.818885645561
2084.587491007689 2370.82157565133
2085.2285426324324 2149.8483224090533
2085.869439852564 2281.0621875084476
2086.510182704902 2228.689417086648
2087.1507712262483 2315.1329197433874
2087.791205453381 1962.6160322102216
2088.4314854230743 2467.4514203830563
2089.0716111720867 2315.139916107877
2089.7115827371617 1931.4878982650941
2090.351400155023 2051.1345984094705
2090.991063462385 2171.0982630836493
2091.6305726959527 1968.2480219754761
2092.2699278924047 1967.3471258833051
2092.9091290884153 1966.5204695505952
2093.548176320641 1972.1626335668466
2094.187069625721 2384.8327787594762
2094.8258090402887 2424.91613559105
2095.464394600951 2465.090361808777
2096.102826344313 2287.105674848704
2096.741104306955 2445.881776891974
2097.379228525453 2019.3618437593177
2098.017199036358 1929.777333218716
2098.6550158762147 2197.0953064095474
2099.2926790815527 2464.9776005823164
2099.9301886888825 2457.0045791216044
2100.5675447347076 2229.046684747441
2101.2047472555114 2558.108946453777
2101.841796287761 2173.3493881133622
2102.47869186792 2187.534016605917
2103.1154340324265 2138.8358458704793
2103.752022817709 2187.529116826074
2104.388458260184 2233.9640762857152
2105.024740396251 2184.0210074030465
2105.660869262292 2184.091096135953
2106.296844894685 2254.65205925516
2106.93266732978 2246.526671196325
2107.5683366039284 2024.184878044039
2108.2038527534532 2346.6290808510166
2108.8392158146726 2434.734857366917
2109.4744258238843 2067.7741835126585
2110.1094828173755 2278.5254366368204
2110.744386831422 2697.0321922132453
2111.3791379022787 2355.635930672717
2112.01373606619 2544.7419006710943
2112.648181359389 2480.3881420983334
2113.28247381809 2442.4544302256945
2113.916613478492 2406.756280801004
2114.550600376786 2446.1070972291973
2115.1844345491445 2193.7443120733647
2115.818116031729 2160.8880460982273
2116.451644860679 2317.825127429828
2117.085021072133 1979.9972122802385
2117.718244702204 2102.6742846669213
2118.3513157869984 2152.189353457089
2118.984234362604 1976.769171679321
2119.617000465092 2134.9646228398024
2120.249614130529 2579.8613154802338
2120.8820753949585 2365.017926415921
2121.5143842944162 2053.026418012617
2122.14654086492 2111.317975487008
2122.7785451424734 2356.677996822079
2123.4103971630702 1906.6466571316428
2124.042096962681 2211.9154124117185
2124.6736445772767 2349.2208025962727
2125.305040042802 2021.4965612482151
2125.936283395191 2271.5402818877787
2126.567374670365 2280.708022960406
2127.198313904233 2117.3868739014115
2127.8291011326855 2097.387977476573
2128.4597363916037 2077.0979969313985
2129.0902197168507 2213.18901354808
2129.720551144279 2029.5272093111003
2130.3507307097225 2726.9913127535447
2130.980758449008 2479.5558609258246
2131.6106343979427 2079.5898288331055
2132.2403585923203 2497.3160208576296
2132.8699310679276 2599.651925664273
2133.499351860526 2493.5331762946066
2134.1286210058715 2266.1468612331623
2134.7577385397053 1884.8692807457046
2135.3867044977487 2371.1233091019235
2136.0155189157176 2761.7479437311968
2136.644181829308 2642.188727660111
2137.2726932742025 2387.2852395150544
2137.901053286074 2638.7672958320763
2138.5292619005777 2083.7130237414462
2139.1573191533535 2121.9734598833184
2139.7852250800315 2296.1480245452476
2140.4129797162295 2288.1954777064093
2141.0405830975433 1998.0861966680745
2141.6680352595613 2041.597742281297
2142.2953362378576 2085.215886328212
2142.9224860679915 2159.258922466189
2143.549484785508 2106.9934091205887
2144.1763324259373 2171.069388869911
2144.803029024799 2225.0697539692474
2145.429574617594 1972.161825529563
2146.0559692398165 2350.75449498989
2146.682212926942 2149.2838832269335
2147.308305714432 2191.3929798155564
2147.9342476377333 2461.0769358820903
2148.5600387322847 2718.2943474851786
2149.185679033506 2274.2820691188117
2149.8111685768017 2301.28142823103
2150.4365073975678 1972.768147445824
2151.061695531187 2132.728313957336
2151.686733013021 2526.9592203129496
2152.311619878423 2399.126617924325
2152.9363561627342 2201.9351340772455
2153.560941901278 1908.1503340865042
2154.1853771293663 2388.3033211944967
2154.809661882293 2252.8690801753373
2155.433796195348 2644.8440925953078
2156.0577801037944 2589.0864594568093
2156.681613642895 2533.0124272799612
2157.3052968478896 2150.687057545053
2157.928829754006 2359.9173721306065
2158.552212396462 2413.6360208934025
2159.1754448104566 2195.8488964913895
2159.7985270311783 2055.361843744384
2160.4214590938027 1569.3538259590116
2161.0442410334927 1806.7066822005715
2161.6668728853874 1935.4613116047597
2162.289354684628 2064.5290637359603
2162.911686466332 2045.7143885684077
2163.533868265602 2310.4330295514146
2164.1559001175337 2646.817672697544
2164.7777820572046 2462.1917967990794
2165.399514119681 2279.7822501415294
2166.021096340013 2023.0085812189523
2166.6425287532384 2012.2659793480864
2167.263811394385 2001.6215415820716
2167.8849442984574 2450.274224852356
2168.505927500455 2160.748154452768
2169.126761035366 2339.467480261605
2169.7474449381552 2031.3173763417028
2170.367979243778 1863.8686286306825
2170.9883639871823 2508.604356646867
2171.608599203293 2124.915506548934
2172.2286849270276 2742.851733627806
2172.8486211932886 2774.137594594237
2173.4684080369625 2374.533435365792
2174.0880454929265 1934.2455336692262
2174.7075335960417 1931.3697022830333
2175.3268723811543 1981.3916519111285
2175.9460618831 2031.5682092428676
2176.565102136701 2138.9347773491218
2177.1839931767627 2135.1036119187747
2177.802735038078 2131.2929870956254
2178.421327755432 1941.0957631998
2179.0397713635866 2047.6116775174003
2179.658065897298 2103.6105632428853
2180.276211391305 2356.083581095706
2180.8942078803357 2192.9606583996565
2181.5120553991 2340.108391991934
2182.129753982299 1819.7646478577608
2182.7473036646206 2123.8416010633746
2183.3647044807367 2310.3950546460374
2183.9819564653044 1885.2556329004983
2184.599059652968 2240.5184476705654
2185.216014078367 2361.983902147193
2185.832819776113 2452.6324029665084
2186.4494767808137 2543.3557443169198
2187.065985127063 2107.5539979674104
2187.682344849436 2176.000036177427
2188.298555982501 2169.123393861557
2188.9146185608097 2162.097192522507
2189.530532618901 2358.06337644464
2190.1462981912937 2200.9273916995526
2190.761915312507 2378.2791336687105
2191.377384017036 2237.405586155988
2191.9927043393654 2159.075496558815
2192.6078763139667 2404.015487529702
2193.2228999753006 1928.4483995937007
2193.837775357808 2131.3667763505327
2194.452502495922 1794.1742693078984
2195.0670814240602 2253.5193334059313
2195.6815121766285 1954.1313447907057
2196.2957947880186 1952.6669156755975
2196.9099292926057 1951.2063266248122
2197.523915724758 1993.0994601162893
2198.137754118825 2160.436588333496
2198.7514445091456 2439.8683458247338
2199.3649869300443 2578.5869899504005
2199.9783814158327 2717.737921476377
2200.5916280008096 2841.4046838347153
2201.2047267192593 2286.7948362514935
2201.8176776054515 2130.20383112912
2202.430480693649 1982.9601790377558
2203.0431360180955 2444.3169049558805
2203.6556436130195 2269.3416237570527
2204.268003512645 2268.225790296761
2204.8802157511727 2267.2097440368134
2205.492280362796 2599.007981854989
2206.1041973816937 2273.8235198986604
2206.715966842032 2037.406478997183
2207.3275887779655 2388.510981729425
2207.93906322363 2246.8596805681154
2208.550390213153 2407.1653761141297
2209.1615697806465 2295.4707767402465
2209.7726019602105 2033.7307833150614
2210.3834867859277 1926.4778545125469
2210.9942242918787 1962.8510930741272
2211.6048145121167 2226.506903780245
2212.2152574806914 2890.2383128689044
2212.825553231638 2060.138606413805
2213.435701798975 3013.1366594125984
2214.045703216707 2154.396456388839
2214.655557518832 1878.3683037648734
2215.2652647393297 1753.8706330794594
2215.874824912169 1999.080590305864
2216.4842380713 2245.065040334379
2217.09350425067 1961.9032814230613
2217.7026234842033 2499.9614222414098
2218.311595805819 2524.4986222704065
2218.9204212494133 2152.011149615829
2219.52909984888 2677.668126955211
2220.137631638092 2650.4700436804883
2220.7460166509154 2623.0476216416173
2221.354254921198 2062.0553871556413
2221.9623464827764 2226.1546955645103
2222.5702913694713 2347.4489961118547
2223.178089615096 2699.031597991427
2223.7857412534486 2235.247334332057
2224.39324631831 1708.6437482726974
2225.000604843457 1896.1802754080861
2225.607816862641 2423.085187687536
2226.214882409611 2240.1678232971417
2226.8218015180973 2439.8176608725166
2227.4285742218217 2270.7663803676223
2228.0352005544864 2176.611290742545
2228.6416805497847 1810.043352382473
2229.248014241399 2134.0434729909293
2229.8542016629945 1823.545447418125
2230.460242848223 2118.9334265146417
2231.0661378307304 1969.2481364276923
2231.671886644139 1819.4412846027546
2232.277489322065 1724.6936693125579
2232.8829458981127 1833.3757261378655
2233.48825640587 2121.13546872243
2234.0934208789095 2246.9787079455773
2234.6984393507955 2373.0260669950844
2235.3033118550793 2282.8471980291656
2235.9080384252975 2087.5906379528647
2236.5126190949723 1782.631537087494
2237.1170538976166 2131.772298060368
2237.721342866729 1713.8657623077102
2238.32548603579 2044.5307592511122
2238.9294834382763 2213.143154955883
2239.533335107646 2178.25817625228
2240.1370410773434 2203.4370804944065
2240.740601380803 2020.1879585226823
2241.3440160514474 2324.441345674208
2241.9472851226783 2361.61512342007
2242.550408627896 1954.4678026014922
2243.1533866004793 2505.492617261126
2243.756219073799 2149.446522933272
2244.3589060812064 1944.7746633250445
2244.961447656049 1995.246787012698
2245.5638438316564 2384.3376656900696
2246.166094641343 2296.3446909950544
2246.7682001184166 1830.60578322197
2247.3701602961664 2002.8900268749305
2247.971975207871 2191.8388542351768
2248.5736448867974 2522.217890669447
2249.175169366197 2179.655655375536
2249.7765486793123 2099.7220158520713
2250.3777828593684 2387.3377953940562
2250.9788719395783 2341.416104201002
2251.579815953146 2146.166591811535
2252.1806149332606 1971.4529858243554
2252.781268913097 2186.184469856343
2253.381777925817 2141.1873432798607
2253.9821420045737 2203.7801644121737
2254.5823611825035 2365.2193912877365
2255.1824354927303 2178.1406720350033
2255.782364968365 1979.6450941524272
2256.38214964251 1780.9364711316582
2256.9817895482483 1869.2619820615655
2257.5812847186553 2285.052380827748
2258.180635186791 1965.3841660887724
2258.779840985704 2000.1283417350598
2259.37890214843 2025.9541232005558
2259.97781870799 2506.7797294737175
2260.5765906973957 2376.3521787131135
2261.175218149645 2070.628497697403
2261.773701097718 2353.3809532651403
2262.3720395745895 1870.1387956013855
2262.970233613216 2053.2201429260317
2263.568283246548 2110.844430636595
2264.1661885075137 1942.7022469040862
2264.763949429038 1986.5365878391317
2265.3615660440246 2508.363597309609
2265.959038385374 1905.789418288584
2266.5563664859637 2493.6988337126313
2267.153550378669 1873.6674494375645
2267.7505900963424 2365.3091512102374
2268.3474856718312 2030.8045306043928
2268.9442371379664 2102.9332557158004
2269.5408445275643 1937.1963978914307
2270.1373078734377 2134.841201301222
2270.7336272083758 2028.5114387337967
2271.32980256516 1909.6881263910975
2271.925833976562 2446.629471507552
2272.5217214753357 2444.5013531174745
2273.117465094223 1940.0712645932676
2273.7130648659586 1960.4250374944318
2274.308520823257 2016.2032940882941
2274.903832998827 2344.7423613617757
2275.4990014253563 2086.4247411547444
2276.094026135528 2338.4362338502524
2276.6889071620117 2175.2840915133515
2277.2836445374614 2175.6338804295488
2277.878238294519 2199.0761525309417
2278.472688465812 1919.700230207593
2279.066995083962 1639.8375744943082
2279.6611581815705 2089.2431861064124
2280.255177791232 2437.6938543103456
2280.8490539455233 2111.1070427493614
2281.442786677013 2377.1942463368964
2282.0363760182554 2370.0525630616808
2282.6298220017943 1973.6627616599083
2283.223124660155 2535.5138730972158
2283.816284025859 2057.553605259797
2284.4093001314086 1994.2918418032048
2285.002173009292 1930.924853689778
2285.5949026919952 2359.2719831144345
2286.1874892119777 2006.0026730304908
2286.7799326016993 2097.7272608320063
2287.3722328936 1846.8959746600508
2287.964390120109 1650.4872816252166
2288.556404313642 2146.42681475214
2289.1482755066027 2397.251424076625
2289.7400037313873 2219.3771950768805
2290.3315890203703 1952.7786745472108
2290.9230314059205 1935.373276950586
2291.5143309203904 1917.9998459219137
2292.1054875961236 2187.1070895353014
2292.6965014654506 2536.026191410717
2293.287372560684 2039.1271014036508
2293.878100914131 1954.769795924835
2294.468686558086 1870.295281581223
2295.059129524827 2196.844584560607
2295.649429846617 2149.091360217045
2296.239587555716 2101.1735205859864
2296.8296026843636 2170.327500818541
2297.419475264791 2116.5115117799387
2298.0092053292137 2062.463948209487
2298.598792909839 2456.188580780667
2299.1882380388597 2558.161480932875
2299.777540748455 2660.1128222601255
2300.3667010707904 2268.990284387649
2300.9557190380256 2283.153698389977
2301.544594682302 2105.419025218028
2302.1333280357503 1927.4604248804553
2302.721919130485 2193.66058701117
2303.3103679986198 2518.1852835211175
2303.898674672242 2621.327650023632
2304.486839183437 2104.9486840302384
2305.0748615642697 2135.9481658621216
2305.6627418468015 1854.1861475477435
2306.2504800630704 2056.551142307798
2306.8380762451143 2146.230057199481
2307.425530424949 2233.699452040154
2308.012842634582 2321.3522113774984
2308.6000129060103 2666.3919426147186
2309.187041271214 2677.556065427686
2309.773927762164 2054.46143998635
2310.3606724108213 2496.573326573811
2310.9472752491274 2017.0038885886795
2311.5337363090184 2313.329555593016
2312.120055622414 2120.0755596006643
2312.706233221221 2006.53204020338
2313.2922691373424 1832.0582192159181
2313.8781634026564 1932.7390892092833
2314.463916049037 2033.6362828454598
2315.049527108342 2333.7279399105137
2315.6349966124235 2693.758946033919
2316.2203245931123 2510.6283886297715
2316.8055110822315 2303.908954292942
2317.3905561115935 2096.67780553423
2317.9754597129977 1943.5458986739511
2318.560221918229 1911.7852069849655
2319.1448427590603 1879.994086169911
2319.729322267256 1913.7565538541894
2320.313660474563 1999.2109168226402
2320.8978574127195 2920.240077121379
2321.481913113452 2487.663957308335
2322.0658276084705 1838.7796802922462
2322.6496009294806 2172.1935494375566
2323.233233108165 1989.567417656168
2323.8167241762058 2014.1477300865922
2324.4000741652617 2317.2239131574765
2324.983283106987 2363.9124422840673
2325.5663510330232 2205.2923218512724
2326.1492779749933 2046.0495652854092
2326.7320639645204 2268.815154815686
2327.3147090332004 1924.906209526299
2327.897213212629 2048.6903912717157
2328.4795765343843 2172.489032660876
2329.0617990300307 1918.604496774
2329.643880731124 2494.8441596452367
2330.22582166921 1924.4991023197604
2330.807621875816 1824.3231221283045
2331.3892813824623 1724.1421733395782
2331.9708002206517 1895.383380927135
2332.5521784218818 2328.6206383935278
2333.133416017634 2184.8099000248076
2333.7145130393765 2040.7567622454535
2334.295469518571 2399.0323694570516
2334.876285486658 2451.1126730954993
2335.456960975076 2549.445380580112
2336.037496015242 2648.0420468041857
2336.6178906385667 2252.3369517351834
2337.198144876451 2325.214781938791
2337.778258760278 2026.0455523606047
2338.3582323214214 2170.964081077073
2338.938065591243 2316.1649301370485
2339.517758601087 2513.2607368230238
2340.0973113822965 2417.758642470454
2340.676723966193 2047.7040019318688
2341.255996384094 2077.427500373403
2341.835128667295 2456.343329167744
2342.4141208470883 2209.6897560950456
2342.992972954751 2255.2449817266815
2343.5716850215467 1828.4300025576172
2344.1502570787306 1400.708454459012
2344.7286891575386 1844.964708715897
2345.3069812892045 2107.3521865593893
2345.885133504944 2370.020850017475
2346.4631458359618 2060.060437698961
2347.04101831345 1881.962805939846
2347.6187509685915 2196.95593122234
2348.196343832553 1971.4999519221833
2348.7737969364935 2255.47783828185
2349.351110311558 1809.7517095654082
2349.9282839888765 1796.9609365324948
2350.5053179995757 1796.4783980843943
2351.0822123747585 1911.609182346729
2351.658967145526 1881.6270875039122
2352.2355823429643 1851.704575268416
2352.812057998144 2272.844753048122
2353.3883941421263 1957.1174009129268
2353.9645908059647 2247.5061794387298
2354.540648020693 2033.381366861071
2355.116565817336 1926.3404514448266
2355.6923442269126 1942.5798731182429
2356.2679832804224 1958.8424206134466
2356.8434830088518 2174.8730188803643
2357.41884344318 1991.2869000304538
2357.994064614377 2062.3483491507736
