#exp_cfg={"servo_angle": 0.0, "laser_lim": 100.0, "servo_angle_to": 18.0, "laser_wup": 0.0, "bt_dev": "EnSpectr-25AE3", "laser_wdn_max": 0.0, "frames": 10.0, "servo_used": 0, "servo_calib_use": 0, "laser_wdn_min": 0.0, "servo_pix_from": 90.0, "cooler_tout": 300.0, "servo_angle_from": 0.0, "servo_calib": "[-1.9174921013161362e-09, 3.9322238269163779e-05, -0.27385609119055809, 653.59552119713567]", "laser_autoctl": 0, "servo_pix_to": 3682.0, "laser_pw": 100.0, "cooler_on": 0, "laser_volt": 4.0, "cooler_autoctl": 0, "cooler_curr": 70.0, "cooler_startup": 10.0, "laser_fixed_pw": 0, "gain": 1.3, "offset": 2.53059635486, "servo_calib_degree": 3.0, "laser_curr": 55.0, "shutter": 8200.0, "servo_calib_step": 1.0, "laser_fixed_curr": 0, "exp": 2000.0, "ccd_volt": 4.7, "bt_addr": "00:06:66:62:5A:E3", "servo_delay": 500.0, "laser_autooff": 1}
#proc_cfg={"flat_auto_wnd": 200.0, "flat_auto_fr": 200.0, "flat_auto_shift": 5.0, "yconv": 1, "flatten": 1, "flatten_strength": 100.0, "xfrom": 300.0, "auto_max_frame": 2000.0, "auto_signal": 48000.0, "flat_auto_tol": 0.1, "autoclip": 1, "xrel_range": 0.0, "flat_auto_to": 4000.0, "intensity_adj": 1.0, "xrel": 7852.0, "rmhot": 1, "flat_auto_slit": 4.999999999999997, "auto_ini_exp": 300.0, "auto_off": 0, "xto": 2860.0, "flat_auto_ref": "", "flat_auto_rank": 1, "autobackg": 0, "xrel_adj": 0.0, "auto_black_lvl": 1, "base_wnd": 100.0, "sub_baseline": 0, "xconv": 2, "auto_max_exp": 1000.0, "auto_total_exp": 10000.0, "auto_exp": 0, "rmripple": 0, "black_lvl": 8277.5625, "shutter_clip_adj": 0.0, "auto_bckg": 0, "flat_auto_thr": 0.9, "subbackg": 1}
316.8218498245369 14711.040768745894
317.89969571804795 14545.988791214655
318.977263876126 14477.59809457287
320.05455438786703 14366.343089665179
321.1315673423287 14266.857808100456
322.2083028285215 14379.540207277698
323.2847609354267 14171.584706419479
324.3609417519747 14110.359544990657
325.43684536705587 13966.990606674875
326.5124718695279 14011.281295596253
327.58782134820103 13911.188683623453
328.66289389184385 13949.132606198458
329.7376895891921 13731.306153234807
330.8122085289342 13686.903171065467
331.88645079971866 13754.247455350638
332.9604164901575 13589.37119564052
334.03410568881554 13558.972798656236
335.1075184842266 13707.39872899646
336.18065496487543 13430.271115050837
337.2535152192122 13518.261074621234
338.32609933564163 13526.983984753402
339.39840740253203 13427.96986547598
340.4704395082099 13382.520818341673
341.5421957409617 13308.04510148362
342.6136761890357 13360.526058373787
343.6848809406365 13204.440612256654
344.75581008392874 13114.90216250169
345.82646370703696 13101.816013028167
346.8968418980512 13082.96792326641
347.96694474501055 13130.780922804319
349.0367723359268 13053.729808803411
350.106324758759 12979.353372794783
351.1756021014353 12920.083315051601
352.2446044518383 12914.945860164367
353.31333189781435 13027.852006856741
354.38178452716966 12929.667552032399
355.449962427665 12847.453368753744
356.51786568702846 12844.550565209764
357.58549439294256 12910.855453849572
358.6528486330535 12991.820859634068
359.71992849496564 12784.853797422187
360.7867340662433 12847.982754964312
361.8532654344144 12868.545522064089
362.9195226869597 12969.517722437377
363.9855059113288 12791.273050586527
365.05121519492604 12642.520963828287
366.11665062511565 12914.454139058755
367.1818122892273 12861.038353830152
368.2467002745434 12902.966203886372
369.31131466831175 12829.228464631116
370.375655557742 12826.242263086204
371.4397230299983 12853.047785064278
372.5035171722102 12832.250668501485
373.5670380714637 12819.693891487997
374.6302858148101 12943.680138630134
375.6932604892554 12890.668186946097
376.7559621817709 12849.268057430534
377.81839097928605 12777.12440595216
378.8805469686886 12811.40880084078
379.94243023683157 12932.161194714421
381.0040408705263 12775.752570996174
382.0653789565458 12605.466145745439
383.1264445816196 12731.7953658195
384.1872378324406 12644.858138318668
385.2477587956637 12672.907069178988
386.3080075579037 12586.602559999626
387.3679842057336 12433.770253920291
388.4276888256918 12594.60942063308
389.48712150426945 12458.418281575043
390.54628232792857 12400.392794385509
391.6051713830857 12370.572449975201
392.66378875611736 12487.648051124002
393.7221345333637 12328.133266694364
394.7802088011249 12311.759872059429
395.838011645661 12321.838968635453
396.89554315319765 12216.18441395948
397.9528034099112 12148.974019426762
399.00979250194723 12066.785152182321
400.06651051541485 12100.042974431255
401.1229575363741 12161.206152531044
402.17913365085224 11951.555118472514
403.23503894483656 12085.159772347994
404.2906735042761 12016.917838741148
405.3460374150818 11878.06804148407
406.401130763119 11988.116204773829
407.455953634224 11954.177660413967
408.5105061141876 11873.07032051119
409.56478828876243 11697.691270891604
410.6188002436629 11778.199099014893
411.6725420645689 11785.874129922728
412.72601383711117 11717.303337492249
413.77921564689314 11767.218768725157
414.8321475794728 11689.065835708976
415.88480972036814 11584.419812485285
416.93720215506437 11591.765208899784
417.9893249690049 11599.643994379423
419.04117824759123 11494.169236248177
420.09276207619223 11484.06480090443
421.144076540133 11548.017811499249
422.1951217247042 11446.883995209482
423.24589771515275 11509.873088465505
424.2964045966928 11429.803633418043
425.34664245449494 11477.261860038461
426.3966113736933 11426.578892421721
427.4463114393875 11394.216617930531
428.49574273662984 11388.286679181441
429.5449053504417 11266.54804161829
430.5937993658026 11400.706441501963
431.6424248676558 11253.844914585912
432.6907819409007 11254.42648342224
433.73887067040596 11290.771423494525
434.7866911409965 11319.005876251973
435.8342434374608 11217.942921730148
436.88152764455117 11288.434920548467
437.9285438469724 11255.277901350733
438.9752921294057 11163.485206599882
440.02177257648145 11113.752773049615
441.06798527279716 11072.188498495774
442.1139303029122 11284.410813234119
443.1596077513459 11138.986340249285
444.2050177025794 11091.072673487874
445.25016024105753 11051.722360086114
446.2950354511886 11065.773678517966
447.33964341733736 11061.158346259304
448.383984223834 11042.607556456913
449.4280579549686 11002.1941937218
450.471864694995 11006.198366307795
451.5154045281306 11065.152084361054
452.5586775385509 11035.955650350097
453.60168381039693 10934.85095866719
454.64442342776783 11094.513143326996
455.6868964747264 11040.08843646008
456.7291030353008 10952.058986423983
457.77104319347563 11061.219775325417
458.8127170332027 10971.892396672976
459.854124638392 11016.665119806672
460.895266092919 11057.022100660426
461.93614148061897 11069.193665872332
462.97675088529104 11093.773017816813
464.01709439069236 11025.315088812324
465.0571720805492 11028.801318488306
466.0969840385442 11099.588591297368
467.1365303483253 11108.570188924848
468.17581109350067 11049.011349803784
469.2148263576437 11019.01256872948
470.2535762242878 11089.717463371166
471.29206077693016 11143.491733551602
472.33028009902773 11254.690014675125
473.3682342740012 11129.89317805536
474.40592338523857 11146.728824927883
475.4433475160804 11227.170007744138
476.4805067498364 11270.256567140572
477.51740116978 11322.105219403036
478.5540308591426 11447.972377078166
479.59039590112116 11604.153917783642
480.6264963788726 11621.868508816655
481.6623323755193 11803.928855519134
482.6979039741436 11953.389956808714
483.7332112577915 12099.662709606237
484.76825430947247 12421.023166968105
485.80303321215797 12360.63143132436
486.837548048783 12536.312439980702
487.8717989022425 12837.286281478355
488.90578585539697 12776.45947175664
489.9395089910686 12954.486170739072
490.97296839203955 12766.94224833958
492.00616414106116 12615.659266846884
493.0390963208429 12690.066031242584
494.0717650140559 12526.216974640729
495.10417030333883 12411.76919571572
496.1363122712901 12273.693349207617
497.16819100046814 12085.938772398013
498.1998065734024 11911.15557124762
499.2311590725767 11819.921703471775
500.26224858044407 11583.28100215109
501.2930751794156 11568.2614548202
502.3236389518679 11558.606146928794
503.35393998014115 11317.942322675806
504.38397834653733 11278.619647228852
505.4137541333221 11285.198680394351
506.4432674227228 11140.136437803932
507.4725182969323 11076.738814062945
508.5015068381035 11054.68860899732
509.53023312835467 11123.433756270842
510.55869724976765 10983.32037817379
511.58689928438434 10921.38222861051
512.6148393142121 10908.744389337478
513.6425174212218 11075.123659693752
514.6699336873462 10962.526930842823
515.6970881944835 10997.631706468137
516.7239810244901 10940.759487311703
517.7506122591931 10976.034110025283
518.7769819803761 10958.57533820339
519.8030902697901 11017.299268636183
520.8289372091476 10993.138127394548
521.8545228801249 11157.640553288698
522.8798473643619 11022.516166264657
523.9049107434621 11036.202281488564
524.9297130989908 11046.685623891426
525.9542545124805 11011.425955037219
526.9785350654201 10987.445773667423
528.0025548392696 11000.215811627837
529.0263139154504 10870.06371858249
530.0498123753423 11094.21927202278
531.073050300296 10936.64671140113
532.0960277716204 10769.133870963135
533.1187448705896 10857.77180129394
534.1412016784416 10843.38313036189
535.1633982763833 10812.207046165651
536.1853347455726 10711.908885901184
537.2070111671401 10780.223175286195
538.2284276221817 10639.40264048493
539.2495841917516 10593.13156545771
540.2704809568677 10451.256064866771
541.2911179985167 10530.192336535943
542.3114953976419 10459.561406619721
543.3316132351592 10393.259205874288
544.3514715919409 10315.690888727127
545.3710705488247 10359.97991642376
546.3904101866156 10341.456291176644
547.4094905860784 10383.844667698804
548.4283118279418 10358.645438364218
549.4468739929034 10274.330860082824
550.4651771616191 10315.146747897503
551.4832214147063 10201.578056635677
552.501006832761 10250.873294080888
553.5185334963226 10257.040199447185
554.5358014859103 10352.973142321342
555.5528108820035 10236.36131512476
556.5695617650363 10255.803504117317
557.5860542154242 10249.262989749435
558.6022883135283 10267.386370380462
559.6182641396881 10210.58163591277
560.6339817741991 10293.045404576964
561.6494412973225 10316.734581489578
562.6646427892883 10280.777317327535
563.6795863302796 10174.263965970884
564.694272000459 10217.40433397529
565.7086998799423 10393.821706471
566.7228700488104 10347.412145507773
567.7367825871115 10328.649509678777
568.7504375748576 10311.490420617998
569.7638350920224 10295.35304709896
570.7769752185486 10330.634884785388
571.7898580343353 10389.437127554624
572.802483619258 10289.785343588263
573.8148520531431 10498.051654677045
574.8269634157932 10477.010837808344
575.8388177869692 10405.389230255942
576.8504152463938 10489.064748391957
577.8617558737587 10689.376242155085
578.8728397487175 10545.964252115491
579.883666950891 10615.252282972282
580.8942375598654 10848.635756072823
581.9045516551851 10957.051032468537
582.9146093163617 11025.142780580682
583.924410622878 10881.690040484229
584.9339556541727 10960.720168369866
585.9432444896538 11190.574785147872
586.9522772086875 11035.902237447463
587.9610538906127 11081.677280452486
588.9695746147318 10994.728705784404
589.9778394603054 11063.140862723467
590.985848506567 10858.6679972585
591.9936018327098 10808.15321896304
593.0010995178891 10624.554765429666
594.0083416412344 10692.3620894798
595.0153282818283 10456.915477309503
596.0220595187293 10434.833665875278
597.0285354309508 10314.170849281882
598.0347560974806 10393.116757258496
599.0407215972609 10234.947039045413
600.0464320092051 10338.289168971136
601.0518874121954 10289.173979972338
602.0570878850685 10247.62572108171
603.062033506636 10267.42484407825
604.0667243556636 10272.856404758666
605.0711605108936 10157.65452746535
606.0753420510264 10408.82550120635
607.0792690547278 10352.940089984191
608.082941600629 10308.256185240672
609.0863597673306 10403.568450941788
610.0895236333909 10530.983199045822
611.0924332773357 10657.724861068808
612.0950887776617 10610.862684784352
613.0974902128219 10715.810249907103
614.0996376612384 10978.312276662578
615.1015312013005 11006.075209203656
616.1031709113595 11115.682434596753
617.1045568697336 11152.15096579437
618.1056891547069 11272.87797044172
619.1065678445229 11437.819649012554
620.1071930173985 11708.337635636779
621.1075647515099 11841.818560550797
622.1076831250048 11889.380651951187
623.1075482159849 12108.380363269589
624.1071601025305 12216.183205669997
625.1065188626781 12342.629964947202
626.105624574433 12748.672662313198
627.1044773157682 12733.149747729232
628.1030771646128 12815.655195650425
629.1014241988742 13057.757584220297
630.0995184964158 13150.886082910922
631.0973601350688 13222.17242957399
632.0949491926294 13428.724151239803
633.0922857468631 13120.747922509592
634.089369875499 13228.282021097573
635.0862016562278 13204.058386558967
636.0827811667077 12984.685155257152
637.0791084845641 12967.335801834382
638.0751836873878 12706.956395041623
639.0710068527369 12783.517147290786
640.0665780581294 12495.126874169178
641.0618973810506 12216.47393419544
642.0569648989604 12232.328388972604
643.0517806892676 11845.346235339772
644.0463448293649 11790.939291028804
645.040657396592 11593.83212707398
646.0347184682723 11433.258233777397
647.0285281216875 11214.303757344162
648.0220864340772 11076.627808014444
649.0153934826558 10960.012433779284
650.0084493446047 10875.911575529655
651.0012540970674 10895.641905024155
651.9938078171526 10678.331689746285
652.9861105819346 10580.749424725807
653.9781624684565 10625.91929776877
654.9699635537254 10387.786998834783
655.9615139147136 10418.307193307173
656.9528136283589 10247.570948214705
657.9438627715699 10361.306756701122
658.9346614212154 10286.452614265936
659.925209654135 9973.053648355639
660.9155075471263 10012.422804632868
661.9055551769616 10028.01149706274
662.895352620375 10110.803847364716
663.8848999540678 9915.159353208779
664.8741972547068 9771.348964320201
665.863244598926 9786.72281776491
666.8520420633213 9878.672968847564
667.8405897244611 9712.784088914621
668.8288876588758 9629.01152875388
669.8169359430613 9698.830477596843
670.8047346534822 9701.712605638199
671.7922838665672 9516.505863196293
672.7795836587156 9686.298464962192
673.766634106285 9803.814329278286
674.7534352856092 9574.769922346237
675.7399872729766 9516.358921251525
676.7262901446538 9593.982891299911
677.712343976862 9590.689286715296
678.6981488457986 9613.202541925895
679.6837048276229 9495.268920033219
680.6690119984596 9618.399418220637
681.6540704344043 9558.034738232931
682.6388802115107 9496.237413927636
683.6234414058108 9479.6606589037
684.6077540932874 9404.914328934787
685.591818349907 9459.430719645543
686.575634251587 9449.056272256365
687.5592018742263 9397.085349907027
688.5425212936734 9255.770647371111
689.5255925857564 9597.758580971422
690.5084158262707 9406.754716219411
691.4909910909646 9406.23712752591
692.4733184555644 9330.409908319592
693.4553979957618 9415.27058521749
694.4372297872123 9472.613564281026
695.4188139055404 9315.427356064662
696.4001504263324 9279.792783883768
697.3812394251509 9436.742036321019
698.3620809775111 9461.397445887682
699.3426751589104 9395.94906683479
700.3230220448004 9315.111575234125
701.3031217106054 9347.09660150359
702.2829742317172 9585.403231455048
703.2625796834873 9338.661127706064
704.2419381412474 9324.93160949959
705.22104968028 9390.032631167393
706.1999143758458 9364.13665125931
707.178532303169 9454.11404259329
708.1569035374378 9486.323113693808
709.1350281538107 9622.803742206124
710.1129062274158 9658.18518722272
711.0905378333373 9836.971201129933
712.0679230466376 9871.297522558558
713.0450619423427 10113.761861470784
714.0219545954424 10340.899707907165
714.9986010808989 10287.070890581343
715.9750014736292 10409.37437719992
716.9511558485392 10655.564801454964
717.9270642804786 10810.962114944932
718.9027268442787 10899.241009752981
719.8781436147328 10847.553839689774
720.8533146666014 10873.43501949407
721.828240074612 10852.790203839326
722.8029199134635 10756.728177262634
723.7773542578125 10631.751796318613
724.751543182294 10449.638444996197
725.7254867615029 10425.54780340599
726.6991850700015 10097.576171329052
727.6726381823228 10122.70598419922
728.6458461729599 9997.835053619005
729.6188091163858 9854.093116744318
730.5915270870246 9901.823357266776
731.5640001592856 9734.405636270501
732.536228407529 9763.980374157709
733.5082119060917 9778.08414894856
734.4799507292755 9681.676654056555
735.4514449513481 9739.267263673752
736.4226946465496 9793.958847365062
737.3936998890786 9707.184320302502
738.3644607531078 9582.265848851452
739.3349773127793 9631.068254082735
740.3052496421951 9616.951262461329
741.27527781543 9522.466910634208
742.2450619065221 9403.314755065774
743.2146019894826 9450.470692407234
744.183898138288 9337.294098803048
745.1529504268801 9342.029679428431
746.1217589291682 9158.010061344303
747.0903237190341 9123.562510414129
748.058644870318 9142.793648592193
749.0267224568397 9059.966343874552
749.994556552374 8975.395115524516
750.9621472306771 9035.538360755478
751.9294945654583 9037.025292555898
752.8965986304011 9052.670638891472
753.8634594991636 9010.776958617505
754.8300772453586 8977.108043636346
755.7964519425768 9030.542900989489
756.762583664371 9117.181781542356
757.7284724842611 9135.162403847102
758.6941184757416 9043.434108205742
759.6595217122667 9062.65544371492
760.6246822672638 9048.517969663346
761.5896002141235 8982.276892865917
762.5542756262093 8984.038983991626
763.5187085768503 9019.353669481476
764.4828991393406 8911.575603503956
765.4468473869474 8995.381334660595
766.4105533929032 9080.822067695217
767.3740172304078 8921.313098383675
768.3372389726283 8940.23126951414
769.3002186926988 8897.954531970825
770.2629564637282 8794.553533028378
771.2254523587872 8805.649724182487
772.1877064509154 8726.451954592832
773.1497188131179 8618.569187757932
774.1114895183728 8606.303605208846
775.0730186396268 8599.67909811738
776.0343062497905 8639.346778947971
776.9953524217381 8563.29130596267
777.9561572283274 8699.263195473504
778.9167207423689 8604.170749490875
779.8770430366476 8498.000383933173
780.8371241839159 8598.112258245406
781.7969642568951 8606.194549270509
782.7565633282757 8768.89101123004
783.7159214707099 8566.519073800355
784.6750387568281 8624.116118787506
785.6339152592227 8598.197561204699
786.5925510504512 8561.284086737269
787.5509462030477 8626.027539884404
788.5091007895098 8545.835596767904
789.4670148823006 8493.367942019357
790.4246885538596 8522.390838073761
791.3821218765861 8531.474730887161
792.3393149228505 8385.602395782556
793.2962677649975 8552.233663397521
794.2529804753303 8570.653211698675
795.20945312613 8666.739187439178
796.1656857896378 8501.128111177783
797.1216785380675 8560.704759120319
798.0774314435985 8637.0652272826
799.0329445783846 8787.192818558837
799.9882180145414 8798.673530900985
800.9432518241574 8744.025519137705
801.89804607929 8899.287789104492
802.852600851962 8971.888768567947
803.8069162141637 8927.732918427713
804.760992237856 9091.625168167391
805.714828994971 9183.623819753302
806.6684265574077 9279.80408975901
807.6217849970271 9148.284540276305
808.574904385674 9095.662286007939
809.527784795142 9237.870827180779
810.4804262972102 9279.882939377432
811.4328289636178 8957.387935772034
812.3849928660748 8821.632740987723
813.3369180762638 8809.458113289607
814.2886046658241 8885.519708676022
815.2400527063783 8676.512152565452
816.1912622695108 8566.32003393097
817.1422334267718 8669.098826199812
818.0929662496856 8532.159925642167
819.0434608097457 8422.661013011913
819.9937171784059 8421.926925150728
820.9437354271013 8279.955854308342
821.8935156272255 8409.7059948441
822.8430578501484 8252.08155386246
823.7923621672016 8067.346535753859
824.7414286496896 8126.606531324261
825.6902573688876 8206.24778079715
826.6388483960363 8183.752123944685
827.5872018023492 8041.654983837143
828.5353176590033 8204.887128906594
829.4831960371503 8048.370879010404
830.4308370079016 8028.1896387916695
831.3782406423525 8081.264455618155
832.3254070115545 8101.305722313693
833.2723361865319 7985.711746510786
834.2190282382799 7991.36645888534
835.1654832377644 7956.317035319662
836.1117012559116 7999.8652616097625
837.0576823636256 8091.323951169067
838.003426631778 7911.642534583957
838.9489341312074 7858.255684471522
839.8942049327197 8027.3225103690365
840.8392391070975 8026.967049161649
841.7840367250865 8031.461380658356
842.7285978573982 7860.778809272689
843.672922574724 8050.356682120873
844.6170109477152 7973.426681313316
845.560863046996 7946.449739243699
846.5044789431595 7952.292270724034
847.4478587067697 7916.401922833294
848.3910024083561 8064.721868629732
849.333910118421 7968.081399595957
850.2765819074339 7855.649930821669
851.2190178458332 8030.705052715037
852.161218004032 8047.82341105879
853.1031824524016 8032.482098386395
854.0449112612987 7968.716904073289
854.9864045010327 8098.9012477386395
855.9276622418947 7934.512148239182
856.8686845541379 8053.292413677262
857.8094715079915 7979.433241271125
858.7500231736467 8202.811477029518
859.690339621271 8106.434753753112
860.6304209209939 8029.491511060163
861.5702671429244 7907.0892709038035
862.5098783571284 8066.256489913942
863.4492546336569 8133.215488454707
864.3883960425155 7991.920542785008
865.3273026536863 8027.952963106257
866.2659745371238 8021.514578932622
867.2044117627465 8254.737787999793
868.1426144004472 8124.6715085479755
869.0805825200823 8171.373998869778
870.0183161914847 8259.571889976847
870.9558154844526 8355.904240061747
871.8930804687552 8325.054448275527
872.8301112141307 8196.82691686898
873.7669077902865 8392.352822260265
874.7034702669062 8574.437157947707
875.6397987136315 8468.292149655772
876.5758932000863 8501.658428813991
877.5117537958522 8664.72416821145
878.4473805704911 8445.136194769515
879.3827735935283 8470.18712069804
880.3179329344603 8653.994235392915
881.2528586627541 8832.811114350005
882.1875508478479 8834.244050308618
883.1220095591489 8606.286236466563
884.0562348660296 8559.997057098135
884.9902268378391 8620.893494053238
885.9239855438955 8495.174973913268
886.8575110534839 8497.290539325475
887.7908034358588 8472.860161020562
888.7238627602474 8428.917691339291
889.6566890958475 8526.361565537427
890.5892825118208 8216.068714771985
891.5216430773125 8300.562883301329
892.4537708614189 8265.319807615891
893.3856659332196 8123.591860826765
894.3173283617652 8086.246812929455
895.2487582160684 8049.324496554969
896.179955565116 8054.143288681691
897.110920477864 7966.68439327087
898.0416530232451 7912.948252165789
898.9721532701478 7880.9493097583645
899.9024212874428 7953.980154603158
900.8324571439662 7781.810994050129
901.7622609085302 7717.69862191358
902.6918326499072 7658.060568270103
903.6211724368477 7731.003831455768
904.5502803380696 7857.706984354651
905.4791564222614 7866.742985825648
906.4078007580792 7743.198556171001
907.3362134141571 7660.817560488899
908.2643944590909 7825.450036147087
909.1923439614493 7648.108441314491
910.1200619897754 7633.197804687092
911.0475486125779 7822.329523033797
911.9748038983344 7666.626277434424
912.9018279155007 7608.987624480818
913.8286207324982 7576.86455050724
914.7551824177117 7638.343209757234
915.6815130395116 7608.78330052953
916.6076126662283 7518.256831239842
917.533481366163 7541.55342822616
918.4591192075914 7626.509660223588
919.3845262587565 7588.6526744089115
920.3097025878706 7585.478573520491
921.2346482631237 7569.129995052208
922.1593633526682 7562.658440488242
923.0838479246304 7605.418803646205
924.0081020471061 7751.88899327784
924.9321257881656 7462.146677240104
925.8559192158464 7496.965874650802
926.7794823981512 7495.584529208169
927.7028154030686 7452.596127180918
928.6259182985414 7355.9102266775135
929.5487911524906 7602.792658869099
930.4714340328119 7548.469601008166
931.3938470073608 7381.089978995549
932.3160301439748 7466.340865088174
933.2379835104548 7499.762466672621
934.1597071745709 7573.9128251401
935.0812012040769 7541.798474550194
936.002465666681 7562.382460356041
936.9235006300696 7603.598100359823
937.8443061619055 7651.637937482102
938.7648823298077 7439.027657911387
939.6852292013809 7492.576394186224
940.6053468441951 7547.184007820503
941.5252353257874 7472.687054724124
942.4448947136698 7577.0244796648385
943.364325075323 7511.14857211591
944.2835264782043 7571.354874630968
945.2024989897309 7504.040384258525
946.1212426773054 7479.432604825057
947.0397576082851 7618.890107371582
947.9580438500125 7719.786417745092
948.8761014697939 7710.937885106427
949.7939305349064 7640.12928548113
950.7115311125999 7544.426205746373
951.6289032700952 7598.4424343043165
952.5460470745875 7724.488029489231
953.4629625932339 7595.238680167311
954.3796498931715 7658.957977052184
955.2961090415029 7637.467468831879
956.2123401053068 7649.202917586255
957.1283431516276 7597.669399605099
958.0441182474842 7533.052549414615
958.9596654598663 7746.1475859606335
959.8749848557309 7525.855670114984
960.7900765020167 7524.605259779902
961.7049404656209 7468.5870417019305
962.6195768134185 7518.479591172902
963.5339856122537 7602.786276667341
964.4481669289453 7554.445069664487
965.3621208302793 7532.024238894284
966.2758473830145 7467.46271585784
967.1893466538822 7651.804444024687
968.1026187095813 7464.483780279277
969.0156636167867 7372.758292990077
969.9284814421426 7541.1442662764475
970.8410722522622 7494.31029545011
971.753436113735 7417.791814301624
972.6655730931161 7395.2597496694825
973.5774832569368 7506.393371052875
974.4891666716958 7415.165031656851
975.4006234038698 7373.174617938012
976.3118535198955 7421.440688497726
977.2228570861935 7548.601638134353
978.1336341691494 7534.469535065073
979.0441848351202 7353.854504358153
979.9545091504333 7540.623179475728
980.864607181391 7564.13337006333
981.7744789942699 7542.035234519906
982.6841246553086 7580.077530371648
983.5935442307236 7524.615872738241
984.5027377867027 7657.133831390891
985.4117053894024 7630.954815366374
986.3204471049557 7495.099699194447
987.2289629994648 7632.979132419957
988.1372531390007 7760.255837496763
989.0453175896091 7711.841047429848
989.9531564173067 7703.534932318352
990.860769688079 7647.628899705684
991.7681574678918 7688.614343738018
992.6753198226706 7744.054560599451
993.582256818323 7689.2960229076725
994.4889685207218 7703.124985386018
995.3954549957143 7905.959589010663
996.301716309119 8015.829256593706
997.2077525267232 7912.671700481862
998.1135637142943 7899.518141787637
999.0191499375615 8027.008753894217
999.924511262232 8015.658628639193
1000.8296477539861 7954.241096318176
1001.7345594784656 7845.190875811267
1002.6392465012996 7819.66061190223
1003.5437088880753 7931.052376520825
1004.4479467043584 7858.264259590083
1005.3519600156869 7623.335270178194
1006.2557488875718 7847.660255943963
1007.1593133854858 7818.960302764327
1008.0626535748888 7667.37710285838
1008.9657695212009 7567.736309122341
1009.8686612898182 7849.842738323806
1010.7713289461135 7750.262624733817
1011.6737725554212 7672.375131484249
1012.5759921830577 7623.101233617231
1013.4779878943027 7602.537611723684
1014.379759754418 7753.201614730342
1015.2813078286254 7520.201465184262
1016.18263218213 7471.067526532589
1017.0837328801026 7514.048308560219
1017.9846099876886 7678.098024322132
1018.8852635700023 7466.659023071841
1019.7856936921362 7338.774219626903
1020.6859004191447 7563.723370939004
1021.5858838160675 7423.80630233463
1022.4856439479063 7267.162646281303
1023.3851808796389 7233.325457855413
1024.2844946762143 7432.660182672164
1025.183585402554 7400.412536034525
1026.082453123554 7130.087557756519
1026.9810979040776 7294.197690535167
1027.8795198089647 7195.67056906233
1028.777718903024 7329.9055625352285
1029.6756952510368 7141.178320243314
1030.5734489177648 7155.738094048209
1031.4709799679313 7220.359162380648
1032.3682884662358 7369.291172231098
1033.2653744773506 7027.708910394658
1034.1622380659192 7088.628639523248
1035.058879296559 7187.373705719676
1035.9552982338591 7214.713943296874
1036.8514949423825 7148.935645660301
1037.7474694866614 7111.035691619841
1038.6432219312028 6994.139109015804
1039.5387523404825 7281.772854014738
1040.4340607789582 7155.957302130299
1041.3291473110476 7076.296179870944
1042.2240120011465 7213.317257653161
1043.1186549136273 7193.8653611011705
1044.0130761128294 7035.834051582717
1044.9072756630649 7072.782383911057
1045.8012536286205 7128.2909080504705
1046.6950100737577 7166.312256263262
1047.588545062701 7263.984991640398
1048.481858659663 7166.683956510354
1049.3749509288118 7320.844192712681
1050.2678219343034 7197.413518775798
1051.1604717402515 7244.893647345697
1052.0529004107575 7170.030803283688
1052.9451080098825 7302.486390776285
1053.8370946016694 7305.209927273839
1054.7288602501267 7257.437909946202
1055.6204050192446 7237.0816720397315
1056.511728972977 7348.110323388193
1057.402832175254 7393.095601836171
1058.2937146899785 7373.401505813245
1059.1843765810263 7249.537366747036
1060.0748179122456 7429.3580064749185
1060.9650387474576 7342.291883396315
1061.855039150456 7396.421439377626
1062.7448191850071 7341.486530010324
1063.6343789148505 7502.998123915456
1064.5237184037014 7502.344531386769
1065.412837715241 7354.67173127358
1066.3017369131267 7386.921183989466
1067.190416060992 7365.655899462674
1068.0788752224398 7326.111276902031
1068.9671144610438 7351.341289971572
1069.8551338403558 7451.669663539008
1070.7429334239023 7452.854301995336
1071.6305132751695 7256.490475610333
1072.517873457633 7380.865809055285
1073.4050140347335 7253.456271379658
1074.2919350698776 7349.591324397938
1075.1786366264623 7345.909140024002
1076.0651187678395 7246.87153915841
1076.95138155735 7172.806372166339
1077.8374250582929 7209.31688860038
1078.7232493339507 7262.784766558203
1079.608854447577 7212.162838945238
1080.4942404623907 7101.711876889111
1081.3794074415982 7216.827572689697
1082.2643554483657 7238.305683511617
1083.149084545841 7199.121565238868
1084.033594797138 7109.610455579581
1084.9178862653516 7075.186343308279
1085.8019590135427 7305.692064389039
1086.6858131047484 7042.8943402495515
1087.5694486019802 7172.803110403407
1088.4528655682225 7109.7482779541115
1089.3360640664287 7286.7177161708405
1090.2190441595321 7166.8058526451205
1091.1018059104317 7142.9306957484605
1091.98434938201 7191.346608045783
1092.866674637111 7297.707109555073
1093.748781738559 7180.936874119894
1094.6306707491512 7052.002963496234
1095.5123417316554 7168.1574937691885
1096.3937947488157 7119.872681595856
1097.2750298633455 7096.506707341776
1098.156047137938 7062.943627821664
1099.0368466352556 7136.721445318239
1099.9174284179317 7290.360579753973
1100.7977925485757 6821.647642247463
1101.6779390897755 7010.305496848252
1102.5578681040806 7045.510055840758
1103.4375796540226 6998.7014224830755
1104.3170738021054 6924.169466953046
1105.1963506108077 6763.949130809457
1106.0754101425773 6853.001302700424
1106.9542524598382 7024.583967612455
1107.8328776249855 6881.7494195074705
1108.7112857003904 6832.385030561547
1109.5894767483987 6939.440023198103
1110.4674508313292 7108.64339383928
1111.3452080114657 6948.111804450132
1112.2227483510815 7077.717348929864
1113.1000719124077 7121.972811764777
1113.9771787576592 7232.343728613298
1114.854068949022 7145.571255510011
1115.7307425486542 7271.981527330501
1116.6071996186893 7343.302687877496
1117.483440221229 7563.327216508046
1118.3594644183577 7359.012020012977
1119.235272272128 7364.459316348209
1120.1108638445658 7529.178670579584
1120.9862391976712 7767.3570699005095
1121.8613983934229 7750.131771985539
1122.7363414937627 7705.015765097877
1123.6110685606182 7816.057034428367
1124.485579655884 8052.9879689137
1125.359874841426 7862.128451413296
1126.2339541790916 7939.548331786811
1127.1078177306936 8187.445761094044
1127.9814655580267 7937.154828635203
1128.854897722851 8047.851709478254
1129.7281142869106 8004.510730098113
1130.6011153119125 8042.541524555056
1131.473900859548 8153.524983180994
1132.3464709914697 7981.902575338763
1133.2188257693178 7956.829605844223
1134.0909652546961 7872.012140860892
1134.96288950919 7740.7020243594625
1135.8345985943506 7931.625082803243
1136.7060925717087 7687.830604013364
1137.57737150277 7619.662822629017
1138.4484354490069 7745.136054779253
1139.3192844718778 7539.956672960488
1140.1899186327992 7278.314668792656
1141.060337993178 7445.542212547416
1141.930542614382 7368.849063926437
1142.8005325577597 7151.935175102632
1143.670307884635 7063.949779093596
1144.5398686563003 7138.915388949647
1145.409214934025 7095.157165875925
1146.2783467790541 6811.398402821358
1147.1472642526023 6935.978262280373
1148.0159674158622 6986.2110235535265
1148.8844563300026 6736.2832095850345
1149.7527310561618 6693.472026743012
1150.6207916554504 6688.233913308733
1151.4886381889592 6624.52317915513
1152.3562707177498 6641.633791705104
1153.2236893028585 6530.716244678266
1154.090894005296 6470.21969688568
1154.9578848860474 6549.077440505548
1155.8246620060709 6528.017069849236
1156.6912254262988 6348.329311213033
1157.5575752076438 6380.6457184990595
1158.42371141098 6627.122385483887
1159.2896340971656 6536.881408868773
1160.1553433270346 6390.1680131521825
1161.0208391613887 6468.231421697174
1161.8861216610057 6438.880192636535
1162.75119088664 6491.860908867375
1163.6160468990201 6419.705356156819
1164.4806897588442 6329.797583441477
1165.3451195267917 6510.109854688297
1166.2093362635114 6523.795628534011
1167.0733400296285 6380.098340001188
1167.9371308857444 6380.273111481862
1168.8007088924278 6391.824494345454
1169.6640741102328 6343.721445697936
1170.5272265996773 6254.7400727849945
1171.390166421259 6300.202219155203
1172.252893635452 6360.258300120967
1173.1154083026995 6590.92311445777
1173.977710483421 6446.4624826571535
1174.8398002380145 6287.442750166343
1175.7016776268483 6428.811450509
1176.563342710264 6410.1423949298605
1177.4247955485826 6375.173970700105
1178.2860362020947 6490.319533734494
1179.147064731069 6237.575820012427
1180.0078811957483 6471.545462085897
1180.8684856563486 6396.177896170817
1181.7288781730604 6444.583230511443
1182.589058806052 6484.634584668741
1183.4490276154593 6673.096634311956
1184.3087846614017 6477.5524428668205
1185.1683300039676 6510.803271118176
1186.027663703222 6686.344088546064
1186.8867858192025 6589.694810740647
1187.7456964119228 6607.514479192507
1188.6043955413716 6759.704388337615
1189.4628832675116 6761.537916502586
1190.3211596502842 6917.561314217545
1191.179224749596 6874.269815915808
1192.0370786253388 6835.492854581409
1192.8947213373758 6962.917404439502
1193.7521529455407 7139.007945658188
1194.6093735096438 6842.849444062963
1195.466383089477 6927.0574758396615
1196.3231817447977 6926.9993162538785
1197.1797695353398 7175.742919837529
1198.0361465208189 6895.732692023475
1198.8923127609214 6915.054212194885
1199.7482683153048 7035.590117934978
1200.6040132436028 7185.7115846221
1201.459547605431 6947.146706573464
1202.3148714603722 6934.006329659946
1203.1699848679855 6965.329147153721
1204.0248878878065 7027.9403845571405
1204.8795805793507 6740.640512131722
1205.7340630020935 6895.598174512723
1206.5883352155033 7037.648506275598
1207.4423972790064 6984.1874850255745
1208.2962492520237 6753.635362749014
1209.1498911939307 6664.490382708866
1210.0033231640937 6713.898402676374
1210.8565452218427 6706.199286160094
1211.7095574264913 6412.418695448554
1212.5623598373222 6524.514613654346
1213.4149525135963 6512.791139980979
1214.2673355145507 6633.041705795613
1215.1195088993936 6325.6632605992545
1215.9714727273113 6412.868672822544
1216.8232270574663 6594.393429752144
1217.6747719489904 6234.513761199999
1218.5261074609934 6299.010922207853
1219.3772336525653 6438.229484500439
1220.2281505827668 6426.184925876202
1221.0788583106296 6447.797526952815
1221.9293568951707 6266.248282568045
1222.7796463953746 6224.675961353366
1223.629726870202 6373.5304293423305
1224.4795983785934 6313.94093518553
1225.3292609794553 6266.307242510834
1226.1787147316809 6136.973490682719
1227.0279596941327 6237.52366772222
1227.8769959256424 6106.635501247065
1228.7258234850306 6328.631640710582
1229.5744424310833 6001.811232938429
1230.422852822563 6303.794639638347
1231.2710547182105 6324.540140071536
1232.119048176739 6172.739814043314
1232.9668332568417 5996.914203713549
1233.8144100171812 6254.87101040908
1234.6617785163999 6253.470639816735
1235.508938813111 5957.440342534017
1236.3558909659114 6051.160509729601
1237.2026350333617 6269.919723376812
1238.049171074008 6345.319552284042
1238.8954991463652 6160.813444996664
1239.741619308932 6177.188045076917
1240.587531620169 6139.013133495371
1241.4332361385277 6357.085264777711
1242.2787329224248 6167.555177865006
1243.1240220302534 6108.838056640476
1243.9691035203869 6115.110669186904
1244.813977451171 6228.080236800685
1245.6586438809263 6270.715743996639
1246.5031028679496 5927.72504004606
1247.3473544705157 6143.489204576132
1248.1913987468706 6144.357091510415
1249.0352357552383 5938.107371968486
1249.8788655538228 6013.286328387191
1250.7222882007918 6198.832331133421
1251.565503754302 6222.23351003685
1252.4085122724755 5949.49174839392
1253.2513138134182 6189.794673522186
1254.0939084352049 6003.9807835479
1254.9362961958905 6068.990796717055
1255.7784771535007 6085.946042542102
1256.6204513660432 6198.95315315731
1257.4622188915 6285.537723602751
1258.3037797878242 6113.659525002365
1259.1451341129468 5962.48678332628
1259.9862819247755 6121.506052297528
1260.8272232811978 6112.473872032524
1261.6679582400666 6354.389626859431
1262.5084868592203 5897.581599719504
1263.34880919647 5990.5745688107345
1264.1889253095997 6180.662274665582
1265.0288352563712 6266.812631435975
1265.8685390945266 6044.5997624783
1266.7080368817751 6154.328879018516
1267.5473286758115 6324.653604285669
1268.386414534294 6238.595604038927
1269.2252945148703 5843.769396333984
1270.0639686751547 6010.438209992845
1270.9024370727402 6036.9354064715035
1271.7406997651997 6011.942541073392
1272.5787568100714 5796.017669022951
1273.4166082648808 5912.150788426293
1274.2542541871244 5917.808985570743
1275.091694634275 6200.288152134597
1275.9289296637817 5818.3605886922915
1276.7659593330663 5971.193968097137
1277.6027836995308 6012.301475067821
1278.4394028205552 6102.530230689316
1279.2758167534867 6000.3954508121315
1280.112025555658 5893.555475813654
1280.9480292843746 5969.385526027579
1281.7838279969128 5786.400318128105
1282.6194217505326 5843.243515146571
1283.4548106024686 5713.324684594376
1284.289994609926 5892.494820594178
1285.1249738300921 6000.886655207536
1285.959748320127 5833.367511737417
1286.7943181371702 5904.979879882656
1287.6286833383328 5940.144999779232
1288.4628439807038 5924.025806948498
1289.2968001213521 5862.302731053281
1290.1305518173194 5898.481519172607
1290.9640991256183 5925.315301718699
1291.7974421032523 5781.607238937735
1292.630580807183 5820.988140934737
1293.463515294361 6014.945923456786
1294.29624562171 6100.322826976253
1295.12877184613 5775.514289964154
1295.961094024493 5863.2711565342925
1296.79321221365 5925.482761432699
1297.6251264704333 5995.72212258975
1298.4568368516466 6200.720364671467
1299.2883434140658 5979.03478050551
1300.1196462144526 5850.6854649021025
1300.9507453095375 6012.529880152571
1301.7816407560313 6107.647880251174
1302.6123326106172 6055.272880188418
1303.4428209299622 5937.105170941984
1304.2731057707024 6231.778788430485
1305.1031871894502 6024.229756541416
1305.933065242798 6149.704098983276
1306.7627399873181 6113.415458166856
1307.5922114795467 6482.563864492705
1308.4214797760123 6594.4408949810695
1309.2505449332057 6197.307577207726
1310.0794070076026 6240.604051050847
1310.9080660556538 6310.394743166107
1311.736522133786 6396.184660232233
1312.5647752983987 6249.230961320705
1313.3928256058734 6158.768648660317
1314.2206731125661 6349.97356925045
1315.048317874809 6436.642736605996
1315.8757599489109 6262.85566883501
1316.7029993911547 6275.977682649904
1317.5300362578055 6516.836842459203
1318.356870605101 6253.956823629913
1319.183502489257 6232.441799469787
1320.0099319664623 6374.441663275158
1320.836159092889 6410.006480529617
1321.66218392468 6466.595047692927
1322.4880065179532 6201.895555698832
1323.3136269288134 6322.242188497807
1324.1390452133292 6455.659289541121
1324.9642614275563 6579.236436207184
1325.7892756275214 6292.170856694982
1326.6140878692295 6222.0862973899075
1327.4386982086617 6686.758942286023
1328.2631067017755 6405.124830417228
1329.0873134045069 6361.82711633992
1329.911318372764 6344.192392873325
1330.735121662441 6317.506500049827
1331.558723329399 6200.377938572035
1332.3821234294774 6214.530637493126
1333.2053220185007 6265.980957380616
1334.0283191522612 6160.457197367925
1334.851114886529 6308.381571667975
1335.6737092770582 6106.816982838265
1336.4961023795695 6141.011763040971
1337.3182942497697 6026.812271673582
1338.1402849433325 6052.083055366533
1338.962074515921 5826.773150602769
1339.7836630231632 5873.892828010593
1340.6050505206676 6323.997582790687
1341.426237064028 6163.205806530809
1342.2472227088037 5947.431425438397
1343.0680075105338 5787.6728267016315
1343.888591524741 5976.871793756119
1344.7089748069138 6053.474972907756
1345.5291574125276 5879.393260727729
1346.3491393970307 5795.776228572506
1347.168920815846 6083.586478809544
1347.9885017243778 6090.294348589427
1348.8078821780036 5858.3779782749025
1349.6270622320844 5968.7955128003905
1350.4460419419447 5820.087471875171
1351.2648213629054 5970.614227602364
1352.0834005502438 5693.915889525579
1352.90177955923 5741.8490492667825
1353.7199584451064 5960.640872049907
1354.5379372630887 5914.5142400212735
1355.355716068374 5739.356061998828
1356.1732949161305 5676.087128572059
1356.9906738615155 5898.323006079312
1357.8078529596478 5832.330761749727
1358.6248322656375 5995.168743398031
1359.441611834567 5728.364477657399
1360.2581917214866 5849.646392712692
1361.0745719814367 5852.291886846424
1361.890752669433 5695.859634462654
1362.7067338404577 5649.221919331322
1363.5225155494845 5936.422309606122
1364.3380978514506 5960.915755090038
1365.1534808012839 5508.375160633852
1365.9686644538815 5458.1089043371785
1366.783648864117 5903.331911335253
1367.5984340868417 5908.659280916175
1368.413020176893 5768.465998508124
1369.2274071890715 5551.401561285153
1370.0415951781652 5853.867200301816
1370.8555841989346 5739.731339326338
1371.6693743061223 5647.021073406116
1372.48296555444 5467.7844955679
1373.2963579985844 5783.999376613318
1374.1095516932255 5714.223608480683
1374.9225466930166 5344.751104659883
1375.7353430525782 5596.336587677115
1376.5479408265164 5446.375631368201
1377.36034006941 5593.747977926636
1378.1725408358216 5638.209671127766
1378.9845431802805 5399.905081392533
1379.796347157304 5925.27992645421
1380.6079528213813 5599.603863331327
1381.4193602269788 5301.915476546125
1382.230569428546 5368.834369689453
1383.0415804805016 5619.767540065937
1383.852393437246 5601.074601281678
1384.6630083531563 5541.563458602501
1385.4734252825892 5411.026279312504
1386.2836442798798 5537.213599804759
1387.0936653993322 5542.976079575803
1387.9034886952395 5449.631081752018
1388.713114221864 5582.717268167549
1389.5225420334482 5601.647542874021
1390.331772184214 5397.923579004121
1391.1408047283585 5230.051195833401
1391.9496397200564 5449.215857531253
1392.758277213461 5571.904181327754
1393.5667172627054 5627.120593015522
1394.3749599218918 5390.101594752824
1395.1830052451114 5232.217389748841
1395.9908532864265 5465.435956365911
1396.7985040998774 5547.923278312651
1397.6059577394808 5253.499087605418
1398.4132142592352 5344.11929332747
1399.2202737131156 5274.176532511506
1400.027136155073 5588.856874265304
1400.8338016390353 5278.487622392277
1401.6402702189134 5272.89344254999
1402.446541948586 5405.084576747362
1403.2526168819204 5248.713241912356
1404.058495072757 5158.878804326088
1404.8641765749107 5226.953359003155
1405.6696614421799 5383.003073702034
1406.4749497283356 5622.203768314133
1407.280041487129 5153.165416989444
1408.084936772295 5001.929911511913
1408.8896356375335 5373.852299823926
1409.6941381365323 5352.50510169363
1410.498444322955 5108.824225105552
1411.3025542504402 5222.646368517946
1412.106467972606 5245.742854022594
1412.9101855430508 5228.931326939355
1413.7137070153458 4975.825845567099
1414.5170324430437 5139.282951261654
1415.320161879672 5234.147070166442
1416.1230953787435 5430.479697281137
1416.925832993742 5060.835875880117
1417.7283747781275 4982.461023309709
1418.5307207853439 5181.838974676362
1419.3328710688093 5079.992105754089
1420.134825681922 4775.9529042675285
1420.9365846780584 4970.343197752127
1421.7381481105713 5246.906093884194
1422.539516032788 5100.099647085486
1423.3406884980232 4984.9238036323995
1424.1416655595604 4854.641218500677
1424.942447270665 4967.59030979304
1425.7430336845828 5114.781272281684
1426.5434248545298 4735.673822022112
1427.3436208337116 5040.351198248516
1428.143621675301 5107.78205501096
1428.9434274324558 5256.5207752096885
1429.7430381583108 4759.0672535387785
1430.5424539059713 4979.630847858081
1431.3416747285337 5404.697026520234
1432.1407006790632 5134.332536850345
1432.9395318106053 5000.221542869307
1433.7381681761835 4807.145361498739
1434.5366098288014 5047.487499430301
1435.3348568214424 5079.152658780773
1436.1329092070573 4809.340025667849
1436.9307670385879 4984.325940374481
1437.7284303689503 5118.2550240890905
1438.5258992510335 5181.613247309342
1439.3231737377118 4985.286522750683
1440.1202538818306 4985.917959716623
1440.9171397362225 4956.613165024471
1441.7138313536925 4917.156175495567
1442.5103287870243 4773.9507852582055
1443.3066320889775 4769.123811432208
1444.1027413122956 5100.770029190246
1444.8986565096966 4881.548453476784
1445.694377733882 4780.178978663179
1446.4899050375207 4643.967208703915
1447.2852384732687 4814.772609838121
1448.0803780937622 4948.314160355278
1448.8753239516063 4673.771810788355
1449.6700760993954 4549.868026936707
1450.464634589689 4761.824460172452
1451.2589994750397 4986.095950524834
1452.0531708079689 4618.498585840813
1452.8471486409799 4599.364707383384
1453.6409330265524 4934.0842852282985
1454.4345240171442 4672.367529716086
1455.2279216651987 4587.769574910611
1456.0211260231263 4673.187763347465
1456.8141371433194 4787.155918595695
1457.6069550781594 4827.177462753414
1458.3995798799897 4527.510444240825
1459.1920116011424 4555.313491928769
1459.98425029393 4501.266264707092
1460.7762960106338 4529.61392227818
1461.5681488035225 4605.6207544331
1462.3598087248392 4633.316856197304
1463.1512758268036 4890.4428610583
1463.942550161617 4505.57317804938
1464.7336317814625 4436.263239192867
1465.524520738496 4753.792006222444
1466.3152170848552 4469.0688234027175
1467.1057208726506 4611.1308892233155
1467.8960321539817 4448.055313077908
1468.6861509809169 4367.117773421356
1469.4760774055085 4430.484024747524
1470.265811479785 4465.561499617824
1471.055353255755 4340.477798895018
1471.844702785409 4335.352742728833
1472.6338601207044 4322.594656065348
1473.4228253135934 4581.0670148545305
1474.2115984159936 4325.14112445247
1475.0001794798063 4204.346257555928
1475.7885685569145 4481.085616689695
1476.576765699172 4327.208789707553
1477.3647709584238 4325.083835150455
1478.1525843864802 4549.126675266534
1478.9402060351367 4522.744532544611
1479.7276359561693 4441.206343896385
1480.514874201328 4290.2641539145825
1481.3019208223468 4135.401263850479
1482.0887758709323 4142.7563458292725
1482.8754393987747 4553.809522336402
1483.6619114575406 4236.0931003893
1484.4481920988783 4298.038744450987
1485.2342813744108 4396.295516109276
1486.0201793357446 4573.584313606409
1486.8058860344572 4164.993632976632
1487.591401522117 4206.7848587008175
1488.3767258502594 4265.929445409627
1489.1618590704056 4297.286082156448
1489.9468012340494 3981.0425902105053
1490.7315523926754 4392.86047577937
1491.5161125977356 4425.491826936463
1492.3004819006637 4425.9184170040735
1493.084660352877 4173.015317131537
1493.8686480057622 4439.622141361706
1494.6524449106964 4555.561904599359
1495.4360511190262 4597.585939438832
1496.219466682087 4314.764898940817
1497.0026916511779 4459.47310530486
1497.7857260775945 4375.93850176667
1498.5685700125996 4455.62321090173
1499.3512235074395 4201.3911842706075
1500.133686613337 4125.384867660823
1500.9159593814966 4295.089617934822
1501.698041863101 4745.790942099084
1502.4799341093094 4141.710187964936
1503.2616361712662 4094.8973518285893
1504.043148100087 4422.720376182848
1504.8244699468742 4467.417446055595
1505.6056017626997 4150.013878992033
1506.3865435986281 4157.691738037631
1507.1672955056893 4332.079582923091
1507.9478575348967 4172.3489373566
1508.7282297372512 4468.7312959697765
1509.5084121637192 4242.095229331472
1510.2884048652577 4188.620382166525
1511.0682078927948 4169.810941067621
1511.8478212972423 4204.522073586246
1512.6272451294917 4093.079541713361
1513.4064794404076 4281.765506254177
1514.1855242808433 4268.50767018307
1514.9643797016215 4168.674092623548
1515.743045753552 4316.250771318638
1516.5215224874191 4274.191484555132
1517.2998099539836 4046.0205521538614
1518.077908203999 4134.019061123646
1518.8558172881785 4127.971624461682
1519.633537257234 4369.801166836628
1520.4110681618404 4253.375545388417
1521.1884100526604 4290.250511533274
1521.9655629803365 4207.463473589688
1522.7425269954856 4487.295913251426
1523.5193021487103 4622.423296203829
1524.2958884905856 4144.399128654075
1525.0722860716687 4230.248833556956
1525.848494942502 4126.56308224082
1526.624515153595 4195.800622591447
1527.4003467554485 4245.431742967348
1528.175989798534 4320.313034089953
1528.9514443333064 4335.577412340778
1529.726710410203 4567.531134893425
1530.5017880796331 4078.921005590244
1531.276677391992 4238.76033446995
1532.0513783976457 4552.9435869830795
1532.825891146953 4227.302397278039
1533.6002156902414 4339.076264958563
1534.3743520778207 4332.286448579714
1535.1483003599806 4340.348117551117
1535.9220605869923 4347.913040436705
1536.6956328091019 4304.911797412564
1537.4690170765407 4257.769983825066
1538.242213439511 4469.356367998766
1539.015221948208 4268.840097393396
1539.78804265279 4234.5363062737
1540.560675603405 4054.105772761487
1541.3331208501804 4496.530304480804
1542.1053784432224 4523.552813754029
1542.8774484326168 4296.2071764464645
1543.649330868422 4292.79179007937
1544.4210258006842 4364.167560943691
1545.1925332794308 4343.368571665347
1545.9638533546604 4287.808304762557
1546.7349860763552 4221.223623816976
1547.5059314944829 4635.994588299088
1548.27668965898 4418.629006237061
1549.0472606197673 4392.799403967918
1549.817644426752 4194.389101159851
1550.5878411298072 4498.007116633043
1551.3578507787988 4336.252509351437
1552.1276734235635 4204.98271565719
1552.8973091139233 4403.486227204458
1553.6667578996767 4480.0664816135
1554.436019830604 4273.455666431634
1555.20509495646 4307.63130652399
1555.9739833269869 4173.533715587387
1556.7426849919011 4238.22547953878
1557.511200000903 4652.147008144192
1558.2795284036674 4355.567573953884
1559.0476702498509 4307.547221253271
1559.8156255890954 4503.011177315368
1560.5833944710157 4679.835162681572
1561.3509769452048 4285.593521107592
1562.1183730612447 4369.76479757173
1562.8855828686865 4356.492393347347
1563.6526064170703 4629.469693372603
1564.4194437559127 4513.137332645836
1565.1860949347047 4205.2521819869835
1565.9525600029283 4643.534200978123
1566.7188390100328 4750.080302751635
1567.4849320054564 4396.344771468432
1568.250839038612 4370.360706567435
1569.0165601588997 4408.823339588684
1569.7820954156887 4483.011839887617
1570.5474448583373 4269.945068629564
1571.31260853618 4224.822791506049
1572.0775864985299 4183.452279890943
1572.8423787946813 4424.033403845853
1573.6069854739108 4194.907155052864
1574.371406585471 4475.10194840482
1575.1356421785986 4496.7946266797035
1575.899692302506 4109.411929951033
1576.6635570063845 4431.832430293185
1577.4272363394157 4283.293545103652
1578.190730350747 4248.7643842330635
1578.9540390895163 4390.834480067875
1579.7171626048384 4014.2462964504266
1580.480100945806 4142.225185090042
1581.2428541614918 4202.899460375217
1582.0054223009538 4336.850313838343
1582.767805413223 4161.6379761124645
1583.5300035473156 4186.9389472815055
1584.292016752228 4457.119796433812
1585.0538450769309 4387.842595640135
1585.8154885703807 4104.9840093530465
1586.5769472815136 4085.115536832875
1587.3382212592405 4289.452061724224
1588.099310552463 4419.3685095374385
1588.8602152100484 4256.838114706607
1589.6209352808564 4400.140219203079
1590.3814708137234 4232.196179067169
1591.14182185746 4251.421547872671
1591.9019884608679 4156.155293527985
1592.6619706727215 3977.7691675264314
1593.4217685417734 4219.445758175169
1594.1813821167616 4458.079798693425
1594.9408114464022 4043.9256552020242
1595.7000565793933 4234.505170776383
1596.459117564409 4310.410377968468
1597.2179944501113 4210.005454675263
1597.9766872851324 4155.895659755445
1598.735196118092 4321.590087586774
1599.4935209975883 4370.542926434923
1600.2516619721973 4409.878837327129
1601.0096190904787 4125.100145493272
1601.7673924009723 4206.410881183539
1602.524981952196 4091.8096120342825
1603.2823877926476 4260.86587032983
1604.0396099708087 3991.340319904308
1604.7966485351371 3949.649928545721
1605.5535035340745 4170.323960261667
1606.3101750160404 4413.800544846037
1607.0666630294363 4026.113315424399
1607.822967622642 3918.3223195796577
1608.5790888440224 4160.406448996588
1609.3350267419137 4205.355441288247
1610.0907813646445 4084.9059702264553
1610.8463527605145 3958.079237183743
1611.601740977805 4250.638800466975
1612.356946064785 4162.957014445462
1613.1119680696902 3868.916119576164
1613.8668070407512 3996.8089043087116
1614.6214630261748 4010.9176070547583
1615.375936074137 4212.77640668733
1616.1302262328118 4037.80262815425
1616.8843335503425 4208.0996871600455
1617.638258074854 3850.225509057709
1618.391999854457 4033.077392419177
1619.1455589372363 4277.161654442095
1619.8989353712623 4150.874059817264
1620.65212920458 3860.9643496425574
1621.4051404852235 3974.6282809448703
1622.1579692611976 4136.096276528404
1622.9106155804966 3775.2625251292316
1623.663079491087 3981.599241751086
1624.4153610409248 4243.88406673464
1625.1674602779385 3889.1242476750595
1625.9193772500403 3822.074507108942
1626.6711120051277 4232.858723380232
1627.4226645910676 4034.438878092199
1628.174035055721 3891.4668539957697
1628.9252234469168 4138.418633428688
1629.676229812474 4044.24541532824
1630.4270542001905 4253.977682772162
1631.1776966578382 4106.939084535151
1631.9281572331747 3975.6087861694896
1632.678435973945 4254.336197404451
1633.4285329278573 4141.761993709841
1634.1784481426203 3825.548014923332
1634.9281816659113 4105.070158274573
1635.677733545388 4272.463804787601
1636.4271038286934 4027.248568692053
1637.176292563452 4257.746137570187
1637.9252997972635 4153.903813538996
1638.674125577716 4264.258063926874
1639.4227699523672 4564.78301331197
1640.171232968767 3936.027496897664
1640.9195146744423 4163.720932225978
1641.6676151168977 4393.872548481611
1642.4155343436178 4387.060539593005
1643.1632724020765 4214.714244720682
1643.9108293397167 4113.238214713872
1644.658205203974 4093.8363089759223
1645.4054000422566 4711.657360954609
1646.1524139019566 4281.354017042068
1646.8992468304423 4069.160528007621
1647.6458988750728 4194.949801652911
1648.3923700831765 4237.372989649649
1649.1386605020743 4240.006224916362
1649.8847701790564 4466.236157110681
1650.6306991614038 4379.144036525163
1651.3764474963682 4500.668814423606
1652.1220152311944 3961.2195011954377
1652.867402413096 4377.173184876512
1653.6126090892776 4366.594994461188
1654.3576353069184 4511.702013049382
1655.1024811131829 4445.84285625929
1655.8471465552066 4203.937270777339
1656.5916316801213 4480.772098083591
1657.3359365350298 4313.507960086233
1658.0800611670165 4257.900388808686
1658.824005623148 4233.218955419672
1659.5677699504722 4130.2786211391785
1660.3113541960192 4437.304394142591
1661.054758406799 4118.296390131194
1661.7979826297997 3998.6706518081023
1662.5410269119966 4035.541976980266
1663.283891300338 4283.718705315953
1664.0265758417645 4053.1934415639853
1664.7690805831826 4119.977003043116
1665.5114055714948 4247.472875908385
1666.2535508535748 4445.720888352214
1666.9955164762814 3839.147537592669
1667.7373024864555 4081.410490148486
1668.478908930916 4160.510634816681
1669.220335856462 3918.4285391643
1669.9615833098778 3910.332849019321
1670.7026513379296 3790.4936925695606
1671.44353998736 4061.167042913851
1672.1842493048916 4004.8292460820717
1672.9247793372379 3804.0339112287343
1673.6651301310812 3974.819965775155
1674.4053017330934 3903.567479097472
1675.1452941899242 3946.05964352116
1675.885107548207 3449.456387911985
1676.6247418545518 3547.541453152179
1677.3641971555535 3732.433447222983
1678.1034734977893 3964.7900709561036
1678.8425709278108 3755.681876679476
1679.5814894921605 3880.8144587385286
1680.320229237359 3887.231623507668
1681.0587902098978 3899.2132904144937
1681.7971724562685 3676.34285017767
1682.5353760229264 3655.570211185638
1683.2734009563173 3758.7577184436036
1684.0112473028657 3510.0323298159446
1684.7489151089794 3699.235859949394
1685.4864044210462 3896.00878719568
1686.2237152854377 3313.269436958594
1686.960847748498 3751.3014703279377
1687.6978018565642 3427.852505998155
1688.434577655944 3400.398881724712
1689.1711751929379 3254.0705062035668
1689.9075945138156 3498.8226499872353
1690.6438356648396 3362.5293032704567
1691.3798986922448 3033.8990799211174
1692.1157836422499 3379.3215980535206
1692.851490561059 3215.8788040679547
1693.587019494853 3437.5698132276725
1694.3223704897991 3063.345066719536
1695.0575435920364 2988.43965561888
1695.792538847696 3558.093466116886
1696.527356302886 3288.0423724124958
1697.2619960036936 3001.612129710299
1697.9964579961907 2986.2542876825983
1698.730742326432 2789.496096323773
1699.4648490404488 2959.3489739321776
1700.1987781842563 3112.6012486496174
1700.9325298038548 3299.8067749151573
1701.6661039452174 3318.634765238324
1702.3995006543082 3162.2231258670668
1703.1327199770658 3250.9786696214055
1703.865761959416 2987.318359066242
1704.598626647261 3325.6710424026737
1705.3313140864866 3042.8598525253806
1706.0638243229587 2916.5762932591
1706.7961574025303 3087.2321593894585
1707.528313371029 3046.3833083044397
1708.260292274268 2860.6002113506734
1708.9920941580403 2986.221028555142
1709.7237190681226 3021.5791570159026
1710.4551670502697 2967.2308174427094
1711.18643815022 2730.5155966062216
1711.9175324136959 3364.016675415857
1712.6484498863938 2944.9112402855017
1713.379190614005 2747.9878954953415
1714.109754642188 2759.5829790387684
1714.8401420165883 2907.3644625352717
1715.570352782839 3243.6987291073065
1716.3003869865497 2992.8390198376333
1717.0302446733076 2799.678463498647
1717.7599258886876 2906.5884439301435
1718.4894306782444 3312.859801871558
1719.2187590875183 2698.819188985618
1719.9479111620203 3152.602842864536
1720.6768869472544 2689.9425557396335
1721.4056864887025 3144.505048529152
1722.1343098318284 3151.7226383788275
1722.8627570220742 2960.9477009259513
1723.591028104871 2744.28663844007
1724.3191231256242 2639.8739079240713
1725.0470421297232 2814.1042943700572
1725.7747851625427 2947.004588645969
1726.5023522694337 2943.563254091871
1727.2297434957363 2877.3809083568667
1727.9569588867635 2678.337056375287
1728.6839984878152 3033.3341357513145
1729.4108623441734 2480.431784304282
1730.1375505011038 2962.182464920064
1730.8640630038426 2616.1584892685305
1731.5903998976264 2681.32389687765
1732.316561227657 2869.6035895378172
1733.0425470391274 2518.18726417694
1733.7683573772065 2773.8894453965736
1734.4939922870508 2759.764150313701
1735.2194518137949 2756.9328654275064
1735.9447360025606 2775.265426800299
1736.669844898439 2734.736329984087
1737.3947785465189 2597.771572203533
1738.1195369918605 2572.5861840783077
1738.8441202795093 2752.7488050666743
1739.5685284544943 2719.571764249443
1740.292761561821 2879.8216675758495
1741.0168196464838 2857.0983171051253
1741.7407027534518 2887.1640683578094
1742.464410927687 2816.0662349014133
1743.187944214118 2675.1384837365167
1743.9113026576688 2666.9959420518016
1744.634486303241 2702.044202036421
1745.3574951957125 2703.500509427199
1746.0803293799509 2826.7492551699743
1746.8029889008048 2668.4019874471223
1747.5254738031017 2720.3819585427127
1748.2477841316504 2703.8068778772513
1748.969919931249 2729.708177693256
1749.6918812466665 2605.5901564515443
1750.4136681226646 2882.3114864092304
1751.1352806039777 2724.0411456300744
1751.856718735331 2387.8457004626157
1752.5779825614281 2521.718754434386
1753.2990721269507 2764.064677884716
1754.0199874765676 2750.0861787397475
1754.7407286549314 2485.850270478937
1755.4612957066693 2579.013955045709
1756.1816886763954 2530.7821923250676
1756.9019076087097 2719.0119796276513
1757.6219525481865 2685.0714786315375
1758.3418235393856 2749.391761881507
1759.061520626854 2649.0756331642906
1759.7810438551096 2883.046486386014
1760.5003932686614 2453.992342750748
1761.2195689119999 2908.39372038463
1761.938570829594 2692.4767233869366
1762.657399065898 2628.7949538717244
1763.376053665348 2479.595408670898
1764.0945346723602 2499.4055640654683
1764.812842131334 2753.082690740916
1765.5309760866512 2381.409683068
1766.2489365826787 2482.856452951998
1766.9667236637597 2548.325816330537
1767.684337374223 2336.883817011035
1768.401777758383 2492.651229029296
1769.1190448605284 2456.563576195641
1769.836138724937 2434.732569771694
1770.5530593958665 2545.3470571586686
1771.2698069175603 2887.2540094871174
1771.9863813342326 2795.8966535648037
1772.702782690094 2556.2051967965062
1773.4190110293293 2749.9351647438675
1774.1350663961111 2748.48048981832
1774.8509488345844 2525.764495699107
1775.5666583888924 2669.0092217088304
1776.2821951031437 2836.2976093772677
1776.9975590214362 2543.9844685569656
1777.7127501878585 2742.5963216845435
1778.4277686464684 2638.1081876574544
1779.1426144413108 2806.886743817554
1779.8572876164162 2729.886563422394
1780.571788215797 2417.6986506276726
1781.2861162834415 2569.5061096733616
1782.0002718633277 2425.6662917491844
1782.7142549994132 2787.9881470994233
1783.4280657356376 2631.077252949364
1784.141704115922 2447.0933581946565
1784.855170184177 2588.7839138621393
1785.5684639842839 2574.593389732897
1786.2815855601148 2219.0737098438194
1786.9945349555237 2605.792551760591
1787.707312214343 2428.7982438087265
1788.4199173803918 2856.23338930171
1789.132350497468 2413.518095298413
1789.8446116093583 2496.3021838821314
1790.556700759822 2425.820650310321
1791.2686179926077 2353.656633671001
1791.9803633514493 2472.8060601080074
1792.6919368800554 2280.664167960224
1793.4033386221236 2613.007420313784
1794.1145686213295 2672.214137401806
1794.8256269213307 2680.773036995495
1795.536513565774 2629.5302692630758
1796.247228598284 2263.336242769404
1796.9577720624693 2461.0217949806092
1797.6681440019165 2489.8365672758687
1798.3783444602013 2567.9774664815973
1799.0883734808776 2578.662460098375
1799.7982311074884 2537.316217503848
1800.5079173835475 2498.2171820668236
1801.2174323525633 2637.9784602521686
1801.9267760580187 2415.250677323117
1802.635948543386 2644.1411771544012
1803.3449498521113 2421.735610883439
1804.0537800276325 2557.283751492464
1804.7624391133668 2462.8176515689274
1805.47092715271 2235.703534991843
1806.1792441890484 2339.130070541345
1806.8873902657433 2663.425445907971
1807.5953654261448 2348.17788140912
1808.3031697135812 2400.5435129827742
1809.0108031713662 2429.6990313034125
1809.71826584279 2437.2112990380497
1810.425557771141 2505.4145664701737
1811.1326789996747 2905.0983439068104
1811.839629571632 2391.627333763166
1812.5464095302468 2460.3590600483913
1813.2530189187182 2397.238982772622
1813.959457780249 2344.844852958871
1814.6657261580076 2602.975124014395
1815.371824095153 2422.8085526798104
1816.0777516348262 2245.0458653060823
1816.78350882015 2067.1858778785722
1817.4890956942272 2221.307947979959
1818.1945123001533 2417.5081889335934
1818.8997586809928 2426.3935793674077
1819.6048348798067 2163.829266963171
1820.3097409396287 2429.073609856197
1821.0144769034796 2749.027308037018
1821.7190428143622 2526.23247273726
1822.423438715261 2606.9846246642774
1823.1276646491478 2326.5581433813627
1823.8317206589727 2422.9944304339965
1824.5356067876692 2422.768226769357
1825.2393230781581 2467.8634609844476
1825.942869573335 2129.6428840252765
1826.646246316086 2304.9775282939986
1827.3494533492758 2447.6103394720994
1828.052490715756 2478.4798919468517
1828.7553584583547 2493.438909714424
1829.458056619891 2503.428682011544
1830.1605852431585 2375.4474112330277
1830.8629443709433 2244.9517169438427
1831.5651340460063 2380.7114895959226
1832.2671543110919 2208.200713737913
1832.9690052089318 2491.0952854871653
1833.6706867822395 2068.9713964172
1834.3721990737104 2434.4406021545647
1835.0735421260233 2626.673959948148
1835.774715981841 2322.206039051653
1836.4757206838058 2662.2540970158207
1837.1765562745459 2306.5331008253042
1837.8772227966747 2105.858101130237
1838.5777202927839 2398.169703252691
1839.2780488054523 2291.947821867717
1839.9782083772352 2230.0523180001805
1840.6781990506806 2685.3081063498767
1841.378020868313 2346.899927860447
1842.0776738726418 2405.457782166691
1842.777158106157 2233.681569263696
1843.4764736113375 2330.1927603074664
1844.1756204306403 2362.6500144007523
1844.8745986065078 2534.3555254401062
1845.5734081813607 2097.1308906685417
1846.2720491976124 2347.553464253034
1846.970521697649 2263.9887457176596
1847.6688257238511 2287.3343192082766
1848.3669613185684 2241.3159434091294
1849.0649285241452 2023.5901840119955
1849.7627273829057 2454.002401231406
1850.460357937156 2361.8116931589648
1851.1578202291857 2074.59654300851
1851.8551143012664 2366.667669705649
1852.5522401956569 2211.4085099168615
1853.2491979545957 2588.734723036413
1853.9459876203055 2181.2186236011835
1854.6426092349902 2128.7723118409003
1855.3390628408451 2276.578957493318
1856.0353484800362 2633.5758570926364
1856.7314661947203 2427.46255209059
1857.4274160270397 2069.901412275437
1858.123198019115 2300.697879905123
1858.8188122130487 2140.6867433901616
1859.5142586509319 2328.582529898359
1860.209537374838 2277.5234788260314
1860.9046484268183 2343.464635874482
1861.599591848917 2563.99915798575
1862.294367683151 2136.7465327802283
1862.988975971528 2220.0225054560797
1863.6834167560355 2387.7823850940035
1864.3776900786452 2540.961306832939
1865.0717959813119 2290.972147947142
1865.7657345059724 2147.8939999963623
1866.4595056945564 2418.2309906311893
1867.1531095889586 2351.1366761246145
1867.846546231076 2034.080007855035
1868.5398156627743 2422.4010036697264
1869.2329179259123 2173.2463999374904
1869.9258530623283 2564.132561327726
1870.618621113843 2156.779107818607
1871.3112221222636 2153.2633035572712
1872.0036561293764 2175.14473051616
1872.695923176956 2477.3970401507468
1873.3880233067594 2534.667462628973
1874.0799565605212 2111.4023289531174
1874.7717229799673 2239.0033070847226
1875.4633226068036 2512.317857118459
1876.1547554827175 2319.3473756705766
1876.8460216493859 2088.986111399329
1877.5371211484617 2280.7062061503307
1878.2280540215852 2465.6434046728828
1878.9188203103804 2058.628172705641
1879.6094200564548 2194.013038459548
1880.299853301396 2168.217805806494
1880.9901200867826 2460.883430872156
1881.6802204541673 2314.4379315297383
1882.3701544450942 2312.576611272789
1883.059922101087 2014.5686621748548
1883.7495234636517 2532.084122767367
1884.4389585742792 2249.7640560380596
1885.1282274744517 2110.4890914927
1885.8173302056166 2229.589943575307
1886.506266809225 2348.8532232165535
1887.195037326701 2014.74338732357
1887.8836417994517 2050.1012466323245
1888.5720802688702 2563.009331643151
1889.260352776333 2444.1266961013675
1889.9484593632042 2479.14119486959
1890.63640007082 2085.8948276042806
1891.3241749405151 2124.360258181782
1892.0117840135954 2349.6283489380758
1892.6992273313572 2219.525159469686
1893.3865049350788 2141.3397153021147
1894.0736168660223 2626.294140648125
1894.7605631654333 2454.5166573268316
1895.4473438745408 2086.8031764254747
1896.133959034556 2554.4481583695615
1896.820408686679 2454.0791533215643
1897.506692872088 2566.5928404381534
1898.192811631945 2256.382194125091
1898.8787650073991 2190.810018112561
1899.5645530395832 2477.9941410900055
1900.2501757696118 2404.5354060194145
1900.9356332385796 2133.676540995283
1901.620925487574 2603.2105851422957
1902.3060525576602 2316.1084961508964
1902.9910144898859 2334.710448530408
1903.6758113252872 2072.549109500321
1904.3604431048789 2274.1052262906774
1905.0449098696663 2345.8588530915367
1905.7292116606295 2353.0222941447964
1906.4133485187394 2309.9658748518136
1907.0973204849488 1955.95145161175
1907.7811276001976 2024.8498847984163
1908.4647699053967 2182.686354314845
1909.1482474414588 2156.891498278489
1909.8315602492694 2130.9415796392414
1910.5147083696957 2469.0917871630386
1911.1976918436012 2160.3772122782543
1911.880510711815 2035.0926030506348
1912.5631650151681 2054.1100235119247
1913.2456547944657 2073.09894337797
1913.927980090495 2164.018262249916
1914.6101409440362 2127.71354902003
1915.2921373958416 2254.841247605399
1915.9739694866603 2241.7122288757123
1916.655637257214 2495.895205223068
1917.3371407482136 2317.2977443373616
1918.0184800003572 2561.7286631743536
1918.6996550543154 2434.7410911742486
1919.3806659507554 2343.6461830389726
1920.0615127303208 2359.9784182941657
1920.7421954336423 2473.7281664062834
1921.4227141013343 2437.9045860177416
1922.103068773993 2353.656057845341
1922.783259492202 2345.62600255647
1923.4632862965227 2131.0403583977204
1924.1431492275078 2146.34273176394
1924.8228483256917 2072.306974967875
1925.5023836315922 2208.1157780886056
1926.1817551857057 2373.151219381932
1926.8609630285227 2538.5428006752372
1927.5400072005123 2332.2172734301753
1928.218887742125 2156.5326797311345
1928.8976046938005 1978.780795402728
1929.5761580959588 2387.7712119016824
1930.2545479890086 2310.6229670038315
1930.9327744133352 1820.8572750273038
1931.6108374093164 2157.9642281684323
1932.2887370173066 1982.4845808141374
1932.9664732776473 2392.675713859905
1933.6440462306673 2190.9644489333823
1934.3214559166754 2116.7918264899513
1934.9987023759659 2453.9810172265484
1935.675785648813 2331.5102151711135
1936.3527057754836 2476.158993322414
1937.029462796223 1983.7831333262427
1937.70605675126 2117.518799044318
1938.3824876808085 2040.9047969665858
1939.058755625072 2103.199061852569
1939.7348606242267 2080.8174253073203
1940.4108027184448 2255.0229977552017
1941.0865819478713 2377.070219158941
1941.7621983526478 2116.7129545293037
1942.4376519728921 1965.8814779811717
1943.1129428487038 2101.3692710402474
1943.7880710201734 2332.141186924032
1944.4630365273733 2181.858236240857
1945.1378394103576 1834.9491003343032
1945.8124797091714 1870.5025859974842
1946.4869574638324 1906.061243016108
1947.161272714353 2128.79449054743
1947.8354255007234 2344.165893386192
1948.5094158629272 2126.8882034430653
1949.1832438409183 2317.439000115033
1949.8569094746435 2349.5314690031573
1950.530412804037 2429.1617125408675
1951.2037538690092 2304.260016695703
1951.8769327094578 2113.0889074382962
1952.5499493652678 2148.901290053599
1953.222803876306 2453.081616034859
1953.895496282421 2381.973668476787
1954.5680266234522 2283.3654663105076
1955.2403949392155 2337.526426112133
1955.9126012695142 1875.8174829526083
1956.5846456541403 2185.3592035055435
1957.2565281328643 2144.78739545696
1957.9282487454457 2350.4562738903696
1958.5998075316202 2335.529117423876
1959.27120453112 2057.4485215521586
1959.9424397836501 2171.707151489963
1960.613513328908 2296.9593460769347
1961.2844252065697 2415.5290390665514
1961.9551754563017 1865.7060396731315
1962.6257641177453 2007.5521602046472
1963.29619123054 1983.3658972663306
1963.966456834296 1966.915401483772
1964.6365609686181 2129.5041052591823
1965.306503673086 2177.9680959415427
1965.976284987275 2041.1847704819454
1966.645904950734 2121.0852975322277
1967.315363603002 1922.8538062226144
1967.9846609836077 2020.3705495531492
1968.6537971320486 2072.4605204036216
1969.3227720878222 2218.3021871715396
1969.9915858904042 2105.4119065561417
1970.660238579252 2252.3497212515904
1971.3287301938108 2148.4665073320416
1971.997060773514 2090.188157134166
1972.665230357772 1974.7054498108348
1973.3332389859843 2049.4259309670724
1974.0010866975335 1919.2915579414512
1974.6687735317864 2225.486672549054
1975.3362995280932 2258.198911919057
1976.003664725793 2270.9949930810694
1976.6708691642052 1809.3347461034493
1977.3379128826364 2115.047406842866
1978.004795920373 2266.6878017934987
1978.6715183166925 1994.0211039734618
1979.3380801108524 2238.375927512084
1980.0044813420973 1989.3684145194525
1980.6707220496555 1887.8738679076148
1981.3368022727373 2107.9901807324536
1982.0027220505417 1886.3011646070397
1982.66848142225 2097.5917470252184
1983.3340804270283 1913.3344442249138
1983.999519104027 2070.626657884298
1984.6647974923835 2174.074831584413
1985.329915631215 2167.216124128844
1985.99487355963 2171.3369364321243
1986.6596713167146 2421.9355731331098
1987.3243089415428 2009.0873607655656
1987.9887864731754 2358.6314672565945
1988.6531039506553 1936.8505474526635
1989.3172614130071 1955.6736689270842
1989.9812588992481 1974.5600700652794
1990.645096448372 1779.044631531724
1991.3087740993633 2113.791598364057
1991.9722918911848 2087.360510022215
1992.635649862792 2179.5945273863476
1993.2988480531185 2210.106530737522
1993.9618865010852 2094.8963511481215
1994.6247652455968 1979.5459893322575
1995.287484325545 2046.8868368299354
1995.9500437798033 2001.2874868761053
1996.6124436472292 2050.609225983424
1997.2746839666706 2233.9975246857057
1997.936764776954 2010.535792384643
1998.598686116895 1835.692322114891
1999.2604480252903 2386.683473360239
1999.9220505409212 2252.81733209904
2000.5834937025593 1899.5349212707144
2001.2447775489582 2002.3339702773435
2001.9059021188514 2222.6124905662027
2002.5668674509616 1871.9013526692956
2003.2276735839987 2136.4616957023713
2003.8883205566508 2277.3740954625014
2004.5488084075987 2061.93320062865
2005.2091371755014 2127.453559965799
2005.8693068990033 1782.3739369516388
2006.5293176167397 1819.0195150363063
2007.1891693673224 1855.8917418398953
2007.848862189354 1790.2874903239122
2008.5083961214223 2021.7501951809325
2009.1677712020955 1879.53888286066
2009.8269874699254 1966.154370486916
2010.4860449634598 1900.391683914373
2011.1449437212177 1834.5686398603618
2011.8036837817108 2270.9167186156956
2012.4622651834325 2159.0615407652913
2013.1206879648653 2202.1209788092137
2013.7789521644736 2431.205160273678
2014.4370578207036 2310.3132820352994
2015.0950049719922 2189.022902561231
2015.7527936567585 2389.5271122474496
2016.4104239134067 2146.9154009977906
2017.067895780323 2004.013595560785
2017.725209295886 2414.637659838953
2018.3823644984514 2290.6844389201024
2019.0393614263648 2120.6740894800514
2019.6962001179545 1975.7005280916533
2020.3528806115355 2355.391731023216
2021.0094029454067 2174.0891400042447
2021.6657671578487 1858.8340732964248
2022.321973287133 2137.381555408571
2022.9780213715148 2002.3408622927006
2023.6339114492293 1865.9377552016945
2024.2896435585026 1991.362583385689
2024.9452177375442 2024.748818350865
2025.600634024544 2410.81050592623
2026.2558924576842 2262.679572955706
2026.9109930751292 2269.821741331135
2027.565935915025 1948.691968577975
2028.2207210155066 2343.835553669823
2028.8753484146964 2470.6496253948853
2029.529818150695 2443.7008347072033
2030.1841302615903 2416.507404155673
2030.8382847854573 1959.1864480694646
2031.4922817603601 2164.3069080792384
2032.1461212243357 2094.8058598793273
2032.7998032154192 1764.9830241323423
2033.4533277716218 1933.667718149754
2034.1066949309443 1889.316537078025
2034.7599047313688 1896.4019779805628
2035.4129572108704 2286.357900391815
2036.0658524074006 2112.970714608954
2036.7185903589016 2283.219960785238
2037.3711711032956 2058.9441597832683
2038.023594678496 2183.323804250681
2038.675861122394 1996.5056333731445
2039.3279704728757 1883.6272794752415
2039.9799227678031 1770.664855382718
2040.6317180450278 2031.2925129416028
2041.2833563423865 2015.0256336336377
2041.9348376977014 2439.008422650708
2042.5861621487784 2170.3895129547773
2043.2373297334088 2020.2300397729796
2043.8883404893695 2068.164433792471
2044.5391944544208 2205.3481182194637
2045.1898916663158 2332.504770557172
2045.8404321627804 2475.314066803656
2046.4908159815368 2025.8771997385527
2047.1410431602853 1994.6490647019898
2047.7911137367173 1822.0218951643444
2048.441027748504 1845.9265297896814
2049.090785233302 1869.7854885597571
2049.7403862287592 1925.6209751017843
2050.389830772503 1867.5440588350607
2051.0391189021466 1809.465186823986
2051.688250655294 2136.4206465882066
2052.337226069527 1871.1310461769165
2052.986045182417 1811.0625106501168
2053.634708031521 1751.0555795771634
2054.283214654375 2179.770055119502
2054.931565088511 1759.6799655127136
2055.579759371436 1874.145895561852
2056.2277975406523 2134.5146598904344
2056.8756796336384 2108.9387429121934
2057.5234056878617 1692.6036954448336
2058.1709757407752 2009.2992082520232
2058.8183898298194 2297.6494716282295
2059.465647992416 2236.967608981792
2060.1127502659747 2319.99032466116
2060.759696687888 2313.4318505943193
2061.4064872955405 2306.8940272318096
2062.053122126292 2365.05335703113
2062.699601217497 2191.531924768102
2063.345924606485 2018.066754306758
2063.992092330587 2121.976157407623
2064.638104427102 1864.0394381121187
2065.283960933324 1941.9951451942584
2065.92966188653 2020.0421081990833
2066.5752073239855 2317.4704100792974
2067.2205972829397 1838.7687869586443
2067.86583180062 2071.581526364399
2068.5109109142522 2020.1845953526729
2069.15583466104 2068.9317594185295
2069.8006030781708 1989.0385549251052
2070.445216202821 2043.5061363956625
2071.089674072153 2153.8597510871728
2071.7339767233116 2250.6302736352777
2072.3781241934303 2080.5329435801095
2073.0221165196253 2111.2166710578754
2073.6659537390024 1926.1553054096025
2074.3096358886505 2074.635890761119
2074.953163005637 1900.9374325830431
2075.596535127028 1747.6700169775293
2076.2397522898664 1848.3890185160544
2076.882814531182 1951.5350647856453
2077.5257218879924 2078.881634448326
2078.1684743973 1783.1226211896142
2078.8110720960885 1796.8538187738795
2079.453515021336 1893.8225024698118
2080.095803209997 1990.8517488612174
2080.7379366990135 2047.1080091542196
2081.37991552532 2165.485464326815
2082.0217397258275 2054.933929438227
2082.6634093374414 1733.5813639888815
2083.3049243970418 2052.5182781104736
2083.9462849415067 2148.324850075648
2084.587491007689 2026.3956080433254
2085.2285426324324 2092.627750492883
2085.869439852564 1926.835313902137
2086.510182704902 1934.2919339254004
2087.1507712262483 2126.9677824315777
2087.791205453381 2132.261474675674
2088.4314854230743 2137.515845728018
2089.0716111720867 2051.0767485573233
2089.7115827371617 1710.1761131538474
2090.351400155023 1784.880851042087
2090.991063462385 1859.8091055961718
2091.6305726959527 1723.0358488360864
2092.2699278924047 2140.970864901893
2092.9091290884153 1985.7028330062662
2093.548176320641 1879.213243247313
2094.187069625721 2121.029017999869
2094.8258090402887 1784.989416846897
2095.464394600951 2147.961797878013
2096.102826344313 2037.684575632375
2096.741104306955 2133.9242914499982
2097.379228525453 1905.803059140837
2098.017199036358 1699.537369989807
2098.6550158762147 2334.3308913301194
2099.2926790815527 2216.5329905074695
2099.9301886888825 1931.8957043156438
2100.5675447347076 2035.643887387052
2101.2047472555114 2150.252661480682
2101.841796287761 1865.7803835187055
2102.47869186792 2134.6731830859544
2103.1154340324265 1894.7303875781618
2103.752022817709 1996.653418805349
2104.388458260184 1777.4868326230185
2105.024740396251 2004.63789772579
2105.660869262292 1894.7724551330302
2106.296844894685 2205.0213535482853
2106.93266732978 1962.516564191162
2107.5683366039284 1802.0766326854477
2108.2038527534532 2178.1781136364
2108.8392158146726 2296.072110146088
2109.4744258238843 1909.713879340455
2110.1094828173755 2028.839467684439
2110.744386831422 2402.4559914615447
2111.3791379022787 2082.3821627146817
2112.01373606619 2254.218332548562
2112.648181359389 2058.877852973999
2113.28247381809 2216.553504582028
2113.916613478492 2140.55973101025
2114.550600376786 2019.3546494308525
2115.1844345491445 1982.8161230757973
2115.818116031729 1787.9147240448874
2116.451644860679 1955.4223217912925
2117.085021072133 1773.2808097205411
2117.718244702204 1923.8287570084544
2118.3513157869984 1710.5913038809645
2118.984234362604 1701.0421893576597
2119.617000465092 2008.2675244927802
2120.249614130529 1987.8109210485266
2120.8820753949585 1967.3254812414543
2121.5143842944162 1883.1033399593812
2122.14654086492 1796.4077113574326
2122.7785451424734 2109.030993245956
2123.4103971630702 2146.4188901609787
2124.042096962681 2184.129850998933
2124.6736445772767 2307.8346871512827
2125.305040042802 1852.8713040775904
2125.936283395191 2045.808188147757
2126.567374670365 2010.1089880044267
2127.198313904233 1783.2379684079322
2127.8291011326855 1810.0267447071506
2128.4597363916037 1836.6564742993983
2129.0902197168507 1892.9674025365064
2129.720551144279 2131.4779400723405
2130.3507307097225 2370.183620014118
2130.980758449008 2331.8353198738714
2131.6106343979427 1847.0092503742515
2132.2403585923203 2112.4359186233123
2132.8699310679276 2133.4617198528313
2133.499351860526 2179.4419503264717
2134.1286210058715 1875.7037945678608
2134.7577385397053 2108.5071071350517
2135.3867044977487 2341.658166787617
2136.0155189157176 2346.8679289638526
2136.644181829308 2204.4847541454196
2137.2726932742025 2084.5866813257726
2137.901053286074 1948.3110162329328
2138.5292619005777 1811.893671762525
2139.1573191533535 1821.0216256595056
2139.7852250800315 2076.655197091114
2140.4129797162295 1943.9042571522339
2141.0405830975433 1624.4980887324605
2141.6680352595613 1706.112465168216
2142.2953362378576 1787.90262781376
2142.9224860679915 1986.7298233076785
2143.549484785508 1859.6836943205915
2144.1763324259373 1951.3674832911724
2144.803029024799 1924.0700338882057
2145.429574617594 1934.671569783422
2146.0559692398165 2124.1193599360295
2146.682212926942 1749.7365025561369
2147.308305714432 1890.7179117157273
2147.9342476377333 2083.911053162611
2148.5600387322847 2422.350369868222
2149.185679033506 2138.595494556296
2149.8111685768017 2001.1385220436555
2150.4365073975678 1850.9146087270449
2151.061695531187 1916.3287359871715
2151.686733013021 1982.6849389583404
2152.311619878423 2049.303937977134
2152.9363561627342 1964.3962410798129
2153.560941901278 1760.069667263456
2154.1853771293663 2082.3305153611277
2154.809661882293 1950.502312737803
2155.433796195348 2394.9381962725615
2156.0577801037944 2308.2018237082066
2156.681613642895 2221.147024378067
2157.3052968478896 1846.4203866618943
2157.928829754006 2109.5792415696246
2158.552212396462 2214.685221624374
2159.1754448104566 2004.5310742290906
2159.7985270311783 1583.0361163891291
2160.4214590938027 1435.8209467552483
2161.0442410334927 1676.9418821085833
2161.6668728853874 1759.092016173264
2162.289354684628 1841.4655611541737
2162.911686466332 1942.773665323583
2163.533868265602 2226.82491214349
2164.1559001175337 2335.0223240346054
2164.7777820572046 2172.193112006511
2165.399514119681 2086.92003900243
2166.021096340013 1684.4871565138942
2166.6425287532384 2173.413036817082
2167.263811394385 1734.1151112584862
2167.8849442984574 2334.9164410588883
2168.505927500455 1917.4867362947566
2169.126761035366 1947.108579774123
2169.7474449381552 1723.4256691337935
2170.367979243778 1535.9370332571896
2170.9883639871823 2186.7762851629795
2171.608599203293 1767.2085458425377
2172.2286849270276 2339.9743378847265
2172.8486211932886 2465.470580289103
2173.4684080369625 2069.419806385066
2174.0880454929265 1765.9534740640217
2174.7075335960417 1575.295600977283
2175.3268723811543 1610.986312227617
2175.9460618831 1646.7902167076238
2176.565102136701 2020.178731787661
2177.1839931767627 1921.2613263410572
2177.802735038078 1822.1100941138388
2178.421327755432 1760.6312663982412
2179.0397713635866 1757.6069477005694
2179.658065897298 1850.606723195472
2180.276211391305 2093.4149223737636
2180.8942078803357 1892.5218707221622
2181.5120553991 2027.2735540126155
2182.129753982299 1663.4663578948462
2182.7473036646206 1823.731724828734
2183.3647044807367 1759.96900967056
2183.9819564653044 1696.1245811388235
2184.599059652968 1993.2278546300374
2185.216014078367 2149.457618425547
2185.832819776113 2201.3595464852883
2186.4494767808137 2253.2587189252
2187.065985127063 1780.6014330583616
2187.682344849436 1812.1479015578298
2188.298555982501 1908.6828144547987
2188.9146185608097 2005.262445210851
2189.530532618901 2047.6221003391595
2190.1462981912937 2149.8675074097573
2190.761915312507 2049.6395608539246
2191.377384017036 1870.3485190928168
2191.9927043393654 1966.1335727954709
2192.6078763139667 2126.983270782025
2193.2228999753006 2288.208070492499
2193.837775357808 1941.948026123277
2194.452502495922 1608.6673577753963
2195.0670814240602 1939.0608381700076
2195.6815121766285 1658.5520531415896
2196.2957947880186 1658.1626752084012
2196.9099292926057 1657.7782825231934
2197.523915724758 2036.3380104672983
2198.137754118825 1825.089604156979
2198.7514445091456 2330.2026299771633
2199.3649869300443 2416.358007138952
2199.9783814158327 2502.816091186147
2200.5916280008096 2494.8096805640594
2201.2047267192593 2115.6617682195
2201.8176776054515 2028.1918729047334
2202.430480693649 2029.3883495316375
2203.0431360180955 2030.616486026092
2203.6556436130195 2107.0717775678454
2204.268003512645 1485.4029921936497
2204.8802157511727 1955.1259583668495
2205.492280362796 1952.3577406894954
2206.1041973816937 1949.6291020881265
2206.715966842032 1858.5528607763983
2207.3275887779655 1994.57954676053
2207.93906322363 2053.4557635978213
2208.550390213153 2167.0822567728733
2209.1615697806465 2066.4168562959367
2209.7726019602105 1780.50600475633
2210.3834867859277 1668.8438551978707
2210.9942242918787 1864.6291136392065
2211.6048145121167 1994.0383227011196
2212.2152574806914 2725.5083314038193
2212.825553231638 1855.7506594019183
2213.435701798975 2684.168831536468
2214.045703216707 2077.16938459663
2214.655557518832 1469.6386186634304
2215.2652647393297 1765.8324667394434
2215.874824912169 1801.7270401492156
2216.4842380713 1837.912789328401
2217.09350425067 1599.7700418129766
2217.7026234842033 2019.144826503006
2218.311595805819 2164.3016399741455
2218.9204212494133 1994.1398829794184
2219.52909984888 2313.766148940911
2220.137631638092 2304.0682592715484
2220.7460166509154 2294.2042222870655
2221.354254921198 1711.3894710348231
2221.9623464827764 1921.0877232212551
2222.5702913694713 1802.200860512249
2223.178089615096 2242.423102639678
2223.7857412534486 2037.2682847197896
2224.39324631831 1553.6971843156255
2225.000604843457 1749.7449105407668
2225.607816862641 2185.610934014444
2226.214882409611 2090.6006509543513
2226.8218015180973 2165.846281182537
2227.4285742218217 1912.7333562200165
2228.0352005544864 2036.8762103720128
2228.6416805497847 1586.2538708085376
2229.248014241399 1863.7795881000543
2229.8542016629945 2057.535407213506
2230.460242848223 2251.5367117824544
2231.0661378307304 2544.496406178123
2231.671886644139 1616.8072502627072
2232.277489322065 1597.4800318108787
2232.8829458981127 1422.597073255058
2233.48825640587 1766.8249277189448
2234.0934208789095 1995.7879956353602
2234.6984393507955 2225.0874742356655
2235.3033118550793 2037.1436744804123
2235.9080384252975 1911.725394673492
2236.5126190949723 1679.6224775434373
2237.1170538976166 1824.1418315065523
2237.721342866729 1499.5640020106225
2238.32548603579 1797.859046908791
2238.9294834382763 1818.3509294895612
2239.533335107646 2060.1752933693974
2240.1370410773434 1775.7498881624433
2240.740601380803 1760.989530744202
2241.3440160514474 1998.9240599660993
2241.9472851226783 2081.4157105744093
2242.550408627896 1788.820907896302
2243.1533866004793 1880.914492192541
2243.756219073799 1973.1974359906508
2244.3589060812064 1895.2562188392433
2244.961447656049 1693.1632115712807
2245.5638438316564 1910.5186851660721
2246.166094641343 1977.423339652462
2246.7682001184166 1837.177378459545
2247.3701602961664 1959.0669635614026
2247.971975207871 1974.3614017014756
2248.5736448867974 1869.3375658597956
2249.175169366197 1764.036261288454
2249.7765486793123 1872.712473789227
2250.3777828593684 2097.5996840076355
2250.9788719395783 2054.444069152737
2251.579815953146 1961.8978802675672
2252.1806149332606 1678.1319696252071
2252.781268913097 1779.2028907116533
2253.381777925817 1632.3635389391732
2253.9821420045737 1987.6628269965306
2254.5823611825035 1951.5070106075152
2255.1824354927303 1982.7048905780352
2255.782364968365 1774.3409377409891
2256.38214964251 1565.743884377875
2256.9817895482483 1626.9085753192069
2257.5812847186553 1985.4641303562446
2258.180635186791 1769.2213604050914
2258.779840985704 1733.1250234910362
2259.37890214843 1615.7402718087078
2259.97781870799 1819.0299389003867
2260.5765906973957 2022.6980536155515
2261.175218149645 2084.870317099439
2261.773701097718 2228.679138613586
2262.3720395745895 1690.9100750165703
2262.970233613216 1652.958520700468
2263.568283246548 1819.285581412559
2264.1661885075137 1590.3187497445801
2264.763949429038 1774.9186028832696
2265.3615660440246 1754.1475031922812
2265.959038385374 1733.3554289931774
2266.5563664859637 2138.799277707448
2267.153550378669 1711.6200211484781
2267.7505900963424 2008.315455220049
2268.3474856718312 1706.999270004977
2268.9442371379664 1758.9884483253213
2269.5408445275643 1860.0176386136723
2270.1373078734377 1889.4977707678572
2270.7336272083758 1729.3686217011805
2271.32980256516 1669.9482869298517
2271.925833976562 2117.7360978805873
2272.5217214753357 2216.546087665916
2273.117465094223 1816.3329241647311
2273.7130648659586 1768.917974474806
2274.308520823257 1769.1072983573129
2274.903832998827 2140.537772856876
2275.4990014253563 2136.441112547784
2276.094026135528 2132.2965493465817
2276.6889071620117 1732.5997790593472
2277.2836445374614 1778.948392326
2277.878238294519 1845.3941448871005
2278.472688465812 1777.1309835051736
2279.066995083962 1708.7049410309562
2279.6611581815705 1829.3721189285666
2280.255177791232 1773.318000423694
2280.8490539455233 2312.1602334756526
2281.442786677013 2368.5467237372077
2282.0363760182554 2157.5550312483947
2282.6298220017943 1745.3782999802947
2283.223124660155 2183.8085318716085
2283.816284025859 1761.6522261818948
2284.4093001314086 2170.005967741297
2285.002173009292 1690.6593636910045
2285.5949026919952 1994.9740725339375
2286.1874892119777 1724.4016919097735
2286.7799326016993 1640.756737223874
2287.3722328936 1556.8266302726913
2287.964390120109 1390.0237519561351
2288.556404313642 1904.6216481383847
2289.1482755066027 2421.5805021334463
2289.7400037313873 1962.9767293935292
2290.3315890203703 1708.8046590801375
2290.9230314059205 1745.7063008755897
2291.5143309203904 1782.7220618380857
2292.1054875961236 1917.2049801321257
2292.6965014654506 2307.053259068887
2293.287372560684 1779.801820794585
2293.878100914131 1759.4515310219626
2294.468686558086 1739.1144348694893
2295.059129524827 1793.523085802241
2295.649429846617 2058.2272122186123
2296.239587555716 1813.3456258030128
2296.8296026843636 1992.3091849945777
2297.419475264791 1907.1763245239003
2298.0092053292137 1821.766552063927
2298.598792909839 2122.4901321989114
2299.1882380388597 1989.6255536509852
2299.777540748455 2404.4367423252525
2300.3667010707904 2096.526178768395
2300.9557190380256 2184.387497559317
2301.544594682302 1966.4689942484779
2302.1333280357503 2345.7359998453994
2302.721919130485 2157.404224411086
2303.3103679986198 2224.6415364876275
2303.898674672242 2229.425791198262
2304.486839183437 1975.2136331688548
2305.0748615642697 1720.7872191817237
2305.6627418468015 1974.295779970748
2306.2504800630704 1727.7250711003119
2306.8380762451143 1986.8345217278988
2307.425530424949 2041.7393242644823
2308.012842634582 2096.754242772108
2308.6000129060103 2238.694155547154
2309.187041271214 2423.2034699063984
2309.773927762164 1682.706591592976
2310.3606724108213 2204.1699361438655
2310.9472752491274 1584.0317999449844
2311.5337363090184 1932.0597069006326
2312.120055622414 2001.4763630748682
2312.706233221221 1804.3241778584884
2313.2922691373424 1567.3365592565472
2313.8781634026564 1670.973418400196
2314.463916049037 1774.837844225904
2315.049527108342 1985.816855765482
2315.6349966124235 2376.7190150716415
2316.2203245931123 2427.2841799140765
2316.8055110822315 2057.0984015298022
2317.3905561115935 1686.0362398585862
2317.9754597129977 1674.6828584414786
2318.560221918229 1603.709827468118
2319.1448427590603 1532.610631362917
2319.729322267256 1577.578505559261
2320.313660474563 1762.3174050682276
2320.8978574127195 1956.7750705502808
2321.481913113452 2151.844942560768
2322.0658276084705 1909.5821869792394
2322.6496009294806 1823.7361956026791
2323.233233108165 1933.4128027459733
2323.8167241762058 1941.1592218267215
2324.4000741652617 2019.3131005373125
2324.983283106987 2253.7701240840142
2325.5663510330232 2165.6605549841765
2326.1492779749933 1950.8085995111426
2326.7320639645204 2225.731052377223
2327.3147090332004 1748.5250019166215
2327.897213212629 1807.1901180396137
2328.4795765343843 1865.7983610756958
2329.0617990300307 1865.2571082225809
2329.643880731124 2231.7449683327636
2330.22582166921 1800.000067284564
2330.807621875816 1631.1358354923432
2331.3892813824623 1462.1412150829249
2331.9708002206517 1499.1067951307432
2332.5521784218818 2185.005736226218
2333.133416017634 1951.7932620151582
2333.7145130393765 1718.145730248661
2334.295469518571 2055.62893441493
2334.876285486658 2274.4799124049173
2335.456960975076 2244.557751768167
2336.037496015242 2214.6075844510597
2336.6178906385667 1804.7146636255936
2337.198144876451 2110.0836915401987
2337.778258760278 1975.3354483143266
2338.3582323214214 2030.0328124894036
2338.938065591243 2084.8063380156295
2339.517758601087 2245.4965910327446
2340.0973113822965 2104.9039049926514
2340.676723966193 2001.8856276652034
2341.255996384094 1872.7064630638783
2341.835128667295 2241.043291564115
2342.4141208470883 2027.044850641168
2342.992972954751 1926.9279024535213
2343.5716850215467 1605.5379487908153
2344.1502570787306 1283.4585056228502
2344.7286891575386 1612.959908049434
2345.3069812892045 2339.341302693467
2345.885133504944 2217.667027365622
2346.4631458359618 1777.0061747060925
2347.04101831345 1774.6989844000504
2347.6187509685915 1836.8260159019435
2348.196343832553 1656.509167655886
2348.7737969364935 1751.7755465459836
2349.351110311558 1635.8504866592857
2349.9282839888765 1677.127128181361
2350.5053179995757 1419.451868025183
2351.0822123747585 1651.5716965713957
2351.658967145526 1612.6198866429143
2352.2355823429643 1573.696852019749
2352.812057998144 1906.8336083264937
2353.3883941421263 1964.9124943418967
2353.9645908059647 2046.0548920592094
2354.540648020693 1750.7411368282774
2355.116565817336 1996.7196137360356
2355.6923442269126 1740.4712962408598
2356.2679832804224 1929.5911391154998
2356.8434830088518 1885.6929208003971
2357.41884344318 1634.5543007304752
2357.994064614377 1576.8228734165236
