317.89969571804795 5009.8114033909615
318.977263876126 4916.126176864498
320.05455438786703 4930.95739662053
321.1315673423287 4902.278799636285
322.2083028285215 4969.770455424149
323.2847609354267 4878.026332866722
324.3609417519747 4913.7432297762825
325.43684536705587 4977.554478699077
326.5124718695279 4919.667314996559
327.58782134820103 4897.958196887331
328.66289389184385 4837.86799675878
329.7376895891921 4836.573967695668
330.8122085289342 4921.985895788647
331.88645079971866 4818.787544194465
332.9604164901575 4795.640818326389
334.03410568881554 4858.413414147735
335.1075184842266 4842.525468349266
336.18065496487543 4790.850545326501
337.2535152192122 4784.538995295294
338.32609933564163 4825.679797188
339.39840740253203 4813.390430229612
340.4704395082099 4773.5174862800695
341.5421957409617 4712.869170666758
342.6136761890357 4809.923116527965
343.6848809406365 4735.386079897426
344.75581008392874 4779.985446639521
345.82646370703696 4742.706736008989
346.8968418980512 4714.772724914075
347.96694474501055 4711.38665762956
349.0367723359268 4707.1469311399405
350.106324758759 4693.184166516189
351.1756021014353 4664.652505403253
352.2446044518383 4601.844842456625
353.31333189781435 4616.244735868475
354.38178452716966 4596.015751559921
355.449962427665 4644.576363074997
356.51786568702846 4618.59138866242
357.58549439294256 4646.5471727580425
358.6528486330535 4641.493800145563
359.71992849496564 4619.7194209988
360.7867340662433 4616.419321364409
361.8532654344144 4584.913180678268
362.9195226869597 4610.296380962113
363.9855059113288 4616.223944372218
365.05121519492604 4569.656938226346
366.11665062511565 4632.281964316904
367.1818122892273 4669.312037131708
368.2467002745434 4610.984607478664
369.31131466831175 4630.789992033422
370.375655557742 4592.400960770454
371.4397230299983 4611.37298484425
372.5035171722102 4598.0840881840095
373.5670380714637 4619.361764232983
374.6302858148101 4618.838144567571
375.6932604892554 4641.403559463163
376.7559621817709 4625.791674819741
377.81839097928605 4578.470177662479
378.8805469686886 4590.768838245305
379.94243023683157 4567.692312317749
381.0040408705263 4604.0405774504015
382.0653789565458 4538.649430962714
383.1264445816196 4525.515858686548
384.1872378324406 4528.975837880354
385.2477587956637 4547.197996342071
386.3080075579037 4511.473949086045
387.3679842057336 4469.485784434781
388.4276888256918 4497.597800640471
389.48712150426945 4522.252854722814
390.54628232792857 4431.219986188684
391.6051713830857 4442.945874766507
392.66378875611736 4433.0186476737745
393.7221345333637 4486.529115345635
394.7802088011249 4404.905214328164
395.838011645661 4457.066141150973
396.89554315319765 4393.381746311867
397.9528034099112 4406.795860203743
399.00979250194723 4397.252068001685
400.06651051541485 4395.989203486523
401.1229575363741 4370.538773310354
402.17913365085224 4399.318309026297
403.23503894483656 4400.7003924316605
404.2906735042761 4355.664489976356
405.3460374150818 4371.2487943358265
406.401130763119 4343.425210319647
407.455953634224 4364.897144860753
408.5105061141876 4342.221134508797
409.56478828876243 4294.410673374609
410.6188002436629 4337.887405159143
411.6725420645689 4321.857477668716
412.72601383711117 4306.201223446619
413.77921564689314 4360.695695480344
414.8321475794728 4295.563858709467
415.88480972036814 4302.760315651185
416.93720215506437 4272.356947461624
417.9893249690049 4266.422644187611
419.04117824759123 4249.388618510287
420.09276207619223 4281.363003212877
421.144076540133 4248.433323012003
422.1951217247042 4246.81433496309
423.24589771515275 4239.660625523431
424.2964045966928 4204.8165923629585
425.34664245449494 4211.118071239876
426.3966113736933 4199.816924446161
427.4463114393875 4173.967388601591
428.49574273662984 4207.799227749117
429.5449053504417 4162.582795653891
430.5937993658026 4204.30512930288
431.6424248676558 4178.552013368758
432.6907819409007 4152.057885297292
433.73887067040596 4197.404216919019
434.7866911409965 4201.46859186462
435.8342434374608 4183.093347093152
436.88152764455117 4230.523909595352
437.9285438469724 4138.973686577619
438.9752921294057 4134.988990540818
440.02177257648145 4148.531819642865
441.06798527279716 4105.350222000898
442.1139303029122 4146.4151479072225
443.1596077513459 4108.22251672208
444.2050177025794 4149.222621710387
445.25016024105753 4143.765946981374
446.2950354511886 4110.357869648955
447.33964341733736 4135.632815982151
448.383984223834 4099.587998877645
449.4280579549686 4094.8670056364876
450.471864694995 4044.420591363225
451.5154045281306 4083.0953397945427
452.5586775385509 4093.462632987698
453.60168381039693 4077.348558229651
454.64442342776783 4131.662477321091
455.6868964747264 4077.454461996725
456.7291030353008 4071.0843571171545
457.77104319347563 4131.591900355583
458.8127170332027 4052.657970342253
459.854124638392 4093.6934440371406
460.895266092919 4068.4554656434702
461.93614148061897 4150.731234585828
462.97675088529104 4072.791626085758
464.01709439069236 4089.7792623680484
465.0571720805492 4082.2166215463426
466.0969840385442 4037.9910746008054
467.1365303483253 4126.222484572228
468.17581109350067 4084.9934316999047
469.2148263576437 3978.636978373518
470.2535762242878 4044.0958501843306
471.29206077693016 4016.786312741989
472.33028009902773 4070.405968660628
473.3682342740012 4041.737450031423
474.40592338523857 4074.6210312764088
475.4433475160804 4045.1940147739892
476.4805067498364 4139.113589238523
477.51740116978 4123.433097294119
478.5540308591426 4086.3538655465904
479.59039590112116 4137.242492356385
480.6264963788726 4145.132746069583
481.6623323755193 4222.185746303214
482.6979039741436 4139.518359821535
483.7332112577915 4192.732874692181
484.76825430947247 4221.641983811146
485.80303321215797 4243.554503468271
486.837548048783 4231.313350714981
487.8717989022425 4272.587018395015
488.90578585539697 4269.345907582557
489.9395089910686 4351.935567984625
490.97296839203955 4329.087729774353
492.00616414106116 4214.45362127044
493.0390963208429 4304.67357090548
494.0717650140559 4241.272506927398
495.10417030333883 4224.173871847795
496.1363122712901 4239.482172145462
497.16819100046814 4166.851035615839
498.1998065734024 4085.917060617239
499.2311590725767 4119.794805858762
500.26224858044407 4101.773205380566
501.2930751794156 4085.367537653047
502.3236389518679 4119.3758062514635
503.35393998014115 4016.3961927078976
504.38397834653733 4036.86085671648
505.4137541333221 4022.4362012248434
506.4432674227228 3979.027344528154
507.4725182969323 4017.4254221868405
508.5015068381035 3974.480517190879
509.53023312835467 4015.501741192476
510.55869724976765 3950.585164646701
511.58689928438434 3936.012926657306
512.6148393142121 3943.349689266094
513.6425174212218 3954.994373313012
514.6699336873462 3956.770388028284
515.6970881944835 3970.7792332766476
516.7239810244901 3966.1674881189224
517.7506122591931 3940.1407614733826
518.7769819803761 3979.4268263993667
519.8030902697901 3966.9064989053827
520.8289372091476 3984.9023299531095
521.8545228801249 4070.252207476856
522.8798473643619 3959.9700068512334
523.9049107434621 3982.5682107857165
524.9297130989908 4047.165448996534
525.9542545124805 3957.650874628517
526.9785350654201 3976.9654236719884
528.0025548392696 4031.4493621347356
529.0263139154504 4004.412750818063
530.0498123753423 3970.0996931355685
531.073050300296 4011.3695350344447
532.0960277716204 3995.485050116635
533.1187448705896 3964.7515880019937
534.1412016784416 4046.723051893732
535.1633982763833 4039.5675978742483
536.1853347455726 3945.9969801947364
537.2070111671401 3966.5966504931107
538.2284276221817 3934.052535744396
539.2495841917516 3948.369345353389
540.2704809568677 3927.17545075144
541.2911179985167 3904.309235916628
542.3114953976419 3915.4659336118725
543.3316132351592 3827.0164022897297
544.3514715919409 3832.6292131202063
545.3710705488247 3829.011315544974
546.3904101866156 3893.6616426762134
547.4094905860784 3877.9536789560675
548.4283118279418 3806.031900410032
549.4468739929034 3835.4962092377486
550.4651771616191 3794.5027498584013
551.4832214147063 3749.712307953729
552.501006832761 3789.624561542854
553.5185334963226 3795.1187854625955
554.5358014859103 3824.5538852692503
555.5528108820035 3870.083309828801
556.5695617650363 3807.3844540592727
557.5860542154242 3802.9347411832982
558.6022883135283 3820.7338077614613
559.6182641396881 3781.6357846712817
560.6339817741991 3777.593329989686
561.6494412973225 3817.3212176161205
562.6646427892883 3823.513923040255
563.6795863302796 3751.5733007432523
564.694272000459 3715.4182975497997
565.7086998799423 3771.879757924181
566.7228700488104 3795.034482551374
567.7367825871115 3728.5244734682506
568.7504375748576 3811.9730915198074
569.7638350920224 3746.9002086045903
570.7769752185486 3782.564343498662
571.7898580343353 3783.832702268349
572.802483619258 3738.5510536536685
573.8148520531431 3743.114750068243
574.8269634157932 3747.4865691220284
575.8388177869692 3669.0000293010708
576.8504152463938 3765.2659683144107
577.8617558737587 3801.3178366828383
578.8728397487175 3779.1220078432625
579.883666950891 3806.7176595646442
580.8942375598654 3746.2769422611773
581.9045516551851 3796.0064848524025
582.9146093163617 3824.019171443949
583.924410622878 3782.38433391215
584.9339556541727 3818.1970562453944
585.9432444896538 3838.7156453689895
586.9522772086875 3772.8479213690166
587.9610538906127 3855.2230668462785
588.9695746147318 3811.5009788403477
589.9778394603054 3851.303473172599
590.985848506567 3838.749967232144
591.9936018327098 3763.47234700151
593.0010995178891 3755.0719774944037
594.0083416412344 3736.4440958248188
595.0153282818283 3718.45534525302
596.0220595187293 3713.032338384909
597.0285354309508 3672.497159793277
598.0347560974806 3705.355360646959
599.0407215972609 3649.8865184942456
600.0464320092051 3661.338590556997
601.0518874121954 3721.3157782181393
602.0570878850685 3673.082038876741
603.062033506636 3705.4834190412475
604.0667243556636 3725.3721428097697
605.0711605108936 3666.8219344001636
606.0753420510264 3736.729808024428
607.0792690547278 3725.44726558432
608.082941600629 3719.460057136793
609.0863597673306 3647.848589730499
610.0895236333909 3651.1861175823833
611.0924332773357 3670.948110872122
612.0950887776617 3714.8144562513016
613.0974902128219 3733.0756046189335
614.0996376612384 3772.401055988131
615.1015312013005 3802.924487458953
616.1031709113595 3791.0780513953855
617.1045568697336 3788.748939371978
618.1056891547069 3814.322054710803
619.1065678445229 3846.5722295908818
620.1071930173985 3883.7041890849337
621.1075647515099 3886.5828894596852
622.1076831250048 3887.770832911535
623.1075482159849 3935.126207030472
624.1071601025305 3864.4926992772876
625.1065188626781 3972.9708941524777
626.105624574433 3980.2409347974813
627.1044773157682 3990.2704090818893
628.1030771646128 3971.9421987129417
629.1014241988742 4026.3657050653187
630.0995184964158 4044.2931188176053
631.0973601350688 4106.572667320206
632.0949491926294 4121.429108148937
633.0922857468631 4127.891566366665
634.089369875499 4054.5348927153645
635.0862016562278 4057.3987045507142
636.0827811667077 3994.5330235932224
637.0791084845641 4031.1126611699883
638.0751836873878 3966.8036499264076
639.0710068527369 4060.1913176890594
640.0665780581294 3949.886097274514
641.0618973810506 3851.9590694818567
642.0569648989604 3884.6517243901712
643.0517806892676 3860.2647856209232
644.0463448293649 3844.1131581629534
645.040657396592 3820.148342903405
646.0347184682723 3755.443437441814
647.0285281216875 3740.700716102589
648.0220864340772 3691.4165867850143
649.0153934826558 3688.2976451793124
650.0084493446047 3669.774177961769
651.0012540970674 3650.3352391045933
651.9938078171526 3641.5398019398367
652.9861105819346 3607.5648322534953
653.9781624684565 3631.7668974028275
654.9699635537254 3561.642034860747
655.9615139147136 3609.7784493367667
656.9528136283589 3499.6000141996387
657.9438627715699 3568.3123892042117
658.9346614212154 3588.276974517799
659.925209654135 3496.8412707517136
660.9155075471263 3552.54388770305
661.9055551769616 3410.020475257936
662.895352620375 3538.0664983011275
663.8848999540678 3568.2842828140792
664.8741972547068 3418.998095432772
665.863244598926 3415.6348470319854
666.8520420633213 3539.4910890398437
667.8405897244611 3430.7363828703556
668.8288876588758 3439.8686217382397
669.8169359430613 3412.3983027886243
670.8047346534822 3438.528755977135
671.7922838665672 3406.2678054800804
672.7795836587156 3489.900149114047
673.766634106285 3466.3846060046103
674.7534352856092 3383.745125396428
675.7399872729766 3417.4773388803587
676.7262901446538 3462.8954248814216
677.712343976862 3398.411937841166
678.6981488457986 3492.8923563794224
679.6837048276229 3404.606601705411
680.6690119984596 3445.020840934137
681.6540704344043 3436.445831012848
682.6388802115107 3457.070291160174
683.6234414058108 3460.2113740992145
684.6077540932874 3378.731601835448
685.591818349907 3409.6858533399272
686.575634251587 3408.4741447310853
687.5592018742263 3372.8401045757646
688.5425212936734 3389.775922471855
689.5255925857564 3443.6605293575535
690.5084158262707 3356.956270117816
691.4909910909646 3418.065289252325
692.4733184555644 3372.696137236015
693.4553979957618 3308.773535993114
694.4372297872123 3303.9357072040025
695.4188139055404 3334.7612613608226
696.4001504263324 3387.4721968819076
697.3812394251509 3390.395165271451
698.3620809775111 3353.9665428026033
699.3426751589104 3334.9336516091817
700.3230220448004 3326.668368573468
701.3031217106054 3344.4716754488263
702.2829742317172 3412.000071332942
703.2625796834873 3311.6335350713866
704.2419381412474 3344.58346680304
705.22104968028 3341.491132715353
706.1999143758458 3391.306468005832
707.178532303169 3330.4457128618087
708.1569035374378 3371.4624027601494
709.1350281538107 3343.4204647651445
710.1129062274158 3379.18408698706
711.0905378333373 3471.6126673086537
712.0679230466376 3485.402747254713
713.0450619423427 3461.213962762492
714.0219545954424 3529.2472501498364
714.9986010808989 3477.1402598539207
715.9750014736292 3507.5835818461883
716.9511558485392 3551.306528055958
717.9270642804786 3599.0887042440518
718.9027268442787 3608.0411694082914
719.8781436147328 3667.029493420542
720.8533146666014 3611.0104236806196
721.828240074612 3689.552764768422
722.8029199134635 3664.7098441719477
723.7773542578125 3631.364643120487
724.751543182294 3607.525885874392
725.7254867615029 3592.6322911457028
726.6991850700015 3508.870215598701
727.6726381823228 3561.283521157066
728.6458461729599 3536.9247338325863
729.6188091163858 3477.4694374175356
730.5915270870246 3538.6698076676366
731.5640001592856 3466.8913216107276
732.536228407529 3500.5894124029837
733.5082119060917 3440.4563669100075
734.4799507292755 3438.8660740033133
735.4514449513481 3473.7916867438603
736.4226946465496 3444.270281342975
737.3936998890786 3448.491196914446
738.3644607531078 3389.6362410664924
739.3349773127793 3401.846706010525
740.3052496421951 3333.0439043435354
741.27527781543 3343.1036924281334
742.2450619065221 3300.8372949039003
743.2146019894826 3396.8779369253557
744.183898138288 3357.0436110066935
745.1529504268801 3288.0873817493966
746.1217589291682 3321.638272877153
747.0903237190341 3248.8787060600876
748.058644870318 3337.0845406001317
749.0267224568397 3311.1132921638136
749.994556552374 3219.4171011892536
750.9621472306771 3257.679657338908
751.9294945654583 3326.9047912489323
752.8965986304011 3292.2178888380195
753.8634594991636 3264.9189332683145
754.8300772453586 3284.1299253541924
755.7964519425768 3253.0317236839396
756.762583664371 3293.5702048447797
757.7284724842611 3341.090482454051
758.6941184757416 3261.0417842359925
759.6595217122667 3299.703186514324
760.6246822672638 3322.5760858640033
761.5896002141235 3247.961964352163
762.5542756262093 3232.8326993504857
763.5187085768503 3227.3319771980136
764.4828991393406 3270.843942249584
765.4468473869474 3289.0767173128065
766.4105533929032 3271.5301266571405
767.3740172304078 3260.7232333245024
768.3372389726283 3249.962328749228
769.3002186926988 3169.1879738569337
770.2629564637282 3181.0450759819937
771.2254523587872 3209.8058697186448
772.1877064509154 3151.800920975918
773.1497188131179 3210.9252647891885
774.1114895183728 3188.466378971791
775.0730186396268 3152.862066836392
776.0343062497905 3099.9773599230202
776.9953524217381 3125.1775716149637
777.9561572283274 3161.8752967447917
778.9167207423689 3140.8909959750727
779.8770430366476 3168.2872575966944
780.8371241839159 3148.9947783958733
781.7969642568951 3126.9569941212058
782.7565633282757 3232.8401461593176
783.7159214707099 3135.210640229174
784.6750387568281 3145.5030724158
785.6339152592227 3157.440147356342
786.5925510504512 3031.065898441323
787.5509462030477 3066.3707483895537
788.5091007895098 3096.363322052871
789.4670148823006 3161.921060161823
790.4246885538596 3168.382095808457
791.3821218765861 3107.634089183961
792.3393149228505 3089.8656976321704
793.2962677649975 3184.0365749375405
794.2529804753303 3162.218060002143
795.20945312613 3115.696835602656
796.1656857896378 3109.280618188829
797.1216785380675 3091.8366386983644
798.0774314435985 3147.089856810421
799.0329445783846 3128.1422789603994
799.9882180145414 3156.0108541296822
800.9432518241574 3194.3380893965846
801.89804607929 3147.436034160738
802.852600851962 3187.7262754454623
803.8069162141637 3215.361191547262
804.760992237856 3207.226001008281
805.714828994971 3216.011800876646
806.6684265574077 3244.1567146908938
807.6217849970271 3241.3081294234557
808.574904385674 3173.2179187762345
809.527784795142 3170.2219007466147
810.4804262972102 3247.1823257158712
811.4328289636178 3179.953245419537
812.3849928660748 3151.551476112062
813.3369180762638 3208.117063648309
814.2886046658241 3206.4254843849976
815.2400527063783 3199.3975745599696
816.1912622695108 3157.135642212707
817.1422334267718 3135.059232188097
818.0929662496856 3159.729995534426
819.0434608097457 3116.376831887915
819.9937171784059 3128.2079944178054
820.9437354271013 3104.8629127711406
821.8935156272255 3104.1073774959873
822.8430578501484 3079.3818078931554
823.7923621672016 3040.397476003768
824.7414286496896 3080.2492327924683
825.6902573688876 3100.5408098066337
826.6388483960363 3123.1166905533028
827.5872018023492 3100.3154526179196
828.5353176590033 3051.788004463203
829.4831960371503 3082.693362617423
830.4308370079016 3061.9719734719915
831.3782406423525 3007.465238584972
832.3254070115545 3100.488898488804
833.2723361865319 2978.5754799791803
834.2190282382799 3032.1466288988354
835.1654832377644 3082.2381472169136
836.1117012559116 2970.070436382097
837.0576823636256 3107.7478922699206
838.003426631778 3062.1726019116068
838.9489341312074 3007.685657843863
839.8942049327197 3060.051250510943
840.8392391070975 3066.6992999482923
841.7840367250865 3039.1554975907525
842.7285978573982 2992.400076205019
843.672922574724 3012.474266850818
844.6170109477152 3010.953115662324
845.560863046996 2975.4282728421836
846.5044789431595 3092.4409661449677
847.4478587067697 3062.8713549178697
848.3910024083561 3032.01750555978
849.333910118421 3026.2528680154005
850.2765819074339 2958.9160805714496
851.2190178458332 3052.57920736652
852.161218004032 3007.8034550609177
853.1031824524016 3039.611970983938
854.0449112612987 3033.402545558593
854.9864045010327 3015.9511575076813
855.9276622418947 3021.335455581341
856.8686845541379 3071.876846861475
857.8094715079915 3080.2854763051605
858.7500231736467 3099.7796087706192
859.690339621271 3021.054636783534
860.6304209209939 3059.84718925853
861.5702671429244 2978.456828401887
862.5098783571284 3091.4071214090404
863.4492546336569 3048.961926724268
864.3883960425155 3042.7098112242566
865.3273026536863 3020.5602886722254
866.2659745371238 2966.3272937634947
867.2044117627465 3015.3282388080465
868.1426144004472 2978.7254381564494
869.0805825200823 3053.6103601535933
870.0183161914847 3032.2610818630405
870.9558154844526 3085.3944806228633
871.8930804687552 3015.1720641602014
872.8301112141307 3035.371847672736
873.7669077902865 3110.1320142663144
874.7034702669062 3051.491988253234
875.6397987136315 3068.810016216726
876.5758932000863 3060.071401040162
877.5117537958522 3141.3582357816927
878.4473805704911 3134.0897183130533
879.3827735935283 3136.387061745363
880.3179329344603 3103.2558871614374
881.2528586627541 3065.1934747249716
882.1875508478479 3213.5047149330903
883.1220095591489 3155.0224635617096
884.0562348660296 3102.167014526271
884.9902268378391 3122.7483795021126
885.9239855438955 3093.821925099146
886.8575110534839 3062.476706191064
887.7908034358588 3094.3573145144437
888.7238627602474 3122.571183769468
889.6566890958475 3108.2634786152726
890.5892825118208 3077.941065427406
891.5216430773125 2976.8481450535337
892.4537708614189 3024.724727007731
893.3856659332196 3016.503678176872
894.3173283617652 3051.111269961945
895.2487582160684 3099.7513337501628
896.179955565116 2960.5099795052165
897.110920477864 3002.198874579797
898.0416530232451 2994.9752127866186
898.9721532701478 3015.511856090754
899.9024212874428 3015.6818674260116
900.8324571439662 2989.885936868193
901.7622609085302 3044.8989771428455
902.6918326499072 3023.6902611194478
903.6211724368477 3010.8907681704522
904.5502803380696 3026.0743410738387
905.4791564222614 3065.352640705922
906.4078007580792 2934.0004984684833
907.3362134141571 2967.5310551259668
908.2643944590909 3007.888766483579
909.1923439614493 2938.2698703601914
910.1200619897754 2945.8058379836593
911.0475486125779 3017.2178766368834
911.9748038983344 2933.061244426978
912.9018279155007 2988.560892243172
913.8286207324982 2953.705469726822
914.7551824177117 3003.3279290724504
915.6815130395116 2946.804771238126
916.6076126662283 2959.4294578745817
917.533481366163 2972.591956198003
918.4591192075914 2931.285150361187
919.3845262587565 2979.627418868792
920.3097025878706 2970.723710541823
921.2346482631237 2892.174594630219
922.1593633526682 2941.3309275027464
923.0838479246304 2975.686623988664
924.0081020471061 2977.0280217662407
924.9321257881656 2912.1627738075836
925.8559192158464 2924.4974139989026
926.7794823981512 2904.7570573426087
927.7028154030686 2887.7338417729275
928.6259182985414 2921.326004103282
929.5487911524906 2999.0167664330834
930.4714340328119 2910.6536181330166
931.3938470073608 2946.6097097758397
932.3160301439748 2876.821274825916
933.2379835104548 2961.760859304239
934.1597071745709 2896.9596635544644
935.0812012040769 3008.0499575819936
936.002465666681 2910.3512817896844
936.9235006300696 2978.781766066094
937.8443061619055 2970.33211444101
938.7648823298077 2877.631664136465
939.6852292013809 2929.6909828019557
940.6053468441951 2963.6091773366834
941.5252353257874 2903.5880443452975
942.4448947136698 2903.317753947668
943.364325075323 2939.305325202476
944.2835264782043 2849.5135233211286
945.2024989897309 2861.4370131736437
946.1212426773054 2910.46677471545
947.0397576082851 2899.001806615869
947.9580438500125 2907.2704952664744
948.8761014697939 2896.4150564063375
949.7939305349064 3010.920689520665
950.7115311125999 2904.2947713517938
951.6289032700952 2871.373341479736
952.5460470745875 2884.286403010981
953.4629625932339 2885.5001851563843
954.3796498931715 3010.699976041182
955.2961090415029 2895.18037659327
956.2123401053068 2926.9927793620045
957.1283431516276 2993.4730821361973
958.0441182474842 2872.1545905935554
958.9596654598663 2956.5911717771996
959.8749848557309 2868.9229669837964
960.7900765020167 2929.7353113603544
961.7049404656209 2873.6381157885216
962.6195768134185 2936.5919420112778
963.5339856122537 2801.7879493352134
964.4481669289453 2899.4874290171056
965.3621208302793 2893.555735656928
966.2758473830145 2847.9938701625674
967.1893466538822 2886.0543434176484
968.1026187095813 2896.966674518035
969.0156636167867 2892.8566490134135
969.9284814421426 2848.286827695712
970.8410722522622 2783.4056495542295
971.753436113735 2863.7087136387204
972.6655730931161 2862.8577067914985
973.5774832569368 2916.810260358874
974.4891666716958 2867.126706458023
975.4006234038698 2768.4712771261147
976.3118535198955 2816.9605450607
977.2228570861935 2903.3487104780033
978.1336341691494 2895.649937833992
979.0441848351202 2776.1344640830807
979.9545091504333 2822.726583805386
980.864607181391 2862.3885685313835
981.7744789942699 2822.370328895878
982.6841246553086 2857.551208793834
983.5935442307236 2905.816037034369
984.5027377867027 2811.2037347285745
985.4117053894024 2855.653134576022
986.3204471049557 2840.9394900305347
987.2289629994648 2863.2853821754
988.1372531390007 2838.7356850657625
989.0453175896091 2839.6556292864325
989.9531564173067 2857.990872077403
990.860769688079 2816.5922712416213
991.7681574678918 2872.3226772104363
992.6753198226706 2864.719894993786
993.582256818323 2810.9884569240758
994.4889685207218 2859.5598471543785
995.3954549957143 2959.1224869743273
996.301716309119 2936.6999569379796
997.2077525267232 2877.495182760997
998.1135637142943 2948.751105030014
999.0191499375615 2855.462865358104
999.924511262232 2891.4145279710874
1000.8296477539861 2972.543696891436
1001.7345594784656 2882.655696255503
1002.6392465012996 2857.918472891323
1003.5437088880753 2894.2301106269
1004.4479467043584 2969.8812903947055
1005.3519600156869 2836.0811636162807
1006.2557488875718 2857.2936651921214
1007.1593133854858 2857.3823621062807
1008.0626535748888 2908.4663718759075
1008.9657695212009 2854.2463809744354
1009.8686612898182 2909.6217264633306
1010.7713289461135 2860.141829443703
1011.6737725554212 2911.1011016996067
1012.5759921830577 2923.005110500423
1013.4779878943027 2862.94848473645
1014.379759754418 2877.432993750096
1015.2813078286254 2860.605448300635
1016.18263218213 2866.392154079101
1017.0837328801026 2844.052503572904
1017.9846099876886 2850.979248990217
1018.8852635700023 2834.8390738464873
1019.7856936921362 2775.6811157965635
1020.6859004191447 2922.382678608295
1021.5858838160675 2739.0179277923735
1022.4856439479063 2814.8290737733964
1023.3851808796389 2721.955577361253
1024.2844946762143 2781.180838739553
1025.183585402554 2739.350827926016
1026.082453123554 2813.4338564971854
1026.9810979040776 2772.875496668656
1027.8795198089647 2798.361528217927
1028.777718903024 2892.021078473423
1029.6756952510368 2826.32270525389
1030.5734489177648 2789.1786044630144
1031.4709799679313 2783.3147052126865
1032.3682884662358 2815.2135425417205
1033.2653744773506 2746.3869287068596
1034.1622380659192 2792.5838620280974
1035.058879296559 2787.100855914509
1035.9552982338591 2782.0508679215673
1036.8514949423825 2784.225669990109
1037.7474694866614 2740.8302631426623
1038.6432219312028 2766.4388258612335
1039.5387523404825 2775.0407270243863
1040.4340607789582 2729.0054731391538
1041.3291473110476 2727.3824591213697
1042.2240120011465 2651.900109248059
1043.1186549136273 2739.0061392390085
1044.0130761128294 2678.1684545777957
1044.9072756630649 2844.3145409690046
1045.8012536286205 2670.4809456242447
1046.6950100737577 2754.088702734111
1047.588545062701 2806.948965494336
1048.481858659663 2822.489588487767
1049.3749509288118 2807.106246542281
1050.2678219343034 2805.8443456240175
1051.1604717402515 2783.094279601906
1052.0529004107575 2683.576772502799
1052.9451080098825 2779.913576562869
1053.8370946016694 2745.013430458734
1054.7288602501267 2864.8988690238634
1055.6204050192446 2772.9440158132147
1056.511728972977 2858.607664714352
1057.402832175254 2702.720374306734
1058.2937146899785 2721.502557915607
1059.1843765810263 2748.655642209476
1060.0748179122456 2830.9174066045553
1060.9650387474576 2729.745086756694
1061.855039150456 2793.402976864801
1062.7448191850071 2678.099017843976
1063.6343789148505 2768.7969666531494
1064.5237184037014 2808.4363020401706
1065.412837715241 2761.670633378534
1066.3017369131267 2763.889793116248
1067.190416060992 2753.9278471707394
1068.0788752224398 2703.493916420727
1068.9671144610438 2780.0480377586464
1069.8551338403558 2761.9963906283706
1070.7429334239023 2834.3137368549324
1071.6305132751695 2702.7519970039566
1072.517873457633 2804.4297893772427
1073.4050140347335 2732.8443710727215
1074.2919350698776 2726.5798892627495
1075.1786366264623 2715.766234112018
1076.0651187678395 2759.8304692532683
1076.95138155735 2782.624376678852
1077.8374250582929 2693.0781872085345
1078.7232493339507 2724.167690453404
1079.608854447577 2801.7264228015974
1080.4942404623907 2761.780900604237
1081.3794074415982 2671.592843418516
1082.2643554483657 2813.5781841620546
1083.149084545841 2776.598647882826
1084.033594797138 2724.3788657591513
1084.9178862653516 2734.298667019172
1085.8019590135427 2710.9522631427044
1086.6858131047484 2718.4935088696902
1087.5694486019802 2662.496882925366
1088.4528655682225 2687.5766016749567
1089.3360640664287 2734.2275296952384
1090.2190441595321 2681.1098751473332
1091.1018059104317 2724.978686236883
1091.98434938201 2718.136208743869
1092.866674637111 2720.73731684343
1093.748781738559 2687.130297030633
1094.6306707491512 2605.0722221099636
1095.5123417316554 2738.3969677791856
1096.3937947488157 2618.6174003460005
1097.2750298633455 2687.3107129229834
1098.156047137938 2701.7449682049732
1099.0368466352556 2624.145103324253
1099.9174284179317 2692.008768486465
1100.7977925485757 2633.5549479985266
1101.6779390897755 2635.807725762966
1102.5578681040806 2642.056948753291
1103.4375796540226 2695.683093974266
1104.3170738021054 2745.802939318138
1105.1963506108077 2580.473495941922
1106.0754101425773 2627.7017840089356
1106.9542524598382 2692.609271782122
1107.8328776249855 2667.541656980255
1108.7112857003904 2561.0325770687236
1109.5894767483987 2581.111002791104
1110.4674508313292 2571.1163418382584
1111.3452080114657 2531.7760730611344
1112.2227483510815 2599.5211921188256
1113.1000719124077 2690.888142136699
1113.9771787576592 2602.5296806815813
1114.854068949022 2659.1197352364543
1115.7307425486542 2625.261989289544
1116.6071996186893 2511.532744581903
1117.483440221229 2735.471932319204
1118.3594644183577 2650.44675608753
1119.235272272128 2658.3479049988637
1120.1108638445658 2692.3397021773653
1120.9862391976712 2692.583531219084
1121.8613983934229 2793.689838808182
1122.7363414937627 2646.8590671100183
1123.6110685606182 2782.0930885579755
1124.485579655884 2889.3033228565623
1125.359874841426 2807.054706525216
1126.2339541790916 2814.041510902745
1127.1078177306936 2886.303640269245
1127.9814655580267 2827.1994525516093
1128.854897722851 2832.9544807266166
1129.7281142869106 2861.7029095638673
1130.6011153119125 2894.9349907195433
1131.473900859548 2837.598138988248
1132.3464709914697 2837.1760246621734
1133.2188257693178 2846.6365440629943
1134.0909652546961 2860.2492840206373
1134.96288950919 2754.8795171175993
1135.8345985943506 2814.250069864173
1136.7060925717087 2790.7744797026685
1137.57737150277 2717.952305765511
1138.4484354490069 2837.1580116580913
1139.3192844718778 2718.3370962805566
1140.1899186327992 2693.7171664073253
1141.060337993178 2704.655561639508
1141.930542614382 2616.8759134707043
1142.8005325577597 2619.3685932903854
1143.670307884635 2516.9069490107104
1144.5398686563003 2559.036651320086
1145.409214934025 2657.940249314455
1146.2783467790541 2566.2122764582987
1147.1472642526023 2606.092936545095
1148.0159674158622 2590.2292825743443
1148.8844563300026 2616.009504070697
1149.7527310561618 2382.102485095838
1150.6207916554504 2479.7809684152016
1151.4886381889592 2476.669738493868
1152.3562707177498 2509.831511821086
1153.2236893028585 2439.8384204162476
1154.090894005296 2380.655356733342
1154.9578848860474 2372.255761575293
1155.8246620060709 2416.88043370405
1156.6912254262988 2456.851390944127
1157.5575752076438 2493.0373221517216
1158.42371141098 2565.045178691858
1159.2896340971656 2458.3982937059122
1160.1553433270346 2523.4093462433675
1161.0208391613887 2499.110605974275
1161.8861216610057 2473.2272680371084
1162.75119088664 2435.505184102248
1163.6160468990201 2464.959398183711
1164.4806897588442 2424.881344409365
1165.3451195267917 2379.2584549792978
1166.2093362635114 2465.161626286139
1167.0733400296285 2437.138209145455
1167.9371308857444 2358.3499737548527
1168.8007088924278 2442.6412060896223
1169.6640741102328 2414.6957721329013
1170.5272265996773 2445.557976207881
1171.390166421259 2315.6564103923874
1172.252893635452 2533.469158108682
1173.1154083026995 2487.55247677066
1173.977710483421 2491.318529307264
1174.8398002380145 2420.8906384664388
1175.7016776268483 2414.0932400984702
1176.563342710264 2367.142052431375
1177.4247955485826 2419.890558854492
1178.2860362020947 2478.8331762895386
1179.147064731069 2383.6113953874087
1180.0078811957483 2354.196061777343
1180.8684856563486 2402.0931198963676
1181.7288781730604 2408.1585995059277
1182.589058806052 2350.07877509399
1183.4490276154593 2472.5608394219657
1184.3087846614017 2461.1767263100837
1185.1683300039676 2425.3104911752107
1186.027663703222 2485.654274277629
1186.8867858192025 2455.8516609460703
1187.7456964119228 2487.7246949164874
1188.6043955413716 2486.62522422788
1189.4628832675116 2444.531322899318
1190.3211596502842 2483.9261821520154
1191.179224749596 2513.557625680261
1192.0370786253388 2477.15527743467
1192.8947213373758 2505.805398873896
1193.7521529455407 2572.385169843748
1194.6093735096438 2453.663241773463
1195.466383089477 2608.216214298801
1196.3231817447977 2475.0331419664562
1197.1797695353398 2602.214924266021
1198.0361465208189 2472.0728293531583
1198.8923127609214 2557.9309142840466
1199.7482683153048 2580.1542142239286
1200.6040132436028 2494.727817248756
1201.459547605431 2437.422879624572
1202.3148714603722 2563.0042376089077
1203.1699848679855 2546.2316147885317
1204.0248878878065 2587.927373684725
1204.8795805793507 2396.9712666120568
1205.7340630020935 2502.6011839864286
1206.5883352155033 2507.0982132213867
1207.4423972790064 2416.1418801701366
1208.2962492520237 2455.21751159647
1209.1498911939307 2514.1504000968494
1210.0033231640937 2497.5850284240414
1210.8565452218427 2502.0975583685895
1211.7095574264913 2433.007108248664
1212.5623598373222 2369.1750250975024
1213.4149525135963 2321.300354311411
1214.2673355145507 2356.1486342654916
1215.1195088993936 2380.2385224618456
1215.9714727273113 2309.63777822529
1216.8232270574663 2483.15948257933
1217.6747719489904 2251.076750011419
1218.5261074609934 2449.0452807379047
1219.3772336525653 2377.1859321138754
1220.2281505827668 2402.0371186277507
1221.0788583106296 2356.537846812971
1221.9293568951707 2421.4625891994424
1222.7796463953746 2330.630615672954
1223.629726870202 2428.92200637738
1224.4795983785934 2406.092658319818
1225.3292609794553 2347.875263492918
1226.1787147316809 2315.784067858693
1227.0279596941327 2190.3197883528746
1227.8769959256424 2309.4666211199337
1228.7258234850306 2352.647901047682
1229.5744424310833 2276.253702306201
1230.422852822563 2451.631828196397
1231.2710547182105 2361.2916085327447
1232.119048176739 2365.0092317409703
1232.9668332568417 2271.738417976746
1233.8144100171812 2280.5563861847763
1234.6617785163999 2450.946019284315
1235.508938813111 2257.5234667087457
1236.3558909659114 2216.4570131085297
1237.2026350333617 2359.3235697546775
1238.049171074008 2304.5764200720273
1238.8954991463652 2269.4510807399483
1239.741619308932 2244.690660199098
1240.587531620169 2214.5864594477607
1241.4332361385277 2321.6175009534277
1242.2787329224248 2285.372652297666
1243.1240220302534 2225.9964429060956
1243.9691035203869 2108.7339857328952
1244.813977451171 2252.154504130651
1245.6586438809263 2367.2697149081523
1246.5031028679496 2198.911711429741
1247.3473544705157 2242.2069215460315
1248.1913987468706 2303.598869193778
1249.0352357552383 2202.312119722195
1249.8788655538228 2174.6105357986658
1250.7222882007918 2347.9864611938515
1251.565503754302 2225.427807467074
1252.4085122724755 2145.0290435841735
1253.2513138134182 2309.657129271498
1254.0939084352049 2322.4425139322007
1254.9362961958905 2226.009480553794
1255.7784771535007 2278.587148549902
1256.6204513660432 2327.176683109412
1257.4622188915 2321.8982599735978
1258.3037797878242 2255.4635272025307
1259.1451341129468 2302.7699524647605
1259.9862819247755 2286.0688163757486
1260.8272232811978 2285.3839509289896
1261.6679582400666 2271.046600012333
1262.5084868592203 2256.2765630559916
1263.34880919647 2246.276786353513
1264.1889253095997 2320.7006061106194
1265.0288352563712 2265.2434808506246
1265.8685390945266 2335.5776154461773
1266.7080368817751 2299.890593531286
1267.5473286758115 2308.837912234675
1268.386414534294 2333.9761446359526
1269.2252945148703 2103.1647521185864
1270.0639686751547 2340.9307928902135
1270.9024370727402 2213.091154025164
1271.7406997651997 2257.103706260913
1272.5787568100714 2226.413072589146
1273.4166082648808 2266.7875485766044
1274.2542541871244 2170.082850442343
1275.091694634275 2268.663984989408
1275.9289296637817 2143.524018831805
1276.7659593330663 2316.8774682944922
1277.6027836995308 2177.6747202681768
1278.4394028205552 2303.7415318575922
1279.2758167534867 2276.4150288490805
1280.112025555658 2296.9802848600734
1280.9480292843746 2201.5652150395144
1281.7838279969128 2206.987077334111
1282.6194217505326 2306.2484233715522
1283.4548106024686 2172.595660315626
1284.289994609926 2221.8511708508745
1285.1249738300921 2299.0138838753173
1285.959748320127 2183.5973599283525
1286.7943181371702 2138.3368357841405
1287.6286833383328 2185.431349229653
1288.4628439807038 2236.548634045893
1289.2968001213521 2054.0672946935483
1290.1305518173194 2123.767211675011
1290.9640991256183 2116.0109100354525
1291.7974421032523 2287.552872925042
1292.630580807183 2156.915423650384
1293.463515294361 2152.029916654398
1294.29624562171 2202.7976893759087
1295.12877184613 2143.1812790104964
1295.961094024493 2081.968632632382
1296.79321221365 2173.314191094215
1297.6251264704333 2286.0937322922846
1298.4568368516466 2314.9252901910563
1299.2883434140658 2318.5516499333908
1300.1196462144526 2194.243387759201
1300.9507453095375 2112.9062671905244
1301.7816407560313 2162.10505164448
1302.6123326106172 2292.9711928022803
1303.4428209299622 2155.776654994886
1304.2731057707024 2197.1999143456487
1305.1031871894502 2116.991961253653
1305.933065242798 2220.8226845326544
1306.7627399873181 2192.3948985648826
1307.5922114795467 2319.919195366372
1308.4214797760123 2265.913177524132
1309.2505449332057 2208.745684080891
1310.0794070076026 2216.6117638655114
1310.9080660556538 2237.4766010409935
1311.736522133786 2260.820832183633
1312.5647752983987 2178.091190502992
1313.3928256058734 2194.784168194644
1314.2206731125661 2184.294769029158
1315.048317874809 2223.1393404525434
1315.8757599489109 2260.031676745243
1316.7029993911547 2247.5481527060456
1317.5300362578055 2335.520894216218
1318.356870605101 2228.6507620721522
1319.183502489257 2308.7155311434235
1320.0099319664623 2249.808520484535
1320.836159092889 2228.344185445671
1321.66218392468 2283.9431010756566
1322.4880065179532 2140.87056859188
1323.3136269288134 2297.6557768076736
1324.1390452133292 2208.3152597081753
1324.9642614275563 2367.568844682887
1325.7892756275214 2362.161452864353
1326.6140878692295 2166.11911257667
1327.4386982086617 2353.737362449185
1328.2631067017755 2250.607936253157
1329.0873134045069 2215.6625647747287
1329.911318372764 2304.280113882819
1330.735121662441 2160.095049461467
1331.558723329399 2179.459102602016
1332.3821234294774 2148.041869264021
1333.2053220185007 2253.4154292094095
1334.0283191522612 2197.30763993279
1334.851114886529 2259.7048868281245
1335.6737092770582 2170.1863841214004
1336.4961023795695 2241.45500035992
1337.3182942497697 2226.4875848375527
1338.1402849433325 2187.3747350117314
1338.962074515921 2211.6137030119817
1339.7836630231632 2083.39097728436
1340.6050505206676 2316.0430324740837
1341.426237064028 2241.960512415514
1342.2472227088037 2202.380505323239
1343.0680075105338 2151.3668650298287
1343.888591524741 2180.97730274699
1344.7089748069138 2232.891383239024
1345.5291574125276 2238.246751101245
1346.3491393970307 2085.4423119110747
1347.168920815846 2207.9642482819036
1347.9885017243778 2124.469952409484
1348.8078821780036 2264.8366798264688
1349.6270622320844 2256.1006126271586
1350.4460419419447 1976.1393671448939
1351.2648213629054 2218.198055769283
1352.0834005502438 2122.8265348265286
1352.90177955923 2107.669154649634
1353.7199584451064 2271.0512513206127
1354.5379372630887 2138.0016392990865
1355.355716068374 2218.64518273942
1356.1732949161305 2103.2731518017
1356.9906738615155 2096.7079916339117
1357.8078529596478 2072.381671091153
1358.6248322656375 2215.974391755005
1359.441611834567 2081.0334357925794
1360.2581917214866 2171.3946812699837
1361.0745719814367 2134.0828247243676
1361.890752669433 2150.4201736403647
1362.7067338404577 2108.75769708148
1363.5225155494845 2114.461026449493
1364.3380978514506 2105.8470999563456
1365.1534808012839 2051.154917881096
1365.9686644538815 1922.7553117949174
1366.783648864117 2068.954897070341
1367.5984340868417 2081.7670784086954
1368.413020176893 2167.207036239835
1369.2274071890715 2043.0110622053169
1370.0415951781652 2218.694456223698
1370.8555841989346 2100.026500352965
1371.6693743061223 2056.1187199781875
1372.48296555444 2023.2635462559695
1373.2963579985844 2157.0055850558597
1374.1095516932255 2085.2105837198187
1374.9225466930166 1968.0175301681077
1375.7353430525782 2153.6886182380445
1376.5479408265164 2009.7547384705535
1377.36034006941 2010.9295848997385
1378.1725408358216 2020.1372118871463
1378.9845431802805 1959.3214720766887
1379.796347157304 2027.3659790456363
1380.6079528213813 2024.2938163630183
1381.4193602269788 2059.2429879893025
1382.230569428546 2073.3258526005457
1383.0415804805016 2086.352063847874
1383.852393437246 2118.164455663508
1384.6630083531563 2021.1631705592324
1385.4734252825892 2055.646738050199
1386.2836442798798 2082.0863781289218
1387.0936653993322 1862.2019816535526
1387.9034886952395 2099.42681345073
1388.713114221864 2043.9758213933674
1389.5225420334482 1915.1774838278063
1390.331772184214 1938.1868302735602
1391.1408047283585 1995.1555725125465
1391.9496397200564 1940.4873390745943
1392.758277213461 2029.8231522084807
1393.5667172627054 1934.032747394681
1394.3749599218918 2061.172365557936
1395.1830052451114 1899.8710023956846
1395.9908532864265 1906.506577915145
1396.7985040998774 1996.3873387093201
1397.6059577394808 2001.9591387263354
1398.4132142592352 2032.4364571563553
1399.2202737131156 1932.0008229033476
1400.027136155073 1973.4355318600788
1400.8338016390353 2035.0840525724536
1401.6402702189134 1977.186822242597
1402.446541948586 1937.325134308631
1403.2526168819204 1987.7299836288705
1404.058495072757 1935.1780865661408
1404.8641765749107 1983.2774729044154
1405.6696614421799 2107.2180160131306
1406.4749497283356 2029.225056219375
1407.280041487129 2018.6825311755463
1408.084936772295 1903.2171143632545
1408.8896356375335 2004.4560281587824
1409.6941381365323 1967.9951592022321
1410.498444322955 1948.9906563272343
1411.3025542504402 2096.58734051678
1412.106467972606 1947.7350199944417
1412.9101855430508 1849.1611949699686
1413.7137070153458 1894.985048897251
1414.5170324430437 1979.419507374235
1415.320161879672 2044.7172449473346
1416.1230953787435 2010.2997794406917
1416.925832993742 1927.7354796011507
1417.7283747781275 1920.0484562790712
1418.5307207853439 1833.2474528224727
1419.3328710688093 1902.2871181265625
1420.134825681922 1928.840054091829
1420.9365846780584 2019.8026641011297
1421.7381481105713 1892.4808152313628
1422.539516032788 1983.254471379966
1423.3406884980232 1871.4179625362187
1424.1416655595604 1781.6617094341989
1424.942447270665 1731.2834808342602
1425.7430336845828 1906.665970939564
1426.5434248545298 1797.6402166008993
1427.3436208337116 1977.3145332515317
1428.143621675301 1949.7468311209054
1428.9434274324558 2045.3286067652734
1429.7430381583108 1813.0931472988843
1430.5424539059713 1948.596959697609
1431.3416747285337 1998.4423627109943
1432.1407006790632 1912.8457008476412
1432.9395318106053 1852.9675871596023
1433.7381681761835 1828.4564231110885
1434.5366098288014 1953.387149706506
1435.3348568214424 1843.5207617110184
1436.1329092070573 1956.1566213345127
1436.9307670385879 1792.7725984466065
1437.7284303689503 1965.5745031390402
1438.5258992510335 1957.268360562913
1439.3231737377118 1967.1732509731828
1440.1202538818306 1887.9601166475209
1440.9171397362225 1814.3471717989473
1441.7138313536925 1634.1403479151954
1442.5103287870243 1793.353852312414
1443.3066320889775 1843.9156601449588
1444.1027413122956 1901.4184990311073
1444.8986565096966 1876.6165711458646
1445.694377733882 1879.1660535239346
1446.4899050375207 1785.325499798204
1447.2852384732687 1835.7923078646177
1448.0803780937622 1790.3518560380194
1448.8753239516063 1822.9164946655014
1449.6700760993954 1742.7145375431876
1450.464634589689 1839.0655758267749
1451.2589994750397 1808.7754138547875
1452.0531708079689 1864.8905531994446
1452.8471486409799 1772.2041518237202
1453.6409330265524 1834.6786646965306
1454.4345240171442 1704.2396014212718
1455.2279216651987 1806.6242180846941
1456.0211260231263 1983.2253057050752
1456.8141371433194 1819.6338608183348
1457.6069550781594 1729.4165713514526
1458.3995798799897 1739.9896648086208
1459.1920116011424 1819.071425642381
1459.98425029393 1754.8219691092127
1460.7762960106338 1820.6434749713685
1461.5681488035225 1834.1855482484268
1462.3598087248392 1870.9841944648692
1463.1512758268036 1813.4444304539902
1463.942550161617 1662.5477238828978
1464.7336317814625 1779.717781961232
1465.524520738496 1876.6187489211036
1466.3152170848552 1773.3415178332507
1467.1057208726506 1787.964185222449
1467.8960321539817 1755.2101919441807
1468.6861509809169 1770.9176932759085
1469.4760774055085 1732.111745686553
1470.265811479785 1656.8526590111567
1471.055353255755 1594.920937959441
1471.844702785409 1663.6324822515846
1472.6338601207044 1674.3350243524692
1473.4228253135934 1786.0311470507272
1474.2115984159936 1744.698042354326
1475.0001794798063 1590.0547110035322
1475.7885685569145 1642.255178369965
1476.576765699172 1677.5476130344136
1477.3647709584238 1666.4147501818788
1478.1525843864802 1675.8622556267412
1478.9402060351367 1741.2630931969584
1479.7276359561693 1683.3571983635425
1480.514874201328 1748.6505340611118
1481.3019208223468 1729.4784678844524
1482.0887758709323 1495.7645477364592
1482.8754393987747 1655.4974637251585
1483.6619114575406 1616.6874977681416
1484.4481920988783 1650.656644734255
1485.2342813744108 1729.1155819194705
1486.0201793357446 1652.5090356855058
1486.8058860344572 1747.1671311968953
1487.591401522117 1686.5915062108288
1488.3767258502594 1624.1921441314469
1489.1618590704056 1602.7081616777289
1489.9468012340494 1503.9461212296776
1490.7315523926754 1568.5840414465897
1491.5161125977356 1648.759315848775
1492.3004819006637 1654.5694626243483
1493.084660352877 1659.1587444261525
1493.8686480057622 1692.3439405281345
1494.6524449106964 1767.9017786994132
1495.4360511190262 1647.7533723279896
1496.219466682087 1686.3316449910399
1497.0026916511779 1739.2919911972429
1497.7857260775945 1641.6355879664557
1498.5685700125996 1593.5188054732591
1499.3512235074395 1662.6804422216985
1500.133686613337 1607.3506598193553
1500.9159593814966 1622.7059463528924
1501.698041863101 1728.0830487650019
1502.4799341093094 1590.6342527634592
1503.2616361712662 1517.3306823072196
1504.043148100087 1722.8914449461627
1504.8244699468742 1699.1036956834882
1505.6056017626997 1644.6745729667557
1506.3865435986281 1567.3319217591327
1507.1672955056893 1544.8038405136795
1507.9478575348967 1495.0882424867473
1508.7282297372512 1789.8730204100314
1509.5084121637192 1697.8896039291008
1510.2884048652577 1626.8277024153138
1511.0682078927948 1569.4246666805798
1511.8478212972423 1732.6166787232419
1512.6272451294917 1645.6938454973047
1513.4064794404076 1597.3710964525746
1514.1855242808433 1578.0377760374065
1514.9643797016215 1678.98331691875
1515.743045753552 1663.2077149808833
1516.5215224874191 1563.4855774337827
1517.2998099539836 1498.4486289583888
1518.077908203999 1650.8897032428008
1518.8558172881785 1556.2022999403098
1519.633537257234 1717.634602861714
1520.4110681618404 1509.5625080469304
1521.1884100526604 1742.2021264392818
1521.9655629803365 1648.22912888518
1522.7425269954856 1619.5617427194888
1523.5193021487103 1729.1855410221062
1524.2958884905856 1590.8185285442844
1525.0722860716687 1599.357708968564
1525.848494942502 1667.3985389596885
1526.624515153595 1552.534876466175
1527.4003467554485 1639.6407074387566
1528.175989798534 1774.2008669859824
1528.9514443333064 1590.8333138598223
1529.726710410203 1681.794386130375
1530.5017880796331 1581.2562291210468
1531.276677391992 1670.4358441607117
1532.0513783976457 1675.1843601929716
1532.825891146953 1516.9402115714959
1533.6002156902414 1603.0522307596736
1534.3743520778207 1492.7345251464965
1535.1483003599806 1730.4120418792693
1535.9220605869923 1533.4725540025297
1536.6956328091019 1739.3844884284765
1537.4690170765407 1531.830724803371
1538.242213439511 1651.4263448416673
1539.015221948208 1670.1425308136108
1539.78804265279 1568.4517227807726
1540.560675603405 1469.6963779657663
1541.3331208501804 1792.4771495723344
1542.1053784432224 1730.9451780940349
1542.8774484326168 1663.624418345924
1543.649330868422 1677.182863104114
1544.4210258006842 1623.371310958562
1545.1925332794308 1763.6486501021104
1545.9638533546604 1749.9386091701185
1546.7349860763552 1533.7934284223861
1547.5059314944829 1769.1414908879492
1548.27668965898 1661.82472798773
1549.0472606197673 1552.4716724095283
1549.817644426752 1643.7073330987707
1550.5878411298072 1610.1126491507398
1551.3578507787988 1575.1581341904273
1552.1276734235635 1617.5188607688347
1552.8973091139233 1684.5160337975274
1553.6667578996767 1708.772729792849
1554.436019830604 1832.765526214019
1555.20509495646 1711.2659332692
1555.9739833269869 1603.381886266829
1556.7426849919011 1548.3580831231345
1557.511200000903 1683.6865342504043
1558.2795284036674 1573.3002634894008
1559.0476702498509 1602.7962910561453
1559.8156255890954 1692.5784884441316
1560.5833944710157 1582.6083345525542
1561.3509769452048 1595.1739576857253
1562.1183730612447 1618.7036145669283
1562.8855828686865 1513.9030758382414
1563.6526064170703 1654.8404859418356
1564.4194437559127 1733.0514293617714
1565.1860949347047 1611.7348024044845
1565.9525600029283 1732.2865706719508
1566.7188390100328 1773.1112352669975
1567.4849320054564 1737.116525539856
1568.250839038612 1654.8092143799815
1569.0165601588997 1582.5075620294092
1569.7820954156887 1671.7274024288981
1570.5474448583373 1726.3085895783217
1571.31260853618 1715.9864958834344
1572.0775864985299 1508.7959542561018
1572.8423787946813 1656.0202156737312
1573.6069854739108 1589.6638612913773
1574.371406585471 1725.7808799758343
1575.1356421785986 1792.610848523719
1575.899692302506 1682.7474315051677
1576.6635570063845 1739.057109727908
1577.4272363394157 1633.7451522338422
1578.190730350747 1555.4956429641047
1578.9540390895163 1710.8364915496709
1579.7171626048384 1455.5843931276
1580.480100945806 1694.348768011458
1581.2428541614918 1533.9521887566953
1582.0054223009538 1449.3408712346059
1582.767805413223 1635.362077887708
1583.5300035473156 1624.158708893185
1584.292016752228 1610.8402422044794
1585.0538450769309 1705.3723074523264
1585.8154885703807 1659.8899249015114
1586.5769472815136 1548.1967656101501
1587.3382212592405 1647.444859438304
1588.099310552463 1624.8660887111828
1588.8602152100484 1554.3806333577709
1589.6209352808564 1764.2178112140246
1590.3814708137234 1626.7315399147155
1591.14182185746 1614.6516756505075
1591.9019884608679 1745.3261446853135
1592.6619706727215 1556.8296789430246
1593.4217685417734 1611.84120894057
1594.1813821167616 1673.4949509110897
1594.9408114464022 1697.6085667531909
1595.7000565793933 1721.746361997622
1596.459117564409 1680.533758374242
1597.2179944501113 1491.9169915168907
1597.9766872851324 1509.4275197152606
1598.735196118092 1654.0817920820168
1599.4935209975883 1706.3217461600645
1600.2516619721973 1592.3814534102235
1601.0096190904787 1564.5587725306252
1601.7673924009723 1745.1984574173177
1602.524981952196 1410.4804684716587
1603.2823877926476 1667.725472742823
1604.0396099708087 1583.18243321276
1604.7966485351371 1388.5159536094088
1605.5535035340745 1619.429631958961
1606.3101750160404 1617.1415507618203
1607.0666630294363 1640.836911022985
1607.822967622642 1548.3218445632936
1608.5790888440224 1376.807430032306
1609.3350267419137 1564.7086003914947
1610.0907813646445 1641.6789857727977
1610.8463527605145 1608.883162972352
1611.601740977805 1602.7588536674034
1612.356946064785 1641.4389571036004
1613.1119680696902 1495.2832318894257
1613.8668070407512 1572.8204512853933
1614.6214630261748 1423.2342332344629
1615.375936074137 1699.952515421171
1616.1302262328118 1618.0300766060293
1616.8843335503425 1533.324672529725
1617.638258074854 1537.766672363056
1618.391999854457 1575.734836084512
1619.1455589372363 1777.55932898215
1619.8989353712623 1640.4282491654128
1620.65212920458 1618.2498574384167
1621.4051404852235 1596.2627485749458
1622.1579692611976 1573.8078201133162
1622.9106155804966 1564.9997112953656
1623.663079491087 1542.1921515935508
1624.4153610409248 1603.750993718298
1625.1674602779385 1591.9357562591658
1625.9193772500403 1588.8099227157295
1626.6711120051277 1642.3601785606272
1627.4226645910676 1557.670795847318
1628.174035055721 1564.1327919958405
1628.9252234469168 1706.7115883933225
1629.676229812474 1592.966635274151
1630.4270542001905 1786.5119991230665
1631.1776966578382 1602.8083354909547
1631.9281572331747 1522.2600734354075
1632.678435973945 1570.884778236785
1633.4285329278573 1629.855909661138
1634.1784481426203 1609.9753946026499
1634.9281816659113 1607.0983636032447
1635.677733545388 1589.8838116849188
1636.4271038286934 1558.3116860397306
1637.176292563452 1547.2120110751725
1637.9252997972635 1481.4896818969974
1638.674125577716 1789.9391785024472
1639.4227699523672 1718.3680901281161
1640.171232968767 1542.5649931518813
1640.9195146744423 1649.8021094939086
1641.6676151168977 1738.0008559458383
1642.4155343436178 1592.5410009305588
1643.1632724020765 1647.5869242414828
1643.9108293397167 1728.707386158192
1644.658205203974 1646.4486782840838
1645.4054000422566 1811.4069765977408
1646.1524139019566 1585.3178752203073
1646.8992468304423 1623.8952321741292
1647.6458988750728 1699.748224873524
1648.3923700831765 1665.9045146760309
1649.1386605020743 1625.218422542304
1649.8847701790564 1756.0384344962235
1650.6306991614038 1569.022171598182
1651.3764474963682 1541.0879029790271
1652.1220152311944 1529.8601431057104
1652.867402413096 1787.016040047638
1653.6126090892776 1509.68708258956
1654.3576353069184 1652.1071453648196
1655.1024811131829 1685.6859042630617
1655.8471465552066 1759.0603851825304
1656.5916316801213 1792.9619812719307
1657.3359365350298 1794.9664716832315
1658.0800611670165 1619.7400306460243
1658.824005623148 1677.0229460442101
1659.5677699504722 1647.0269784655625
1660.3113541960192 1802.779509810087
1661.054758406799 1715.3681773287092
1661.7979826297997 1470.9284209893435
1662.5410269119966 1519.2944314613237
1663.283891300338 1531.7651728386945
1664.0265758417645 1527.2512970057064
1664.7690805831826 1666.0298557006258
1665.5114055714948 1698.9449541937902
1666.2535508535748 1635.5407608941578
1666.9955164762814 1410.3488001290577
1667.7373024864555 1469.7048861841693
1668.478908930916 1482.1993782973427
1669.220335856462 1319.9024645068453
1669.9615833098778 1586.5449018050588
1670.7026513379296 1579.0131248262253
1671.44353998736 1549.4258816938216
1672.1842493048916 1274.2132810670605
1672.9247793372379 1578.7161586001312
1673.6651301310812 1576.476079813197
1674.4053017330934 1439.4619782744544
1675.1452941899242 1440.90282362366
1675.885107548207 1227.813528777526
1676.6247418545518 1362.9794512464005
1677.3641971555535 1341.4111637773456
1678.1034734977893 1460.325109651901
1678.8425709278108 1475.9481083787746
1679.5814894921605 1502.2666947927305
1680.320229237359 1435.761937505954
1681.0587902098978 1392.1167857965077
1681.7971724562685 1528.3854562411566
1682.5353760229264 1452.9604797406237
1683.2734009563173 1282.9891810691431
1684.0112473028657 1328.509070097584
1684.7489151089794 1369.0597022936638
1685.4864044210462 1548.3900178969168
1686.2237152854377 1305.167115702808
1686.960847748498 1366.9334010585221
1687.6978018565642 1504.1680877573779
1688.434577655944 1278.6651966240966
1689.1711751929379 1474.9277991271915
1689.9075945138156 1299.1556409047048
1690.6438356648396 1247.6704467625946
1691.3798986922448 1196.059427522127
1692.1157836422499 1393.6101898624613
1692.851490561059 1291.988062563339
1693.587019494853 1476.6027392927094
1694.3223704897991 1252.8654142324285
1695.0575435920364 1275.4683988026727
1695.792538847696 1240.3420444665746
1696.527356302886 1390.7137515667123
1697.2619960036936 1182.3259041021572
1697.9964579961907 1286.0130843553466
1698.730742326432 1127.1665919949621
1699.4648490404488 1212.6829293621367
1700.1987781842563 1466.7812364211372
1700.9325298038548 1398.001174014596
1701.6661039452174 1429.6313197541608
1702.3995006543082 1255.1576397235183
1703.1327199770658 1426.3444619712159
1703.865761959416 1123.1663070559591
1704.598626647261 1298.3082223412216
1705.3313140864866 1415.6591187273993
1706.0638243229587 1158.3346663092864
1706.7961574025303 1340.7142302615644
1707.528313371029 1283.5882135131396
1708.260292274268 1122.9253197468502
1708.9920941580403 1300.4235273076602
1709.7237190681226 1376.0251789870795
1710.4551670502697 1394.648899324272
1711.18643815022 1346.9543980478988
1711.9175324136959 1299.181211883752
1712.6484498863938 1199.1197087809987
1713.379190614005 1087.1318840192039
1714.109754642188 1324.6981859836578
1714.8401420165883 1281.9110696158602
1715.570352782839 1262.1896703669508
1716.3003869865497 1320.6259738946294
1717.0302446733076 1297.2552735485608
1717.7599258886876 1206.7255708427613
1718.4894306782444 1333.1563841664927
1719.2187590875183 1226.76145607228
1719.9479111620203 1335.4448254068961
1720.6768869472544 1264.009753503616
1721.4056864887025 1283.0636363240778
1722.1343098318284 1172.5107046699636
1722.8627570220742 1218.535387187794
1723.591028104871 1217.3317518563767
1724.3191231256242 1123.673314881888
1725.0470421297232 1173.416778713214
1725.7747851625427 1287.859581266574
1726.5023522694337 1326.3045787824626
1727.2297434957363 1306.6933770168068
1727.9569588867635 1215.7729230875666
1728.6839984878152 1124.7575262923995
1729.4108623441734 1045.3925253558225
1730.1375505011038 1175.1621499726682
1730.8640630038426 1162.4695137330268
1731.5903998976264 1148.4095739822008
1732.316561227657 1179.1355348789252
1733.0425470391274 1149.4105446709705
1733.7683573772065 1093.8767983393795
1734.4939922870508 1215.2344918184226
1735.2194518137949 1306.4209831326766
1735.9447360025606 1164.7329204479913
1736.669844898439 1132.4183869164608
1737.3947785465189 1178.5421927168672
1738.1195369918605 1050.5232076994912
1738.8441202795093 1089.5869413408377
1739.5685284544943 1161.5151462667425
1740.292761561821 1282.4560901985174
1741.0168196464838 1239.5964937940228
1741.7407027534518 1191.2946346653803
1742.464410927687 1096.9340217262886
1743.187944214118 1212.719855072381
1743.9113026576688 1075.3497321812767
1744.634486303241 1144.5449118836582
1745.3574951957125 1223.9264782051882
1746.0803293799509 1221.9373024722609
1746.8029889008048 1105.9877880374786
1747.5254738031017 1036.1271232400682
1748.2477841316504 1049.5157298132413
1748.969919931249 1161.8440868131606
1749.6918812466665 1223.341909735353
1750.4136681226646 1284.968635493432
1751.1352806039777 1156.844319150531
1751.856718735331 1168.9246889716164
1752.5779825614281 1073.8846966376564
1753.2990721269507 1053.3218533187178
1754.0199874765676 1032.723751238498
1754.7407286549314 983.2243393415505
1755.4612957066693 1159.822400135419
1756.1816886763954 1067.2443564039345
1756.9019076087097 1126.7946765027182
1757.6219525481865 1226.2026866873798
1758.3418235393856 1034.4280138251002
1759.061520626854 1005.2302484857086
1759.7810438551096 1125.5893786554539
1760.5003932686614 1115.9053602753854
1761.2195689119999 1210.5195697851123
1761.938570829594 1147.5575594932648
1762.657399065898 1018.6537513733667
1763.376053665348 1125.3302913007751
1764.0945346723602 1137.9067927843907
1764.812842131334 1103.3866494546978
1765.5309760866512 946.0583381270495
1766.2489365826787 1018.626719504459
1766.9667236637597 1091.378989651746
1767.684337374223 1092.4671521798678
1768.401777758383 939.4682288374282
1769.1190448605284 1120.8908955463571
1769.836138724937 1176.0010315754732
1770.5530593958665 1147.9910266362613
1771.2698069175603 1312.0543656414688
1771.9863813342326 1134.682672022062
1772.702782690094 1045.1890940073574
1773.4190110293293 1177.6618126454205
1774.1350663961111 1155.6264027185202
1774.8509488345844 964.2975784977716
1775.5666583888924 1186.2096855106895
1776.2821951031437 1142.2998471516955
1776.9975590214362 1068.7183549767353
1777.7127501878585 1111.8714833794506
1778.4277686464684 1101.47635501969
1779.1426144413108 1069.4929184121665
1779.8572876164162 1116.1269319756798
1780.571788215797 1159.7025819644577
1781.2861162834415 1167.2541876608861
1782.0002718633277 1061.4332404340098
1782.7142549994132 1168.76996293179
1783.4280657356376 1095.7406904333948
1784.141704115922 1161.2563883078378
1784.855170184177 1033.0410889484376
1785.5684639842839 1037.8663908832054
1786.2815855601148 1057.2095070626588
1786.9945349555237 1128.355861892023
1787.707312214343 898.432171823731
1788.4199173803918 1038.5520480845419
1789.132350497468 893.4919118157183
1789.8446116093583 1120.0959100853838
1790.556700759822 1084.7182029626679
1791.2686179926077 1121.7260726622433
1791.9803633514493 1117.291461406869
1792.6919368800554 900.7973592660862
1793.4033386221236 1109.1593722853547
1794.1145686213295 1027.8061028551551
1794.8256269213307 1229.3460101556261
1795.536513565774 1283.0535186411842
1796.247228598284 970.3819065254863
1796.9577720624693 977.1349640991648
1797.6681440019165 1027.4317860674141
1798.3783444602013 1039.1465431007878
1799.0883734808776 1081.2982367448283
1799.7982311074884 1033.6603907607562
1800.5079173835475 1088.9532490229594
1801.2174323525633 1088.1499965967348
1801.9267760580187 1152.5256421675865
1802.635948543386 1151.6499487627543
1803.3449498521113 949.788405600123
1804.0537800276325 1037.2594026913457
1804.7624391133668 981.5978827266821
1805.47092715271 925.8775484445223
1806.1792441890484 1060.7821449594187
1806.8873902657433 1093.8559565559085
1807.5953654261448 1087.1549406537174
1808.3031697135812 975.7838392378881
1809.0108031713662 1006.8278721491463
1809.71826584279 1037.89334457147
1810.425557771141 878.7395720539689
1811.1326789996747 884.6855102598238
1811.839629571632 890.5898661675092
1812.5464095302468 1075.3159034501568
1813.2530189187182 1125.8581759359945
1813.959457780249 1153.0441900352778
1814.6657261580076 1180.2387357878465
1815.371824095153 1066.2988792795604
1816.0777516348262 1085.153377770489
1816.78350882015 900.8961280176048
1817.4890956942272 1107.125100952519
1818.1945123001533 1038.2569193617692
1818.8997586809928 1051.3970927269008
1819.6048348798067 1033.5543244851797
1820.3097409396287 977.1099361577235
1821.0144769034796 986.8316598424299
1821.7190428143622 877.3556236671224
1822.423438715261 1032.1642319430925
1823.1276646491478 1029.156503272466
1823.8317206589727 1136.134649297383
1824.5356067876692 1108.695961414514
1825.2393230781581 919.0211126283893
1825.942869573335 956.2037183842924
1826.646246316086 974.0651645272052
1827.3494533492758 868.3237866052214
1828.052490715756 900.4959607414916
1828.7553584583547 922.1890494898846
1829.458056619891 943.9209064084458
1830.1605852431585 995.5884476229952
1830.8629443709433 928.5843334804174
1831.5651340460063 1053.6763961893607
1832.2671543110919 1078.6269943062127
1832.9690052089318 1151.7434643038928
1833.6706867822395 973.5374139878206
1834.3721990737104 1035.0370930302652
1835.0735421260233 859.2516634532014
1835.774715981841 1017.5020243980792
1836.4757206838058 1171.2520212423574
1837.1765562745459 940.5471092107139
1837.8772227966747 1040.8435149326388
1838.5777202927839 1068.580000741221
1839.2780488054523 993.3926058648125
1839.9782083772352 1009.5655304185135
1840.6781990506806 1164.8508652971796
1841.378020868313 1122.084481165245
1842.0776738726418 1115.9095845823795
1842.777158106157 997.9108018392286
1843.4764736113375 1046.8652975760285
1844.1756204306403 1136.991169662277
1844.8745986065078 1011.0901349865802
1845.5734081813607 950.5153070339466
1846.2720491976124 889.6191426941139
1846.970521697649 929.7685060342462
1847.6688257238511 983.5283598457287
1848.3669613185684 1031.924255688066
1849.0649285241452 903.2873305595624
1849.7627273829057 1125.9121913356946
1850.460357937156 1010.5121935586978
1851.1578202291857 895.4190596014362
1851.8551143012664 930.4253892157485
1852.5522401956569 1081.8397472292013
1853.2491979545957 1049.2165241667383
1853.9459876203055 1061.1377489955858
1854.6426092349902 1073.2450454774294
1855.3390628408451 1029.9002015330489
1856.0353484800362 1021.5412176781801
1856.7314661947203 1013.2369532200737
1857.4274160270397 911.2016105122348
1858.123198019115 983.6971061606603
1858.8188122130487 1016.4976114544133
1859.5142586509319 937.6148499516348
1860.209537374838 984.2849619844952
1860.9046484268183 1048.3649661979146
1861.599591848917 960.6112341481199
1862.294367683151 929.6174977188599
1862.988975971528 898.5611320637147
1863.6834167560355 810.4637909007839
1864.3776900786452 1028.6929247205753
1865.0717959813119 1003.2838596231807
1865.7657345059724 948.2077147915037
1866.4595056945564 1021.3338194504802
1867.1531095889586 823.0424598462271
1867.846546231076 1021.21838583458
1868.5398156627743 967.8561544010223
1869.2329179259123 1017.7124514800046
1869.9258530623283 1032.6075324924063
1870.618621113843 874.7579940510961
1871.3112221222636 881.6109503547398
1872.0036561293764 854.1937451498288
1872.695923176956 865.3887303699739
1873.3880233067594 1013.8120090736556
1874.0799565605212 827.0764054290909
1874.7717229799673 1000.3799603202342
1875.4633226068036 887.4362092622283
1876.1547554827175 1037.2733383024913
1876.8460216493859 929.4991968632221
1877.5371211484617 1022.1722091794878
1878.2280540215852 1219.360475703903
1878.9188203103804 846.7656798962573
1879.6094200564548 1151.2962298722873
1880.299853301396 799.3187111543531
1880.9901200867826 1023.5150074049031
1881.6802204541673 1021.6158225999509
1882.3701544450942 1106.7779180628565
1883.059922101087 842.5853261395617
1883.7495234636517 941.9470839972521
1884.4389585742792 768.0641617162958
1885.1282274744517 912.928402692557
1885.8173302056166 899.2699872397394
1886.506266809225 885.5947873484031
1887.195037326701 932.6244628815627
1887.8836417994517 925.2343190545853
1888.5720802688702 1035.8771172063466
1889.260352776333 948.9620388089259
1889.9484593632042 938.9473740056235
1890.63640007082 880.5443619872425
1891.3241749405151 814.8883835973444
1892.0117840135954 988.8063716251661
1892.6992273313572 946.508528249652
1893.3865049350788 905.0328333536427
1894.0736168660223 1055.1406808295924
1894.7605631654333 1041.5471747536753
1895.4473438745408 958.4909080739642
1896.133959034556 985.2895623763443
1896.820408686679 927.2519789433005
1897.506692872088 864.5977201106605
1898.192811631945 956.3410630839235
1898.8787650073991 991.2515606618584
1899.5645530395832 1124.8294532719149
1900.2501757696118 1076.7091491063998
1900.9356332385796 895.4432818308363
1901.620925487574 945.1334371696297
1902.3060525576602 1002.2424880016355
1902.9910144898859 1031.3733409358113
1903.6758113252872 846.0555394771551
1904.3604431048789 1006.2447744416988
1905.0449098696663 980.0180856663088
1905.7292116606295 970.1591931641024
1906.4133485187394 986.7566034223559
1907.0973204849488 877.2156292640199
1907.7811276001976 857.1050400752596
1908.4647699053967 903.7985389381136
1909.1482474414588 901.9477986981794
1909.8315602492694 914.2769135741173
1910.5147083696957 926.576920756493
1911.1976918436012 764.6056129960942
1911.880510711815 788.2137664210526
1912.5631650151681 923.2530720153206
1913.2456547944657 1110.993957681151
1913.927980090495 978.9812274421314
1914.6101409440362 887.3884613752923
1915.2921373958416 926.8139232765877
1915.9739694866603 954.2973983677921
1916.655637257214 959.6395372978241
1917.3371407482136 1042.7463824470365
1918.0184800003572 996.2889232427275
1918.6996550543154 825.5235171479326
1919.3806659507554 1007.8983028356843
1920.0615127303208 933.3520014732879
1920.7421954336423 1065.7747580398848
1921.4227141013343 999.9143163510364
1922.103068773993 933.9665181520346
1922.783259492202 989.354757355396
1923.4632862965227 805.6336615469667
1924.1431492275078 893.6837241551208
1924.8228483256917 871.9218345643005
1925.5023836315922 899.602724406469
1926.1817551857057 737.8872145218176
1926.8609630285227 842.1719808592327
1927.5400072005123 971.9081479458849
1928.218887742125 832.4229010553314
1928.8976046938005 938.1368079739865
1929.5761580959588 881.4447612765543
1930.2545479890086 824.6902893785161
1930.9327744133352 800.2703258684239
1931.6108374093164 859.5515470784527
1932.2887370173066 821.0063694786073
1932.9664732776473 858.7414695938944
1933.6440462306673 905.9731526427919
1934.3214559166754 801.0999346700032
1934.9987023759659 924.0054315773386
1935.675785648813 792.3642054098098
1936.3527057754836 784.6552885145885
1937.029462796223 954.4297967191748
1937.70605675126 830.0350633604181
1938.3824876808085 959.3661542325672
1939.058755625072 794.748198005415
1939.7348606242267 820.445437675224
1940.4108027184448 876.7512234599137
1941.0865819478713 933.1856529825496
1941.7621983526478 777.3618011309137
1942.4376519728921 776.3319292329045
1943.1129428487038 775.2863042762779
1943.7880710201734 845.2534453881277
1944.4630365273733 915.3486575063147
1945.1378394103576 1002.8762472617709
1945.8124797091714 882.5623507497542
1946.4869574638324 807.2793754198307
1947.161272714353 898.7305447276434
1947.8354255007234 1042.4751545135216
1948.5094158629272 847.2154009852308
1949.1832438409183 887.6391755769471
1949.8569094746435 936.8473064169445
1950.530412804037 953.190820851655
1951.2037538690092 993.8102674022642
1951.8769327094578 820.9039433950527
1952.5499493652678 745.8148012759149
1953.222803876306 781.4293584737786
1953.895496282421 892.0008132635041
1954.5680266234522 763.1101978283484
1955.2403949392155 957.5592918912065
1955.9126012695142 680.248202463985
1956.5846456541403 988.0558271982057
1957.2565281328643 656.7095507899373
1957.9282487454457 998.1607159639922
1958.5998075316202 943.1462665620713
1959.27120453112 1037.806366107386
1959.9424397836501 823.1811245564813
1960.613513328908 779.7422598131399
1961.2844252065697 950.0635394638296
1961.9551754563017 861.4679372241915
1962.6257641177453 968.1955535451901
1963.29619123054 852.8577807364684
1963.966456834296 941.9282613738278
1964.6365609686181 765.3222570855212
1965.306503673086 968.6218433186959
1965.976284987275 899.1805350371666
1966.645904950734 831.6133118603478
1967.315363603002 878.3619364878668
1967.9846609836077 898.4700874954926
1968.6537971320486 832.6734630395524
1969.3227720878222 852.6994385908795
1969.9915858904042 775.9250037678975
1970.660238579252 756.4234292657782
1971.3287301938108 855.5686994289745
1971.997060773514 900.4923932131076
1972.665230357772 759.5401556305196
1973.3332389859843 865.0628525692862
1974.0010866975335 765.6725172733347
1974.6687735317864 858.5888772914686
1975.3362995280932 751.6160640803324
1976.003664725793 869.4851075536124
1976.6708691642052 723.4728739528821
1977.3379128826364 785.6565582829818
1978.004795920373 826.9598956220674
1978.6715183166925 778.617764408685
1979.3380801108524 746.1668424896945
1980.0044813420973 713.699087451296
1980.6707220496555 638.3153243118659
1981.3368022727373 795.5916625732216
1982.0027220505417 791.2431440979087
1982.66848142225 701.90691192005
1983.3340804270283 656.513624438978
1983.999519104027 908.7851273143436
1984.6647974923835 879.6018898881117
1985.329915631215 760.9520767233196
1985.99487355963 939.6579518556871
1986.6596713167146 769.4465099633122
1987.3243089415428 927.2662468810834
1987.9887864731754 956.2939058732493
1988.6531039506553 779.5203860600518
1989.3172614130071 799.3741170553984
1989.9812588992481 819.2747080230544
1990.645096448372 714.7918953501132
1991.3087740993633 687.088272310367
1991.9722918911848 767.787355991238
1992.635649862792 763.4318789963933
1993.2988480531185 879.9175031924118
1993.9618865010852 814.720735769617
1994.6247652455968 795.2141924443406
1995.287484325545 723.7600363238123
1995.9500437798033 951.9834142692395
1996.6124436472292 724.4162971836143
1997.2746839666706 933.8082821450704
1997.936764776954 913.4496119061207
1998.598686116895 798.7647072645748
1999.2604480252903 811.5044384773821
1999.9220505409212 824.242167748918
2000.5834937025593 741.8602437695071
2001.2447775489582 825.9812558171277
2001.9059021188514 765.4656556977372
2002.5668674509616 704.7741779112564
2003.2276735839987 652.6948843069124
2003.8883205566508 690.8467140447754
2004.5488084075987 729.0289048168381
2005.2091371755014 832.9257596792073
2005.8693068990033 835.6029766464251
2006.5293176167397 772.0720083568084
2007.1891693673224 709.538980361352
2007.848862189354 700.9025130541188
2008.5083961214223 680.8841803580929
2009.1677712020955 709.7418533149362
2009.8269874699254 898.0010082764645
2010.4860449634598 807.4172628047182
2011.1449437212177 700.9864526616973
2011.8036837817108 907.8832495786176
2012.4622651834325 817.0818939613262
2013.1206879648653 802.5760918038043
2013.7789521644736 770.7226809742326
2014.4370578207036 738.7771058902171
2015.0950049719922 962.1116687235022
2015.7527936567585 1089.0611443471576
2016.4104239134067 952.2848208663056
2017.067895780323 871.1406706266113
2017.725209295886 808.8072900570967
2018.3823644984514 835.3808530325068
2019.0393614263648 735.6140111293928
2019.6962001179545 820.6326509636776
2020.3528806115355 702.4572258722058
2021.0094029454067 794.5953532817427
2021.6657671578487 886.9993895664544
2022.321973287133 863.6553484515165
2022.9780213715148 810.2943916709504
2023.6339114492293 797.5806227727718
2024.2896435585026 1028.7509235611203
2024.9452177375442 993.845317680476
2025.600634024544 845.6868598824078
2026.2558924576842 895.7185114927701
2026.9109930751292 790.1821584542884
2027.565935915025 874.9712939498911
2028.2207210155066 795.6139035392978
2028.8753484146964 715.9658728523943
2029.529818150695 624.5882902132852
2030.1841302615903 812.09209584774
2030.8382847854573 878.8586662716737
2031.4922817603601 724.7628496872101
2032.1461212243357 791.4136971362014
2032.7998032154192 741.8918664323616
2033.4533277716218 779.9846829038337
2034.1066949309443 929.0358532376913
2034.7599047313688 919.9195620363801
2035.4129572108704 910.7326782915081
2036.0658524074006 872.8729723411458
2036.7185903589016 784.2648741451179
2037.3711711032956 836.7455304634029
2038.023594678496 834.1772216297362
2038.675861122394 838.3182450181579
2039.3279704728757 773.9598450558487
2039.9799227678031 758.2629769326704
2040.6317180450278 954.4059583925243
2041.2833563423865 887.3386396860833
2041.9348376977014 820.0911301735478
2042.5861621487784 749.8569480689141
2043.2373297334088 761.8791057203916
2043.8883404893695 752.6620606913086
2044.5391944544208 743.3530247497567
2045.1898916663158 790.9626031893888
2045.8404321627804 780.4011270753821
2046.4908159815368 775.9110374711018
2047.1410431602853 771.352056787596
2047.7911137367173 688.8362218905379
2048.441027748504 842.8168174325443
2049.090785233302 750.0879569144467
2049.7403862287592 762.7701141127801
2050.389830772503 673.2816023302167
2051.0391189021466 831.4593999450044
2051.688250655294 712.1870529930169
2052.337226069527 840.8385033370438
2052.986045182417 870.6747210843463
2053.634708031521 695.6209617578077
2054.283214654375 806.6776791887764
2054.931565088511 797.2260654078157
2055.579759371436 787.758156907537
2056.2277975406523 648.2589613070296
2056.8756796336384 856.8513559762241
2057.5234056878617 842.0931503310101
2058.1709757407752 827.2003115295283
2058.8183898298194 957.7255969947413
2059.465647992416 849.1739478529622
2060.1127502659747 864.0213043310893
2060.759696687888 774.5906673794602
2061.4064872955405 769.011896393987
2062.053122126292 885.8766580702195
2062.699601217497 815.7750670844564
2063.345924606485 745.6917192449479
2063.992092330587 963.7482678219055
2064.638104427102 720.1245163864519
2065.283960933324 762.4223696558993
2065.92966188653 754.7917115817146
2066.5752073239855 807.3827442218469
2067.2205972829397 806.5971963348204
2067.86583180062 729.6203248629458
2068.5109109142522 765.2225150688201
2069.15583466104 692.7268161843891
2069.8006030781708 620.1643560229894
2070.445216202821 716.1564349489904
2071.089674072153 830.4681347674123
2071.7339767233116 715.6657876800147
2072.3781241934303 713.7147147511162
2073.0221165196253 903.5433764386169
2073.6659537390024 789.8057607692144
2074.3096358886505 635.9817070201302
2074.953163005637 794.1475015336024
2075.596535127028 692.8184114600582
2076.2397522898664 576.4901607317713
2076.882814531182 716.6201145921974
2077.5257218879924 788.1509756544796
2078.1684743973 778.3284002032582
2078.8110720960885 705.3560461496888
2079.453515021336 884.9322582130114
2080.095803209997 840.6233440503789
2080.7379366990135 754.8481742484846
2081.37991552532 793.1941545074118
2082.0217397258275 680.8061059936581
2082.6634093374414 795.1488434851241
2083.3049243970418 780.6121962110382
2083.9462849415067 762.6528000151168
2084.587491007689 810.4861423239645
2085.2285426324324 799.5727079484029
2085.869439852564 898.4580090797377
2086.510182704902 725.7660516626786
2087.1507712262483 839.8343248953499
2087.791205453381 822.0165208323857
2088.4314854230743 804.1500267838701
2089.0716111720867 783.9216638434323
2089.7115827371617 732.8911427577098
2090.351400155023 681.7984772286209
2090.991063462385 714.997964394853
2091.6305726959527 720.3517000773347
2092.2699278924047 844.6579968285741
2092.9091290884153 922.5768644516533
2093.548176320641 696.9378873526674
2094.187069625721 755.0094333294498
2094.8258090402887 767.5461810071375
2095.464394600951 754.3249763906381
2096.102826344313 761.0240360387675
2096.741104306955 725.4534981530167
2097.379228525453 762.7181281462633
2098.017199036358 711.7645140023122
2098.6550158762147 747.9081555011109
2099.2926790815527 849.0183424730512
2099.9301886888825 716.4602319684866
2100.5675447347076 821.2782908162029
2101.2047472555114 709.6980485664609
2101.841796287761 764.9603295107652
2102.47869186792 820.3437908813282
2103.1154340324265 993.4179261911431
2103.752022817709 748.419971258374
2104.388458260184 761.1425182337259
2105.024740396251 758.4130228571439
2105.660869262292 723.4829711242892
2106.296844894685 684.9037387548694
2106.93266732978 697.061375493598
2107.5683366039284 709.2651647843718
2108.2038527534532 771.2492705241915
2108.8392158146726 786.6054924820302
2109.4744258238843 750.3546886426755
2110.1094828173755 904.0872558423338
2110.744386831422 858.2834819243905
2111.3791379022787 758.1001777528165
2112.01373606619 690.2670902781383
2112.648181359389 725.6446630594826
2113.28247381809 761.1007065991141
2113.916613478492 730.5439614382747
2114.550600376786 702.3017616478717
2115.1844345491445 842.8772464191583
2115.818116031729 852.3257832611383
2116.451644860679 861.7437854723509
2117.085021072133 683.3908641938527
2117.718244702204 690.1378165379388
2118.3513157869984 667.5496877343494
2118.984234362604 671.7836950829508
2119.617000465092 640.5199715467741
2120.249614130529 633.6783399623839
2120.8820753949585 626.8270101584843
2121.5143842944162 575.8376569300676
2122.14654086492 706.4576424772856
2122.7785451424734 627.9099374393659
2123.4103971630702 715.3192139589523
2124.042096962681 854.1173822650442
2124.6736445772767 856.4690892740758
2125.305040042802 763.7913822506523
2125.936283395191 549.68585510879
2126.567374670365 554.7396287101565
2127.198313904233 559.7555859472263
2127.8291011326855 856.964712785247
2128.4597363916037 606.8877566723758
2129.0902197168507 675.7989203998193
2129.720551144279 647.7098676661872
2130.3507307097225 717.8955213786728
2130.980758449008 683.4703156631481
2131.6106343979427 728.7524791710767
2132.2403585923203 611.8946571677448
2132.8699310679276 707.046045788978
2133.499351860526 741.0992231104049
2134.1286210058715 730.2167571526827
2134.7577385397053 699.3466502493283
2135.3867044977487 659.7221917110336
2136.0155189157176 738.3378358941561
2136.644181829308 817.1048073425513
2137.2726932742025 643.5379178890887
2137.901053286074 585.1125130216376
2138.5292619005777 679.7444978058742
2139.1573191533535 705.4662745893442
2139.7852250800315 761.427141139671
2140.4129797162295 820.0219269539126
2141.0405830975433 822.0513034680182
2141.6680352595613 824.0943252928097
2142.2953362378576 732.7521513241569
2142.9224860679915 488.37184361344896
2143.549484785508 620.368792414566
2144.1763324259373 636.1624136689366
2144.803029024799 651.9680861423878
2145.429574617594 770.492127078727
2146.0559692398165 875.206666100542
2146.682212926942 843.4712735202102
2147.308305714432 811.6240873912687
2147.9342476377333 803.2162792160882
2148.5600387322847 768.0545530359989
2149.185679033506 731.5933606763678
2149.8111685768017 730.8069647337588
2150.4365073975678 569.4202316191489
2151.061695531187 687.3258987721731
2151.686733013021 552.5777176551635
2152.311619878423 585.7551796511218
2152.9363561627342 619.0092337895375
2153.560941901278 654.2298362777072
2154.1853771293663 747.1764535427907
2154.809661882293 793.3417254417034
2155.433796195348 839.4686661891923
2156.0577801037944 872.0516129032258
2156.681613642895 758.0073036778083
2157.3052968478896 643.8234523390271
2157.928829754006 641.4864334998244
2158.552212396462 773.0360817533732
2159.1754448104566 602.123949661025
2159.7985270311783 522.5782855598036
2160.4214590938027 442.9874695130269
2161.0442410334927 551.7221860965142
2161.6668728853874 641.9519480854389
2162.289354684628 732.3689427395509
2162.911686466332 743.3888992848989
2163.533868265602 712.9757078861631
2164.1559001175337 739.5114933603439
2164.7777820572046 729.7394917019597
2165.399514119681 608.2827079974036
2166.021096340013 590.5652007387589
2166.6425287532384 614.4391838240401
2167.263811394385 638.3879512343632
2167.8849442984574 636.3809427759608
2168.505927500455 820.895231191172
2169.126761035366 800.95390436382
2169.7474449381552 705.2345737134208
2170.367979243778 642.6935756671321
2170.9883639871823 580.0113449166221
2171.608599203293 628.0582889541105
2172.2286849270276 646.0001462832453
2172.8486211932886 663.9671746563674
2173.4684080369625 732.0256539837179
2174.0880454929265 610.2545483283291
2174.7075335960417 777.4518460459658
2175.3268723811543 759.9054424705466
2175.9460618831 792.6476305678702
2176.565102136701 673.0061730667267
2177.1839931767627 647.999382257043
2177.802735038078 622.9358099125109
2178.421327755432 780.8479956120927
2179.0397713635866 661.9039294440453
2179.658065897298 534.6197200342474
2180.276211391305 636.8357783004169
2180.8942078803357 753.9817836036643
2181.5120553991 631.6132867417593
2182.129753982299 716.7931764358215
2182.7473036646206 701.4869094766088
2183.3647044807367 590.7441437986469
2183.9819564653044 707.1600774850696
2184.599059652968 631.908716639143
2185.216014078367 556.4799678090378
2185.832819776113 473.42608397822096
2186.4494767808137 555.096813224063
2187.065985127063 700.5159611932297
2187.682344849436 731.006627454266
2188.298555982501 743.1836774545593
2188.9146185608097 755.3344644728493
2189.530532618901 757.3001433243082
2190.1462981912937 642.3690268138778
2190.761915312507 755.828502652169
2191.377384017036 654.3709224782576
2191.9927043393654 610.0031417524531
2192.6078763139667 622.8748363625053
2193.2228999753006 802.3963620687076
2193.837775357808 722.5594815840799
2194.452502495922 689.0867617415263
2195.0670814240602 655.5427982634001
2195.6815121766285 716.5376797559463
2196.2957947880186 658.9242851816301
2196.9099292926057 601.196879354824
2197.523915724758 801.2455821506053
2198.137754118825 748.3994666110259
2198.7514445091456 667.9012529192557
2199.3649869300443 827.3591877247372
2199.9783814158327 770.3164515946736
2200.5916280008096 731.1434129857661
2201.2047267192593 772.2195750700118
2201.8176776054515 590.1439452420124
2202.430480693649 607.5581712666665
2203.0431360180955 647.2704097055228
2203.6556436130195 624.4561319570726
2204.268003512645 601.6017162940437
2204.8802157511727 668.0529904598584
2205.492280362796 692.783375516984
2206.1041973816937 688.2021851767477
2206.715966842032 648.5524882175549
2207.3275887779655 692.9998979615427
2207.93906322363 748.7481946859957
2208.550390213153 804.5291778584796
2209.1615697806465 670.0773858749534
2209.7726019602105 535.2711730550562
2210.3834867859277 566.6889577530955
2210.9942242918787 777.3921085734189
2211.6048145121167 706.4113624056523
2212.2152574806914 635.3365987551504
2212.825553231638 601.6764077838036
2213.435701798975 597.7295039695024
2214.045703216707 593.8434512498266
2214.655557518832 553.2059350658259
2215.2652647393297 567.8769772358419
2215.874824912169 585.4969818355227
2216.4842380713 726.8355887642153
2217.09350425067 675.0988677533448
2217.7026234842033 597.6155910371975
2218.311595805819 658.2664474778247
2218.9204212494133 736.1673705391462
2219.52909984888 814.200521886648
2220.137631638092 774.9990864713313
2220.7460166509154 724.9237692822778
2221.354254921198 674.7159934765242
2221.9623464827764 623.6785235820792
2222.5702913694713 682.4355472900713
2223.178089615096 741.3035776730133
2223.7857412534486 573.6085412891562
2224.39324631831 690.8221878225528
2225.000604843457 736.1418434468518
2225.607816862641 702.1409285396958
2226.214882409611 721.4788222908394
2226.8218015180973 723.454263085079
2227.4285742218217 725.3761723768079
2228.0352005544864 597.0170003403781
2228.6416805497847 591.5535143747738
2229.248014241399 621.5616649165349
2229.8542016629945 651.6027025970477
2230.460242848223 715.767699084016
2231.0661378307304 881.599941706438
2231.671886644139 702.095621893841
2232.277489322065 417.78011859045375
2232.8829458981127 428.22379806163934
2233.48825640587 854.7275842888797
2234.0934208789095 890.2213400780416
2234.6984393507955 670.8673784887123
2235.3033118550793 755.8776918368579
2235.9080384252975 556.587511778419
2236.5126190949723 732.1945995049207
2237.1170538976166 452.2688337313888
2237.721342866729 455.5625906528706
2238.32548603579 560.5676399503475
2238.9294834382763 665.7370405324731
2239.533335107646 493.3097938900887
2240.1370410773434 473.1604715166694
2240.740601380803 655.5655810538907
2241.3440160514474 648.7389629133397
2241.9472851226783 619.8573432745105
2242.550408627896 590.9390885512746
2243.1533866004793 781.4360653953155
2243.756219073799 637.6476376005646
2244.3589060812064 614.600432956919
2244.961447656049 907.5428650520798
2245.5638438316564 738.3963952677537
2246.166094641343 791.616610276583
2246.7682001184166 844.9590552651109
2247.3701602961664 958.4557927662667
2247.971975207871 701.214080429558
2248.5736448867974 544.4537331165368
2249.175169366197 541.9870167024256
2249.7765486793123 884.695523819681
2250.3777828593684 900.3009159784291
2250.9788719395783 807.0797415427512
2251.579815953146 607.7978087901946
2252.1806149332606 512.6822340371124
2252.781268913097 623.4909264539499
2253.381777925817 689.6061286577309
2253.9821420045737 716.186507259362
2254.5823611825035 742.8123987580467
2255.1824354927303 647.4921222899345
2255.782364968365 624.7125561940389
2256.38214964251 601.9209272499161
2256.9817895482483 755.3738484035526
2257.5812847186553 607.3394128725472
2258.180635186791 697.9790017457165
2258.779840985704 673.7581092894767
2259.37890214843 649.513103384708
2259.97781870799 787.1698835022065
2260.5765906973957 1023.0809582158884
2261.175218149645 844.4172788505442
2261.773701097718 479.6441485575683
2262.3720395745895 390.8641102052608
2262.970233613216 590.8894111239188
2263.568283246548 777.5848958370349
2264.1661885075137 751.6441324791718
2264.763949429038 725.6421454576964
2265.3615660440246 782.2870062082029
2265.959038385374 808.6461325185253
2266.5563664859637 835.0633652538338
2267.153550378669 660.8303629876933
2267.7505900963424 719.219114143835
2268.3474856718312 750.3408582134655
2268.9442371379664 819.692238394435
2269.5408445275643 909.0684760911772
2270.1373078734377 725.1431171817205
2270.7336272083758 803.928395150933
2271.32980256516 728.2157438964549
2271.925833976562 622.4352602547013
2272.5217214753357 516.4236871925305
2273.117465094223 467.7866042732802
2273.7130648659586 414.43550567167347
2274.308520823257 548.7281649066748
2274.903832998827 540.0205266025375
2275.4990014253563 497.3689648544866
2276.094026135528 693.8524804094079
2276.6889071620117 697.5777878909882
2277.2836445374614 675.766533083585
2277.878238294519 653.8813381678993
2278.472688465812 586.2470653608647
2279.066995083962 671.9169081079159
2279.6611581815705 594.8633865238496
2280.255177791232 618.5902789071657
2280.8490539455233 970.1229043591635
2281.442786677013 1006.7076590491533
2282.0363760182554 783.5664136474338
2282.6298220017943 667.5251828303242
2283.223124660155 669.0100214779147
2283.816284025859 670.53418344953
2284.4093001314086 646.3037083559509
2285.002173009292 617.3366049500439
2285.5949026919952 835.7998555833649
2286.1874892119777 847.7434339412057
2286.7799326016993 606.9063106111871
2287.3722328936 640.5493378767253
2287.964390120109 809.5116042905045
2288.556404313642 696.8752074855527
2289.1482755066027 940.16619454398
2289.7400037313873 765.849756975761
2290.3315890203703 515.4727985505293
2290.9230314059205 713.3492462997644
2291.5143309203904 385.08219472218946
2292.1054875961236 434.4741541253767
2292.6965014654506 620.196896291207
2293.287372560684 847.5388326516389
2293.878100914131 861.1263878221604
2294.468686558086 755.605649227542
2295.059129524827 649.8675468039048
2295.649429846617 644.2098904642462
2296.239587555716 664.8236558971213
2296.8296026843636 685.4453135339506
2297.419475264791 705.2709098540358
2298.0092053292137 626.772422590743
2298.598792909839 548.0974518059945
2299.1882380388597 686.226166761471
2299.777540748455 745.997304909859
2300.3667010707904 905.2110784768851
2300.9557190380256 634.6104416824842
2301.544594682302 520.9873724367301
2302.1333280357503 767.7921461259557
2302.721919130485 617.9650943997678
2303.3103679986198 714.8157044331435
2303.898674672242 705.6647019188147
2304.486839183437 640.2208367178132
2305.0748615642697 643.2425732963706
2305.6627418468015 646.3330261956646
2306.2504800630704 769.8184811044164
2306.8380762451143 599.2746542872621
2307.425530424949 642.8691047753509
2308.012842634582 686.5586076854895
2308.6000129060103 843.1234773281154
2309.187041271214 911.5062874229934
2309.773927762164 756.4199690716689
2310.3606724108213 818.3834536885452
2310.9472752491274 964.4812471199278
2311.5337363090184 829.3664971957144
2312.120055622414 693.9227751935681
2312.706233221221 727.5187277992986
2313.2922691373424 633.3862541000813
2313.8781634026564 694.86327891625
2314.463916049037 753.1948211629046
2315.049527108342 680.0967928471712
2315.6349966124235 577.175258931326
2316.2203245931123 534.9894633629217
2316.8055110822315 694.0193102980215
2317.3905561115935 693.1447901384462
2317.9754597129977 692.2628913636555
2318.560221918229 842.0589059887768
2319.1448427590603 692.1768152596261
2319.729322267256 541.971706985807
2320.313660474563 569.2298719535008
2320.8978574127195 515.0612172203614
2321.481913113452 579.8995637609927
2322.0658276084705 644.9388863903563
2322.6496009294806 645.852182639712
2323.233233108165 648.4446313931409
2323.8167241762058 671.9759792017086
2324.4000741652617 695.5446744489793
2324.983283106987 706.5277971097755
2325.5663510330232 887.3521064327672
2326.1492779749933 916.9442373383279
2326.7320639645204 444.21921756234326
2327.3147090332004 636.8911387746946
2327.897213212629 657.6108357604596
2328.4795765343843 678.3089724388244
2329.0617990300307 643.2321760189893
2329.643880731124 645.3276669195055
2330.22582166921 616.1485803568542
2330.807621875816 586.9717832309068
2331.3892813824623 609.4991964620003
2331.9708002206517 670.2874762694652
2332.5521784218818 731.2365565636344
2333.133416017634 835.6935056752802
2333.7145130393765 812.7500479681805
2334.295469518571 779.5524179669362
2334.876285486658 696.8306316441366
2335.456960975076 583.202972158657
2336.037496015242 713.7726504760253
2336.6178906385667 716.3026197060748
2337.198144876451 718.8526679172472
2337.778258760278 850.064302289514
2338.3582323214214 868.2353629898371
2338.938065591243 886.4268585274433
2339.517758601087 842.6663535457044
2340.0973113822965 792.7448270478847
2340.676723966193 742.6888948777848
2341.255996384094 705.4620036332952
2341.835128667295 610.2508341309081
2342.4141208470883 514.844520346898
2342.992972954751 581.1850968076487
2343.5716850215467 508.0898590726958
2344.1502570787306 434.8335290325367
2344.7286891575386 622.841151812587
2345.3069812892045 586.8727008150594
2345.885133504944 775.2536771485078
2346.4631458359618 740.9905715949405
2347.04101831345 551.5647270041269
2347.6187509685915 623.389786852644
2348.196343832553 712.7361567147059
2348.7737969364935 682.6218842086453
2349.351110311558 652.4843749591292
2349.9282839888765 616.2101302723283
2350.5053179995757 579.9146830861453
2351.0822123747585 706.3786477287873
2351.658967145526 290.0285205863996
2352.2355823429643 523.4698044772886
2352.812057998144 528.3415295547151
2353.3883941421263 533.2502645705198
2353.9645908059647 802.8377819462063
2354.540648020693 812.4943942359598
2355.116565817336 580.7657633201013
2355.6923442269126 586.6992567182524
2356.2679832804224 592.6420013678346
2356.8434830088518 580.0177053197353
2357.41884344318 567.343101336307
2357.994064614377 571.4474299348836
