317.89969571804795 21849.839430899505
318.977263876126 21824.235746056318
320.05455438786703 21736.10564992647
321.1315673423287 21641.11525350882
322.2083028285215 21690.81187565174
323.2847609354267 21468.10457952266
324.3609417519747 21460.232577404175
325.43684536705587 21442.616633432823
326.5124718695279 21313.027106731595
327.58782134820103 21418.1216903494
328.66289389184385 21207.637925739935
329.7376895891921 21086.24372013278
330.8122085289342 21077.648887192507
331.88645079971866 21071.813010408936
332.9604164901575 20967.08938960497
334.03410568881554 20957.436931886492
335.1075184842266 21001.20110042752
336.18065496487543 20751.174740239516
337.2535152192122 20874.48441367947
338.32609933564163 20790.287885314705
339.39840740253203 20596.477373614212
340.4704395082099 20611.770984234456
341.5421957409617 20682.92467483082
342.6136761890357 20703.960512727244
343.6848809406365 20638.56711136606
344.75581008392874 20590.015879314375
345.82646370703696 20547.969666153887
346.8968418980512 20426.169740871563
347.96694474501055 20555.82026437282
349.0367723359268 20469.310768967764
350.106324758759 20400.123333082018
351.1756021014353 20198.365647000035
352.2446044518383 20374.50731406331
353.31333189781435 20359.084927827043
354.38178452716966 20321.77342846145
355.449962427665 20253.600622494767
356.51786568702846 20175.564110338022
357.58549439294256 20385.696091004793
358.6528486330535 20241.986624949503
359.71992849496564 20202.307974632986
360.7867340662433 20240.527813343855
361.8532654344144 20241.888868900736
362.9195226869597 20362.082977080845
363.9855059113288 20118.024589740893
365.05121519492604 20068.422309293182
366.11665062511565 20159.857722851702
367.1818122892273 20292.475364386057
368.2467002745434 20237.749289746702
369.31131466831175 20223.129834988973
370.375655557742 20238.2999469907
371.4397230299983 20153.169212659173
372.5035171722102 20171.731514280185
373.5670380714637 20175.52734685837
374.6302858148101 20263.37411299454
375.6932604892554 20211.695912534437
376.7559621817709 20344.003905144797
377.81839097928605 20115.733579435888
378.8805469686886 20173.564710858762
379.94243023683157 20108.791762527464
381.0040408705263 20122.691876357065
382.0653789565458 20046.40927396987
383.1264445816196 20126.31067276297
384.1872378324406 20059.52814462799
385.2477587956637 20086.087221390706
386.3080075579037 20029.88887932682
387.3679842057336 19864.490600818735
388.4276888256918 19932.868749819896
389.48712150426945 19965.220520312163
390.54628232792857 20000.787997231128
391.6051713830857 19879.16195138367
392.66378875611736 19980.500475981662
393.7221345333637 19896.031038436602
394.7802088011249 19871.015008699345
395.838011645661 19835.850361254114
396.89554315319765 19794.5498176596
397.9528034099112 19681.803284029273
399.00979250194723 19658.019052067462
400.06651051541485 19717.8806376673
401.1229575363741 19691.45288396869
402.17913365085224 19633.040980831458
403.23503894483656 19718.573128305874
404.2906735042761 19543.044011633385
405.3460374150818 19444.841049727132
406.401130763119 19504.99937368866
407.455953634224 19531.153060930905
408.5105061141876 19401.61147709901
409.56478828876243 19224.10266647792
410.6188002436629 19261.37102213118
411.6725420645689 19257.829351275006
412.72601383711117 19369.42374188841
413.77921564689314 19357.06328692055
414.8321475794728 19147.45974740368
415.88480972036814 19158.699674567968
416.93720215506437 19310.113500064806
417.9893249690049 19114.144270842735
419.04117824759123 19027.354885312037
420.09276207619223 19039.84473807683
421.144076540133 19062.6384136989
422.1951217247042 19035.12476211764
423.24589771515275 19050.43226535347
424.2964045966928 18917.822163820638
425.34664245449494 18973.225348084092
426.3966113736933 18922.85646240714
427.4463114393875 18854.4762216163
428.49574273662984 18942.545514714646
429.5449053504417 18714.081807253926
430.5937993658026 18913.736701011923
431.6424248676558 18764.4426857561
432.6907819409007 18794.231199942787
433.73887067040596 18783.30078962557
434.7866911409965 18858.634124734595
435.8342434374608 18739.245725770405
436.88152764455117 18720.163362426407
437.9285438469724 18750.593623127268
438.9752921294057 18632.836322781583
440.02177257648145 18670.909161327167
441.06798527279716 18539.710438613976
442.1139303029122 18604.050394738842
443.1596077513459 18650.58592730003
444.2050177025794 18680.44162243962
445.25016024105753 18643.999617614543
446.2950354511886 18604.336738647595
447.33964341733736 18676.468345098026
448.383984223834 18598.216035261816
449.4280579549686 18529.021618102106
450.471864694995 18574.12447331028
451.5154045281306 18648.358616509693
452.5586775385509 18474.17182437076
453.60168381039693 18538.361481274795
454.64442342776783 18712.51519725895
455.6868964747264 18623.91683911756
456.7291030353008 18530.57976154585
457.77104319347563 18607.07881554166
458.8127170332027 18552.546541880103
459.854124638392 18588.56392309109
460.895266092919 18720.732536235
461.93614148061897 18650.49853809105
462.97675088529104 18786.479501474874
464.01709439069236 18671.13692727506
465.0571720805492 18631.376006335235
466.0969840385442 18685.288105276242
467.1365303483253 18853.943756848104
468.17581109350067 18738.159326684978
469.2148263576437 18680.495657080985
470.2535762242878 18771.200704563777
471.29206077693016 18826.535443974106
472.33028009902773 18994.50390055876
473.3682342740012 18987.596062488836
474.40592338523857 18898.786545514122
475.4433475160804 18970.917733322032
476.4805067498364 18932.137670433236
477.51740116978 18973.69455637011
478.5540308591426 19113.72651893815
479.59039590112116 19233.323804707365
480.6264963788726 19282.62329502784
481.6623323755193 19387.153869173933
482.6979039741436 19347.025247674956
483.7332112577915 19547.627068326612
484.76825430947247 19662.26660547709
485.80303321215797 19656.397263929968
486.837548048783 19728.62200219546
487.8717989022425 19888.14265221517
488.90578585539697 19876.418812104745
489.9395089910686 19973.605260545624
490.97296839203955 19832.6518063939
492.00616414106116 19709.98085662729
493.0390963208429 19711.108840636534
494.0717650140559 19689.003138501725
495.10417030333883 19609.720176047536
496.1363122712901 19470.51027353148
497.16819100046814 19396.43299328474
498.1998065734024 19162.983581562577
499.2311590725767 19086.406825334794
500.26224858044407 18962.894888186343
501.2930751794156 18870.599762433565
502.3236389518679 18830.216675775857
503.35393998014115 18637.023344981422
504.38397834653733 18643.336052879476
505.4137541333221 18632.709805313112
506.4432674227228 18546.22218266523
507.4725182969323 18483.33602609436
508.5015068381035 18548.982109229997
509.53023312835467 18450.319332621613
510.55869724976765 18450.52485419345
511.58689928438434 18270.101376453727
512.6148393142121 18270.018252711012
513.6425174212218 18391.48758507897
514.6699336873462 18323.002718338088
515.6970881944835 18282.21457243348
516.7239810244901 18276.348891160018
517.7506122591931 18246.39365263367
518.7769819803761 18314.253306913506
519.8030902697901 18260.110671340386
520.8289372091476 18253.3912242209
521.8545228801249 18347.782313516258
522.8798473643619 18228.684474346945
523.9049107434621 18214.55717410102
524.9297130989908 18237.711519097607
525.9542545124805 18144.49626614576
526.9785350654201 18158.65594377083
528.0025548392696 18234.42126442266
529.0263139154504 18114.853317668705
530.0498123753423 18173.036491669245
531.073050300296 18116.96069512399
532.0960277716204 18060.53511997464
533.1187448705896 18018.31562677354
534.1412016784416 18001.18443277588
535.1633982763833 18026.58758128479
536.1853347455726 17932.25614373135
537.2070111671401 17841.361642728116
538.2284276221817 17836.3530023934
539.2495841917516 17751.720448497865
540.2704809568677 17763.655422151358
541.2911179985167 17886.49159064312
542.3114953976419 17742.661533222436
543.3316132351592 17624.135784188828
544.3514715919409 17550.549891418348
545.3710705488247 17655.059896711577
546.3904101866156 17714.064322431692
547.4094905860784 17618.870667133553
548.4283118279418 17639.261981526106
549.4468739929034 17648.201134481704
550.4651771616191 17609.966268037995
551.4832214147063 17490.3091713891
552.501006832761 17605.8005895413
553.5185334963226 17682.5004693005
554.5358014859103 17671.681254666706
555.5528108820035 17603.037865260514
556.5695617650363 17500.308903022596
557.5860542154242 17595.14656366358
558.6022883135283 17553.96861284829
559.6182641396881 17518.78532332463
560.6339817741991 17526.358505594595
561.6494412973225 17602.389420098607
562.6646427892883 17655.648911880628
563.6795863302796 17448.264419514824
564.694272000459 17502.76368186305
565.7086998799423 17644.963363308136
566.7228700488104 17543.137998294926
567.7367825871115 17591.920783679583
568.7504375748576 17466.411088251392
569.7638350920224 17575.40895724258
570.7769752185486 17487.44700745107
571.7898580343353 17534.704931796703
572.802483619258 17405.667996771015
573.8148520531431 17585.23563667174
574.8269634157932 17595.973226889306
575.8388177869692 17527.531823056
576.8504152463938 17655.88466579615
577.8617558737587 17790.396989327342
578.8728397487175 17564.637817755163
579.883666950891 17755.89290346341
580.8942375598654 17800.693466134435
581.9045516551851 17900.96543266366
582.9146093163617 18042.976815507987
583.924410622878 17959.51863139096
584.9339556541727 17903.75894100445
585.9432444896538 18116.60878116996
586.9522772086875 17910.065179949386
587.9610538906127 17976.175250054803
588.9695746147318 17868.989983973614
589.9778394603054 17925.954939422598
590.985848506567 17879.385087457413
591.9936018327098 17801.17745837417
593.0010995178891 17624.729476394627
594.0083416412344 17695.86177585381
595.0153282818283 17527.963568119532
596.0220595187293 17606.197569208674
597.0285354309508 17436.08934959713
598.0347560974806 17400.16937904058
599.0407215972609 17386.9778116569
600.0464320092051 17363.783690545406
601.0518874121954 17390.399260172686
602.0570878850685 17356.32579928996
603.062033506636 17380.50098166456
604.0667243556636 17487.203029294367
605.0711605108936 17208.00800297071
606.0753420510264 17671.286136891435
607.0792690547278 17476.61949083789
608.082941600629 17438.158863365057
609.0863597673306 17431.505747697545
610.0895236333909 17618.14497371167
611.0924332773357 17643.99834258865
612.0950887776617 17890.39440467034
613.0974902128219 17846.85546608591
614.0996376612384 18062.118766939144
615.1015312013005 18143.184105576976
616.1031709113595 18236.54741100889
617.1045568697336 18169.819670579316
618.1056891547069 18420.473467451964
619.1065678445229 18531.318078601307
620.1071930173985 18906.56916649133
621.1075647515099 18832.166741338027
622.1076831250048 19019.470463619415
623.1075482159849 19111.867769249155
624.1071601025305 19176.867067126695
625.1065188626781 19353.88602732329
626.105624574433 19555.671627103256
627.1044773157682 19623.521264800016
628.1030771646128 19621.637734339667
629.1014241988742 19812.242091680673
630.0995184964158 19885.509334023936
631.0973601350688 20012.803101673715
632.0949491926294 20131.913892366407
633.0922857468631 19798.44337375655
634.089369875499 19871.671908338874
635.0862016562278 19878.489291179318
636.0827811667077 19753.217891021955
637.0791084845641 19668.527082895795
638.0751836873878 19619.558796692883
639.0710068527369 19491.08547958069
640.0665780581294 19293.830335426428
641.0618973810506 19236.822090696685
642.0569648989604 19102.527946385806
643.0517806892676 18861.014587912676
644.0463448293649 18909.251588967934
645.040657396592 18727.973904892133
646.0347184682723 18653.288005291608
647.0285281216875 18516.028420925963
648.0220864340772 18326.00980351509
649.0153934826558 18257.222502548695
650.0084493446047 18211.153511594275
651.0012540970674 18035.949539737365
651.9938078171526 17933.708546192767
652.9861105819346 17878.207854273656
653.9781624684565 17985.328257346504
654.9699635537254 17694.65986530659
655.9615139147136 17690.74369895785
656.9528136283589 17573.582349108106
657.9438627715699 17690.93852160994
658.9346614212154 17609.906244014066
659.925209654135 17326.84401199127
660.9155075471263 17426.40148433745
661.9055551769616 17380.06048521083
662.895352620375 17517.97604257957
663.8848999540678 17381.645160986453
664.8741972547068 17176.467780824052
665.863244598926 17145.300358779088
666.8520420633213 17253.76663789287
667.8405897244611 17194.494828624483
668.8288876588758 17019.908706799142
669.8169359430613 17147.891932976738
670.8047346534822 17061.80096919937
671.7922838665672 17038.943180544262
672.7795836587156 17043.414940919498
673.766634106285 17064.5904988177
674.7534352856092 16966.303956363736
675.7399872729766 17020.52657895392
676.7262901446538 17027.35204865584
677.712343976862 16980.50329028907
678.6981488457986 17042.52281818354
679.6837048276229 16857.891599718943
680.6690119984596 16869.486246108565
681.6540704344043 16912.362145652944
682.6388802115107 16796.480760499366
683.6234414058108 16811.111979695805
684.6077540932874 16674.511830460284
685.591818349907 16770.305517677865
686.575634251587 16611.91474768719
687.5592018742263 16651.037159057898
688.5425212936734 16543.036450399006
689.5255925857564 16660.370448459777
690.5084158262707 16631.399951804364
691.4909910909646 16616.23611195194
692.4733184555644 16481.896607695744
693.4553979957618 16575.586031912033
694.4372297872123 16550.861347684127
695.4188139055404 16498.995464431362
696.4001504263324 16420.48688950789
697.3812394251509 16585.1390522519
698.3620809775111 16523.837142083124
699.3426751589104 16601.46279870776
700.3230220448004 16512.965269166387
701.3031217106054 16622.72465805134
702.2829742317172 16696.92557416649
703.2625796834873 16590.054529291025
704.2419381412474 16544.492720562856
705.22104968028 16687.66956993058
706.1999143758458 16547.020761697528
707.178532303169 16609.595331276767
708.1569035374378 16734.44334167438
709.1350281538107 16807.623794387455
710.1129062274158 16901.17053785698
711.0905378333373 17044.406939681117
712.0679230466376 17017.971442775066
713.0450619423427 17290.93729257793
714.0219545954424 17488.544714477484
714.9986010808989 17391.8061913411
715.9750014736292 17684.23411800059
716.9511558485392 17894.2627055611
717.9270642804786 18009.126387881042
718.9027268442787 18145.034721519987
719.8781436147328 18057.565290649596
720.8533146666014 18093.757751015713
721.828240074612 18089.11804904948
722.8029199134635 17999.51289376407
723.7773542578125 17945.40947606182
724.751543182294 17783.533125233975
725.7254867615029 17719.311836231802
726.6991850700015 17495.225766772048
727.6726381823228 17380.17440607442
728.6458461729599 17431.50515045299
729.6188091163858 17301.65892162822
730.5915270870246 17401.983502597075
731.5640001592856 17227.14276049081
732.536228407529 17423.60061647265
733.5082119060917 17228.304570919765
734.4799507292755 17259.21639108142
735.4514449513481 17248.89444568977
736.4226946465496 17393.905584540207
737.3936998890786 17481.290749203654
738.3644607531078 17162.141723779765
739.3349773127793 17175.82806005567
740.3052496421951 17102.23281892343
741.27527781543 16847.866147640954
742.2450619065221 16772.52229337935
743.2146019894826 16733.735114225823
744.183898138288 16555.784857774706
745.1529504268801 16381.572890889298
746.1217589291682 16215.279319761326
747.0903237190341 16094.803861218572
748.058644870318 16067.318734074302
749.0267224568397 15866.868962513414
749.994556552374 15819.953882659558
750.9621472306771 15882.341962268827
751.9294945654583 15793.535883875458
752.8965986304011 15737.57431795281
753.8634594991636 15660.677784733227
754.8300772453586 15693.95937312907
755.7964519425768 15626.90243003984
756.762583664371 15646.463972774272
757.7284724842611 15701.85733736512
758.6941184757416 15530.927377269885
759.6595217122667 15561.136089887092
760.6246822672638 15472.950942286587
761.5896002141235 15545.741520218982
762.5542756262093 15497.93533817484
763.5187085768503 15524.595726953758
764.4828991393406 15578.811681657931
765.4468473869474 15420.06364435099
766.4105533929032 15480.136069035905
767.3740172304078 15375.168092024087
768.3372389726283 15468.010181015086
769.3002186926988 15301.690521255074
770.2629564637282 15245.327151095573
771.2254523587872 15411.824460006286
772.1877064509154 15173.375824073926
773.1497188131179 15145.672128923412
774.1114895183728 15105.221063871446
775.0730186396268 15103.163479075167
776.0343062497905 15007.714565063903
776.9953524217381 14986.903091773467
777.9561572283274 14973.195498510646
778.9167207423689 14997.374653147814
779.8770430366476 15008.333798751413
780.8371241839159 14985.995836467762
781.7969642568951 14989.789548868215
782.7565633282757 15154.491262197927
783.7159214707099 14880.235594136768
784.6750387568281 14955.210238017384
785.6339152592227 14902.735525549728
786.5925510504512 14919.906315750191
787.5509462030477 14909.479453139711
788.5091007895098 14973.373135376567
789.4670148823006 14991.221434329218
790.4246885538596 14841.074291601504
791.3821218765861 15038.980333714851
792.3393149228505 14864.619630445095
793.2962677649975 14966.306863843458
794.2529804753303 15063.829039776236
795.20945312613 15038.463448657698
796.1656857896378 14941.669892117421
797.1216785380675 14984.704792493052
798.0774314435985 15120.797413514596
799.0329445783846 15251.676839272617
799.9882180145414 15167.104886591533
800.9432518241574 15121.334362053167
801.89804607929 15272.483688675344
802.852600851962 15303.641621739525
803.8069162141637 15300.053988273134
804.760992237856 15370.937666334681
805.714828994971 15395.58779357186
806.6684265574077 15508.044504770718
807.6217849970271 15388.401493657162
808.574904385674 15307.872002053069
809.527784795142 15398.36482284315
810.4804262972102 15548.829953032686
811.4328289636178 15350.656789126879
812.3849928660748 15186.395420183791
813.3369180762638 15132.964617727712
814.2886046658241 15120.649553082534
815.2400527063783 14984.876931732852
816.1912622695108 14850.720510467308
817.1422334267718 14964.250875383348
818.0929662496856 14794.834538738267
819.0434608097457 14735.77586693113
819.9937171784059 14574.625183886605
820.9437354271013 14568.623439087169
821.8935156272255 14544.659093989569
822.8430578501484 14521.970884564182
823.7923621672016 14402.035024849782
824.7414286496896 14392.286387909568
825.6902573688876 14378.80184662671
826.6388483960363 14417.223320352172
827.5872018023492 14304.53574945834
828.5353176590033 14469.844173786638
829.4831960371503 14253.286260355357
830.4308370079016 14209.349236687412
831.3782406423525 14301.521150990457
832.3254070115545 14255.61810941789
833.2723361865319 14084.139484985217
834.2190282382799 14144.830113118715
835.1654832377644 14208.209165776414
836.1117012559116 14142.860386563607
837.0576823636256 14252.286508272868
838.003426631778 13987.837387624299
838.9489341312074 14014.795997993893
839.8942049327197 14140.036667785005
840.8392391070975 14168.963341401957
841.7840367250865 14133.774216504778
842.7285978573982 14048.375099771074
843.672922574724 14153.969097813915
844.6170109477152 14057.090683048233
845.560863046996 14144.018694031012
846.5044789431595 13986.430642266301
847.4478587067697 14033.764624077967
848.3910024083561 14103.619140230885
849.333910118421 13987.039188301856
850.2765819074339 13965.868071328898
851.2190178458332 14109.712087945716
852.161218004032 14120.416131761687
853.1031824524016 14078.016911862002
854.0449112612987 13994.619040230571
854.9864045010327 14154.535179644343
855.9276622418947 13918.052635409646
856.8686845541379 13983.484040618952
857.8094715079915 13916.488805566632
858.7500231736467 14019.181400199994
859.690339621271 13940.22539425804
860.6304209209939 14081.856511961985
861.5702671429244 13896.110881668565
862.5098783571284 14015.101191123784
863.4492546336569 13941.65102447542
864.3883960425155 13981.24871844888
865.3273026536863 13890.92386287975
866.2659745371238 14053.300481601784
867.2044117627465 14148.70190918057
868.1426144004472 13929.084737741941
869.0805825200823 14051.646319399675
870.0183161914847 14156.072070693543
870.9558154844526 14217.360349596376
871.8930804687552 14181.25775482634
872.8301112141307 14194.126150711298
873.7669077902865 14276.710408797371
874.7034702669062 14330.942421129686
875.6397987136315 14280.877935489436
876.5758932000863 14281.406573226292
877.5117537958522 14403.365397053325
878.4473805704911 14385.814944580896
879.3827735935283 14274.121897969733
880.3179329344603 14396.428626902456
881.2528586627541 14468.815750655926
882.1875508478479 14449.532758266336
883.1220095591489 14266.458104979281
884.0562348660296 14273.017711210065
884.9902268378391 14448.009922267744
885.9239855438955 14333.287265757335
886.8575110534839 14170.674445237566
887.7908034358588 14249.196964035244
888.7238627602474 14177.97041800147
889.6566890958475 14185.685010312587
890.5892825118208 14077.504720493609
891.5216430773125 14072.131397401117
892.4537708614189 14017.162436387467
893.3856659332196 13946.437130749491
894.3173283617652 13931.506506718753
895.2487582160684 13865.50402198877
896.179955565116 13964.432791692621
897.110920477864 13788.171655761063
898.0416530232451 13860.304996016412
898.9721532701478 13653.742595792373
899.9024212874428 13844.104238732523
900.8324571439662 13655.094852893157
901.7622609085302 13691.492133930287
902.6918326499072 13576.321999567048
903.6211724368477 13651.31488483437
904.5502803380696 13630.42693893656
905.4791564222614 13728.638708758072
906.4078007580792 13658.56710676754
907.3362134141571 13625.943227737589
908.2643944590909 13667.848067749077
909.1923439614493 13561.285282247762
910.1200619897754 13524.79413375922
911.0475486125779 13754.227772222312
911.9748038983344 13456.380297022082
912.9018279155007 13549.374549355038
913.8286207324982 13396.02187116481
914.7551824177117 13415.891439219282
915.6815130395116 13579.55708563628
916.6076126662283 13391.745415177491
917.533481366163 13362.391965451505
918.4591192075914 13441.661296003867
919.3845262587565 13507.696122537895
920.3097025878706 13381.813199381557
921.2346482631237 13275.569466120409
922.1593633526682 13410.947953934103
923.0838479246304 13375.581492192863
924.0081020471061 13469.966405378675
924.9321257881656 13188.739367254218
925.8559192158464 13253.773002951679
926.7794823981512 13236.053078275965
927.7028154030686 13099.816170810675
928.6259182985414 13150.326570586461
929.5487911524906 13279.554983535414
930.4714340328119 13215.45618495346
931.3938470073608 13075.107488458689
932.3160301439748 13127.442507881677
933.2379835104548 13151.724124558294
934.1597071745709 13168.604837242736
935.0812012040769 13236.413927811465
936.002465666681 13150.484513820124
936.9235006300696 13237.8825434957
937.8443061619055 13078.19732707871
938.7648823298077 13111.071236837914
939.6852292013809 13116.192908699053
940.6053468441951 13290.354687697652
941.5252353257874 13039.13708556005
942.4448947136698 13147.047872751436
943.364325075323 13033.918312698663
944.2835264782043 13201.830272981355
945.2024989897309 13168.471050551694
946.1212426773054 13229.948549886001
947.0397576082851 13173.068508273389
947.9580438500125 13311.0046882506
948.8761014697939 13224.881728383081
949.7939305349064 13205.390147886103
950.7115311125999 13177.138660746097
951.6289032700952 13263.073658240039
952.5460470745875 13276.994949927195
953.4629625932339 13167.437522735272
954.3796498931715 13244.18096297241
955.2961090415029 13316.334112420163
956.2123401053068 13200.0912350268
957.1283431516276 13256.072967871933
958.0441182474842 13053.426483369014
958.9596654598663 13216.64837566599
959.8749848557309 13189.392868837813
960.7900765020167 13108.464298107234
961.7049404656209 13067.399648198189
962.6195768134185 13110.127091069702
963.5339856122537 13105.509374179324
964.4481669289453 13116.56397792951
965.3621208302793 13004.3823354309
966.2758473830145 13018.978113297055
967.1893466538822 13183.785043797976
968.1026187095813 12972.931011304208
969.0156636167867 13029.374549598382
969.9284814421426 13075.818909306412
970.8410722522622 12997.359662152903
971.753436113735 13050.032956915742
972.6655730931161 12920.045808700881
973.5774832569368 13163.730173799006
974.4891666716958 12961.486810423949
975.4006234038698 12869.555350951188
976.3118535198955 12841.28112814889
977.2228570861935 13074.558301482692
978.1336341691494 13045.875557160887
979.0441848351202 12875.609899778254
979.9545091504333 12976.983661948389
980.864607181391 13023.843851451926
981.7744789942699 12980.884507095932
982.6841246553086 13069.7957355894
983.5935442307236 12944.265047194242
984.5027377867027 13159.098396762021
985.4117053894024 13003.593181226719
986.3204471049557 12952.312602344307
987.2289629994648 13084.236539912292
988.1372531390007 13072.473311563492
989.0453175896091 12996.256101115347
989.9531564173067 13114.508562942268
990.860769688079 12947.206715986384
991.7681574678918 13042.282698464174
992.6753198226706 13158.784936844226
993.582256818323 13121.62127257133
994.4889685207218 13186.199303656196
995.3954549957143 13338.506186546403
996.301716309119 13178.326697550603
997.2077525267232 13215.606001973176
998.1135637142943 13226.776889836454
999.0191499375615 13332.523406517876
999.924511262232 13298.309236540003
1000.8296477539861 13256.246545999657
1001.7345594784656 13199.269194483195
1002.6392465012996 13209.550442059519
1003.5437088880753 13223.817618066565
1004.4479467043584 13123.948516736555
1005.3519600156869 12973.548778723463
1006.2557488875718 13084.368354883434
1007.1593133854858 13078.001506343422
1008.0626535748888 13097.342660812734
1008.9657695212009 12953.835729501796
1009.8686612898182 13203.34519981153
1010.7713289461135 13081.015379697901
1011.6737725554212 13060.628777058075
1012.5759921830577 13010.964934694133
1013.4779878943027 13051.929368980538
1014.379759754418 12923.351733407508
1015.2813078286254 12868.569212343868
1016.18263218213 12827.935388644562
1017.0837328801026 12932.896240778562
1017.9846099876886 13009.680613290413
1018.8852635700023 12749.29557699063
1019.7856936921362 12662.35031327912
1020.6859004191447 12900.778858287067
1021.5858838160675 12830.720440733021
1022.4856439479063 12670.27608744294
1023.3851808796389 12722.661805014053
1024.2844946762143 12856.640303424552
1025.183585402554 12626.81713970968
1026.082453123554 12563.306084947024
1026.9810979040776 12687.276757588326
1027.8795198089647 12613.865676964135
1028.777718903024 12606.020008280908
1029.6756952510368 12533.565243053905
1030.5734489177648 12468.657286425452
1031.4709799679313 12608.681926986119
1032.3682884662358 12678.606244933704
1033.2653744773506 12527.584503383747
1034.1622380659192 12441.174833656647
1035.058879296559 12634.966384496434
1035.9552982338591 12605.403251577034
1036.8514949423825 12563.706230971995
1037.7474694866614 12580.98744834508
1038.6432219312028 12716.575257271796
1039.5387523404825 12811.03860743816
1040.4340607789582 12680.589528645987
1041.3291473110476 12655.763744452242
1042.2240120011465 12900.412051693029
1043.1186549136273 12941.598023853117
1044.0130761128294 12812.746393560768
1044.9072756630649 12947.904492549173
1045.8012536286205 13124.134122738726
1046.6950100737577 12903.643540626303
1047.588545062701 13026.712784474697
1048.481858659663 13019.839557726244
1049.3749509288118 13194.659945770429
1050.2678219343034 12977.858301575463
1051.1604717402515 12945.132741565389
1052.0529004107575 12807.074395728789
1052.9451080098825 12946.714869502419
1053.8370946016694 12902.752474556259
1054.7288602501267 12931.484505081671
1055.6204050192446 12826.419794032465
1056.511728972977 12924.409136052042
1057.402832175254 12856.30525581232
1058.2937146899785 12729.649737494286
1059.1843765810263 12729.857755150348
1060.0748179122456 12774.679738955743
1060.9650387474576 12754.649863145376
1061.855039150456 12770.69688686426
1062.7448191850071 12674.471281521899
1063.6343789148505 12683.961715499932
1064.5237184037014 12695.083298178393
1065.412837715241 12522.215349186074
1066.3017369131267 12549.47204389291
1067.190416060992 12642.984513338246
1068.0788752224398 12442.06026969736
1068.9671144610438 12533.51425201771
1069.8551338403558 12489.11538470337
1070.7429334239023 12674.382979156138
1071.6305132751695 12423.0611283941
1072.517873457633 12524.537077532355
1073.4050140347335 12398.94268510511
1074.2919350698776 12591.13122085325
1075.1786366264623 12495.419730090252
1076.0651187678395 12418.308059798572
1076.95138155735 12329.385648326417
1077.8374250582929 12441.788536879201
1078.7232493339507 12434.736710783205
1079.608854447577 12425.34157397064
1080.4942404623907 12267.881424189743
1081.3794074415982 12446.510353984399
1082.2643554483657 12379.184236234112
1083.149084545841 12334.808767008108
1084.033594797138 12188.223813364308
1084.9178862653516 12324.726137444684
1085.8019590135427 12371.366517615807
1086.6858131047484 12361.166242652664
1087.5694486019802 12376.249170811065
1088.4528655682225 12340.903584347692
1089.3360640664287 12545.117959440073
1090.2190441595321 12299.968760946429
1091.1018059104317 12391.195910153185
1091.98434938201 12464.344731500652
1092.866674637111 12438.414609235677
1093.748781738559 12483.880003451455
1094.6306707491512 12259.763750741884
1095.5123417316554 12459.521284858776
1096.3937947488157 12466.05717628695
1097.2750298633455 12336.755188290392
1098.156047137938 12293.565049317802
1099.0368466352556 12469.725156412711
1099.9174284179317 12420.282861252063
1100.7977925485757 12221.6753642563
1101.6779390897755 12201.650890764318
1102.5578681040806 12273.920778669655
1103.4375796540226 12223.200464065758
1104.3170738021054 12190.114500672586
1105.1963506108077 12117.64775703986
1106.0754101425773 12215.067462734909
1106.9542524598382 12077.385702908106
1107.8328776249855 12039.82044042105
1108.7112857003904 12041.42186585917
1109.5894767483987 12021.78065016762
1110.4674508313292 12117.873230801357
1111.3452080114657 12133.918872849707
1112.2227483510815 12214.72825006404
1113.1000719124077 12245.710528514213
1113.9771787576592 12231.524956848416
1114.854068949022 12116.224147309802
1115.7307425486542 12331.081996681014
1116.6071996186893 12380.530479665978
1117.483440221229 12635.041173133153
1118.3594644183577 12468.960282594238
1119.235272272128 12490.369745974695
1120.1108638445658 12717.530766952123
1120.9862391976712 12853.581116920557
1121.8613983934229 12715.997447664882
1122.7363414937627 12827.397325269563
1123.6110685606182 12834.495821587812
1124.485579655884 13122.424456224297
1125.359874841426 12957.454867782692
1126.2339541790916 12975.512098579782
1127.1078177306936 13212.188925337323
1127.9814655580267 13001.845003968901
1128.854897722851 13123.04118811521
1129.7281142869106 13064.41558287992
1130.6011153119125 13194.723301380993
1131.473900859548 13211.128423731769
1132.3464709914697 13115.077022142641
1133.2188257693178 12954.424557344959
1134.0909652546961 12977.055257914679
1134.96288950919 12881.275056774753
1135.8345985943506 12995.475709749593
1136.7060925717087 12786.88535857904
1137.57737150277 12866.684607856336
1138.4484354490069 12810.151956028652
1139.3192844718778 12723.522157768024
1140.1899186327992 12464.511440219796
1141.060337993178 12618.24920309185
1141.930542614382 12460.700094078527
1142.8005325577597 12421.663251383437
1143.670307884635 12207.255698524907
1144.5398686563003 12393.49996547661
1145.409214934025 12209.976272973143
1146.2783467790541 12101.281854583434
1147.1472642526023 12028.010291794903
1148.0159674158622 12096.604410102997
1148.8844563300026 11813.692959494938
1149.7527310561618 11793.75629583273
1150.6207916554504 11803.48792861179
1151.4886381889592 11765.014957331457
1152.3562707177498 11848.58532093465
1153.2236893028585 11780.574963885669
1154.090894005296 11756.814593251322
1154.9578848860474 11761.858787130812
1155.8246620060709 11716.459315811935
1156.6912254262988 11644.9546786337
1157.5575752076438 11604.83876909335
1158.42371141098 11744.428336659072
1159.2896340971656 11637.147207526858
1160.1553433270346 11589.473028040684
1161.0208391613887 11624.583636770518
1161.8861216610057 11689.4789461439
1162.75119088664 11619.869067265958
1163.6160468990201 11463.695658959903
1164.4806897588442 11418.625456780497
1165.3451195267917 11653.479264872722
1166.2093362635114 11635.368161486607
1167.0733400296285 11510.87011642913
1167.9371308857444 11450.32570281587
1168.8007088924278 11507.874814656894
1169.6640741102328 11697.88057795048
1170.5272265996773 11504.453463157126
1171.390166421259 11284.795834446977
1172.252893635452 11555.67028209367
1173.1154083026995 11661.37485161779
1173.977710483421 11599.671332514354
1174.8398002380145 11402.823383396124
1175.7016776268483 11600.515343051004
1176.563342710264 11454.073605228641
1177.4247955485826 11479.834268583127
1178.2860362020947 11533.030058945424
1179.147064731069 11425.755760249453
1180.0078811957483 11559.12386324049
1180.8684856563486 11498.071935031538
1181.7288781730604 11512.257990741387
1182.589058806052 11657.441859627386
1183.4490276154593 11783.600771976451
1184.3087846614017 11627.458204428189
1185.1683300039676 11594.86049070942
1186.027663703222 11741.645922205958
1186.8867858192025 11683.128308845004
1187.7456964119228 11628.09050299019
1188.6043955413716 11784.258600433148
1189.4628832675116 11861.733144347094
1190.3211596502842 11811.155067210184
1191.179224749596 11934.330234687253
1192.0370786253388 11825.405936864974
1192.8947213373758 11971.867367044766
1193.7521529455407 12071.10060879719
1194.6093735096438 11961.618629004623
1195.466383089477 11962.28686226339
1196.3231817447977 12054.382456721583
1197.1797695353398 12149.268373986493
1198.0361465208189 11990.508596821324
1198.8923127609214 11933.628230951212
1199.7482683153048 12083.053958100381
1200.6040132436028 12133.527543423794
1201.459547605431 12030.644448255905
1202.3148714603722 11821.051821273444
1203.1699848679855 12027.166573766815
1204.0248878878065 12017.830756397812
1204.8795805793507 11897.311672984752
1205.7340630020935 11974.077777969746
1206.5883352155033 12088.271181564192
1207.4423972790064 11955.657706974456
1208.2962492520237 11882.130363031203
1209.1498911939307 11834.856423004147
1210.0033231640937 11897.61814419556
1210.8565452218427 11883.053106079913
1211.7095574264913 11733.967511724304
1212.5623598373222 11665.189660961556
1213.4149525135963 11700.841917099651
1214.2673355145507 11692.879925645546
1215.1195088993936 11488.686206336806
1215.9714727273113 11628.875202577243
1216.8232270574663 11675.204141763648
1217.6747719489904 11461.602066078674
1218.5261074609934 11445.378217759135
1219.3772336525653 11470.789415900164
1220.2281505827668 11464.51445061947
1221.0788583106296 11543.195948257959
1221.9293568951707 11330.697877246075
1222.7796463953746 11295.9105972102
1223.629726870202 11434.231747754759
1224.4795983785934 11551.116903203829
1225.3292609794553 11337.09488231353
1226.1787147316809 11225.288576924362
1227.0279596941327 11477.408465075065
1227.8769959256424 11423.069926851029
1228.7258234850306 11388.102979071366
1229.5744424310833 11150.640718162536
1230.422852822563 11379.637154445969
1231.2710547182105 11436.743434486325
1232.119048176739 11346.099712049037
1232.9668332568417 11214.566317382383
1233.8144100171812 11328.73298165339
1234.6617785163999 11379.503537470939
1235.508938813111 11157.346943759636
1236.3558909659114 11228.75820867894
1237.2026350333617 11381.72271478146
1238.049171074008 11393.17056675157
1238.8954991463652 11214.074739945314
1239.741619308932 11128.023644772224
1240.587531620169 11215.12933055222
1241.4332361385277 11299.51414472977
1242.2787329224248 11031.694093899308
1243.1240220302534 11055.107260807865
1243.9691035203869 11114.867091673237
1244.813977451171 11257.437061258704
1245.6586438809263 11175.069791357904
1246.5031028679496 11050.806437669518
1247.3473544705157 11233.308812898242
1248.1913987468706 11131.695377431777
1249.0352357552383 11020.80134402464
1249.8788655538228 11044.067282281905
1250.7222882007918 11210.984615446625
1251.565503754302 11272.634767923935
1252.4085122724755 11115.362045653541
1253.2513138134182 11182.85103368507
1254.0939084352049 11137.502280311326
1254.9362961958905 11242.775537334333
1255.7784771535007 11118.256764080052
1256.6204513660432 11138.988135847372
1257.4622188915 11286.739603926995
1258.3037797878242 11291.813790612858
1259.1451341129468 11045.358990451214
1259.9862819247755 11108.365358862091
1260.8272232811978 11154.11544500643
1261.6679582400666 11381.133282557481
1262.5084868592203 11087.861629502771
1263.34880919647 10935.812239920513
1264.1889253095997 11148.24856147994
1265.0288352563712 11273.439857045536
1265.8685390945266 11055.595692424202
1266.7080368817751 11238.569566986305
1267.5473286758115 11361.613905219698
1268.386414534294 11234.255961676463
1269.2252945148703 10975.675568043927
1270.0639686751547 11026.042846200358
1270.9024370727402 11140.059811712239
1271.7406997651997 11021.787301626078
1272.5787568100714 11109.42384864932
1273.4166082648808 11061.354024517615
1274.2542541871244 11088.053257132613
1275.091694634275 11300.837244234723
1275.9289296637817 11013.723801347118
1276.7659593330663 11148.22031557446
1277.6027836995308 11086.983349166043
1278.4394028205552 11188.105672267619
1279.2758167534867 10997.871640895803
1280.112025555658 11111.003118343753
1280.9480292843746 11133.433734449241
1281.7838279969128 10914.388542408418
1282.6194217505326 11039.139442781097
1283.4548106024686 10868.247605655373
1284.289994609926 10907.520535402058
1285.1249738300921 11213.67644579022
1285.959748320127 10906.190865975728
1286.7943181371702 10924.603559060994
1287.6286833383328 11004.817135395393
1288.4628439807038 11078.407303098149
1289.2968001213521 10910.102450493367
1290.1305518173194 11052.277486048988
1290.9640991256183 11045.333653157084
1291.7974421032523 10927.157835743006
1292.630580807183 11045.158162233452
1293.463515294361 10994.389940166251
1294.29624562171 10972.51411076179
1295.12877184613 11004.336877628399
1295.961094024493 11037.17809743189
1296.79321221365 11055.72497949881
1297.6251264704333 11060.953930101366
1298.4568368516466 11380.499120990347
1299.2883434140658 11193.329642631328
1300.1196462144526 11042.544649107489
1300.9507453095375 11201.311739163142
1301.7816407560313 11097.623308186006
1302.6123326106172 11075.361070842086
1303.4428209299622 11033.176186481842
1304.2731057707024 11223.095545647027
1305.1031871894502 11062.680287681284
1305.933065242798 11189.394673664281
1306.7627399873181 11113.792553829933
1307.5922114795467 11476.476183108734
1308.4214797760123 11389.049041625047
1309.2505449332057 11232.023074058558
1310.0794070076026 11341.711579017683
1310.9080660556538 11432.193751946143
1311.736522133786 11423.046407892849
1312.5647752983987 11166.302373136048
1313.3928256058734 11131.770075465498
1314.2206731125661 11386.477619355635
1315.048317874809 11393.152311991867
1315.8757599489109 11295.535111933943
1316.7029993911547 11350.647829443322
1317.5300362578055 11518.503518844565
1318.356870605101 11356.859811184004
1319.183502489257 11288.178073710007
1320.0099319664623 11412.888556414671
1320.836159092889 11496.604258016301
1321.66218392468 11557.985841998081
1322.4880065179532 11308.90490340929
1323.3136269288134 11407.466349000115
1324.1390452133292 11423.129942253418
1324.9642614275563 11522.899039897427
1325.7892756275214 11615.212098958733
1326.6140878692295 11288.135632314485
1327.4386982086617 11714.532012299282
1328.2631067017755 11452.050191358288
1329.0873134045069 11495.14063065675
1329.911318372764 11250.82621736892
1330.735121662441 11344.304640154396
1331.558723329399 11181.38043068975
1332.3821234294774 11348.275774458056
1333.2053220185007 11148.56529007315
1334.0283191522612 11177.78510861983
1334.851114886529 11230.171256479756
1335.6737092770582 11010.568647001885
1336.4961023795695 10986.204937978904
1337.3182942497697 11077.838790546333
1338.1402849433325 11138.511679697342
1338.962074515921 10878.251990453178
1339.7836630231632 10877.086315407923
1340.6050505206676 11185.571731900654
1341.426237064028 11080.158421909366
1342.2472227088037 11210.172302160656
1343.0680075105338 10733.999174111223
1343.888591524741 10669.397292966954
1344.7089748069138 11015.251775033843
1345.5291574125276 10667.797894288196
1346.3491393970307 10541.725337604325
1347.168920815846 10714.341693858407
1347.9885017243778 10709.512788827164
1348.8078821780036 10603.72261238658
1349.6270622320844 10688.50461597509
1350.4460419419447 10693.119626909773
1351.2648213629054 10746.599379885947
1352.0834005502438 10561.39675152172
1352.90177955923 10603.459575768302
1353.7199584451064 11015.857925860264
1354.5379372630887 10629.318675152643
1355.355716068374 10548.351268854409
1356.1732949161305 10570.694783053881
1356.9906738615155 10450.45617962008
1357.8078529596478 10684.189472074342
1358.6248322656375 10576.099068783842
1359.441611834567 10376.192363653267
1360.2581917214866 10738.602842595807
1361.0745719814367 10306.185459855773
1361.890752669433 10319.562587152584
1362.7067338404577 10409.777103465527
1363.5225155494845 10615.489877569657
1364.3380978514506 10646.941408273055
1365.1534808012839 10328.64539285718
1365.9686644538815 10264.029803449324
1366.783648864117 10604.19240019155
1367.5984340868417 10560.865906589508
1368.413020176893 10426.43275296891
1369.2274071890715 10257.432105596014
1370.0415951781652 10482.47221521096
1370.8555841989346 10271.463207909448
1371.6693743061223 10226.779598404015
1372.48296555444 10204.042380476125
1373.2963579985844 10416.965071142735
1374.1095516932255 10343.374786834074
1374.9225466930166 10293.141512892147
1375.7353430525782 10170.92876970099
1376.5479408265164 10170.903761502883
1377.36034006941 10313.561491901695
1378.1725408358216 10406.775804368672
1378.9845431802805 10180.406533838133
1379.796347157304 10471.639691703347
1380.6079528213813 10435.066503750877
1381.4193602269788 10161.681056735126
1382.230569428546 10163.41505849743
1383.0415804805016 10537.311319850993
1383.852393437246 10423.318566930364
1384.6630083531563 10183.572902203934
1385.4734252825892 10191.114223145141
1386.2836442798798 10293.699398875026
1387.0936653993322 10376.857603918525
1387.9034886952395 10169.339300829926
1388.713114221864 10318.309270297661
1389.5225420334482 10233.477473208879
1390.331772184214 10174.773552942
1391.1408047283585 9992.937972939568
1391.9496397200564 10150.037249962505
1392.758277213461 10306.592736259641
1393.5667172627054 10262.282230932271
1394.3749599218918 10013.59659860316
1395.1830052451114 9900.137805814466
1395.9908532864265 10055.605318938431
1396.7985040998774 10271.632666051968
1397.6059577394808 9961.567830378359
1398.4132142592352 10033.322669624908
1399.2202737131156 10027.415105670396
1400.027136155073 10014.90697275455
1400.8338016390353 9931.001944843678
1401.6402702189134 9937.336361106707
1402.446541948586 9962.62966576295
1403.2526168819204 9814.783651391206
1404.058495072757 9845.865867028919
1404.8641765749107 9895.626601533364
1405.6696614421799 9913.17814196479
1406.4749497283356 10003.794781009983
1407.280041487129 9676.55159357216
1408.084936772295 9565.134304940744
1408.8896356375335 9867.516432786544
1409.6941381365323 9862.857274100425
1410.498444322955 9630.971566387425
1411.3025542504402 9603.775417115929
1412.106467972606 9735.8379602073
1412.9101855430508 9787.682859051687
1413.7137070153458 9589.709581148534
1414.5170324430437 9648.857677090113
1415.320161879672 9652.357263934839
1416.1230953787435 9930.121169068661
1416.925832993742 9613.199920045303
1417.7283747781275 9452.687636209219
1418.5307207853439 9681.862941022542
1419.3328710688093 9560.02400826277
1420.134825681922 9465.260792021207
1420.9365846780584 9508.699122066027
1421.7381481105713 9816.223620713741
1422.539516032788 9709.608876919958
1423.3406884980232 9388.679653624862
1424.1416655595604 9486.413860747045
1424.942447270665 9546.59851493734
1425.7430336845828 9768.042154254083
1426.5434248545298 9529.703861935064
1427.3436208337116 9724.940539321358
1428.143621675301 9675.897981541839
1428.9434274324558 9776.206887466125
1429.7430381583108 9459.548998273473
1430.5424539059713 9613.788733075742
1431.3416747285337 10116.857654093625
1432.1407006790632 9816.698191040245
1432.9395318106053 9710.72882838138
1433.7381681761835 9597.106114631437
1434.5366098288014 9706.457810192562
1435.3348568214424 9769.394353109008
1436.1329092070573 9641.588990865264
1436.9307670385879 9574.456627223197
1437.7284303689503 9784.153150541975
1438.5258992510335 9876.408044938249
1439.3231737377118 9665.478306821558
1440.1202538818306 9641.990702575155
1440.9171397362225 9807.1467663577
1441.7138313536925 9729.253353061165
1442.5103287870243 9532.23212831501
1443.3066320889775 9430.6659584468
1444.1027413122956 9772.702170629684
1444.8986565096966 9538.007673441944
1445.694377733882 9520.568168544238
1446.4899050375207 9328.928511745802
1447.2852384732687 9465.744693935445
1448.0803780937622 9593.704921480448
1448.8753239516063 9298.409834295624
1449.6700760993954 9330.702444808818
1450.464634589689 9290.792843801619
1451.2589994750397 9578.420560853732
1452.0531708079689 9255.744090899874
1452.8471486409799 9305.18967943706
1453.6409330265524 9442.933136159127
1454.4345240171442 9365.255775502514
1455.2279216651987 9379.363930211519
1456.0211260231263 9329.894154490281
1456.8141371433194 9508.601127722985
1457.6069550781594 9377.095257713729
1458.3995798799897 9157.380150512428
1459.1920116011424 9047.670565955143
1459.98425029393 9169.51194328107
1460.7762960106338 9094.399490067048
1461.5681488035225 9097.54323412664
1462.3598087248392 9160.421628678147
1463.1512758268036 9279.127995471676
1463.942550161617 9169.39273434372
1464.7336317814625 8962.642347027899
1465.524520738496 8851.912775376752
1466.3152170848552 8996.838408276164
1467.1057208726506 9077.051094537614
1467.8960321539817 8927.40471729277
1468.6861509809169 8788.36876141105
1469.4760774055085 8954.943079405255
1470.265811479785 9032.175379022985
1471.055353255755 8836.556077171968
1471.844702785409 8726.118983426542
1472.6338601207044 8816.176922695715
1473.4228253135934 9290.36392883788
1474.2115984159936 8697.55551114204
1475.0001794798063 8607.564096418238
1475.7885685569145 8923.086978373662
1476.576765699172 8786.498026821635
1477.3647709584238 8641.640398372745
1478.1525843864802 8854.650737704587
1478.9402060351367 8945.570107199874
1479.7276359561693 8820.77586547934
1480.514874201328 8547.778692597149
1481.3019208223468 8568.74696636285
1482.0887758709323 8622.008939038165
1482.8754393987747 8785.166680437333
1483.6619114575406 8520.987711374397
1484.4481920988783 8700.526372662662
1485.2342813744108 8759.149524650238
1486.0201793357446 8806.2574163748
1486.8058860344572 8614.22006471337
1487.591401522117 8541.397687625857
1488.3767258502594 8675.795662939068
1489.1618590704056 8674.462583771658
1489.9468012340494 8606.032572161186
1490.7315523926754 8573.12152095131
1491.5161125977356 8817.369851808853
1492.3004819006637 8578.224555922614
1493.084660352877 8595.995581231278
1493.8686480057622 8577.27955127803
1494.6524449106964 8862.67166170292
1495.4360511190262 8722.145529565345
1496.219466682087 8619.684744616336
1497.0026916511779 8607.915506070372
1497.7857260775945 8563.839491417193
1498.5685700125996 8622.59243868517
1499.3512235074395 8458.163271864692
1500.133686613337 8424.777414118613
1500.9159593814966 8404.098640661901
1501.698041863101 8826.819950955918
1502.4799341093094 8412.753879716605
1503.2616361712662 8410.506731972257
1504.043148100087 8698.498190286373
1504.8244699468742 8592.865506586593
1505.6056017626997 8389.44905884237
1506.3865435986281 8321.118444113134
1507.1672955056893 8676.536374483167
1507.9478575348967 8410.234670921578
1508.7282297372512 8383.986425359912
1509.5084121637192 8354.99251674798
1510.2884048652577 8459.9375552521
1511.0682078927948 8407.232910493763
1511.8478212972423 8338.367084094498
1512.6272451294917 8269.043327518757
1513.4064794404076 8462.397333945486
1514.1855242808433 8382.354723815884
1514.9643797016215 8327.325963908694
1515.743045753552 8365.199623915889
1516.5215224874191 8487.850335444995
1517.2998099539836 8197.058060714538
1518.077908203999 8314.640573749402
1518.8558172881785 8364.73495705672
1519.633537257234 8519.766829830904
1520.4110681618404 8437.493993877466
1521.1884100526604 8577.762191696247
1521.9655629803365 8263.0449919316
1522.7425269954856 8543.034307525919
1523.5193021487103 8656.22981399731
1524.2958884905856 8252.35436431159
1525.0722860716687 8312.439149538925
1525.848494942502 8478.006960279676
1526.624515153595 8433.669771230947
1527.4003467554485 8370.137896923512
1528.175989798534 8478.006680303453
1528.9514443333064 8411.21053080537
1529.726710410203 8686.542079507954
1530.5017880796331 8328.20297238075
1531.276677391992 8376.116624632241
1532.0513783976457 8567.6663893174
1532.825891146953 8447.516018485372
1533.6002156902414 8500.598543583797
1534.3743520778207 8763.766031372668
1535.1483003599806 8398.442020865556
1535.9220605869923 8457.947779839922
1536.6956328091019 8470.846569124664
1537.4690170765407 8594.539933178812
1538.242213439511 8574.468542719604
1539.015221948208 8475.94910519147
1539.78804265279 8329.03990441648
1540.560675603405 8267.027558453974
1541.3331208501804 8635.702364962443
1542.1053784432224 8606.685148744093
1542.8774484326168 8474.998187299849
1543.649330868422 8251.785269504362
1544.4210258006842 8472.915631803744
1545.1925332794308 8423.656659707387
1545.9638533546604 8382.30353628567
1546.7349860763552 8328.370946270214
1547.5059314944829 8662.902163121506
1548.27668965898 8404.83405085115
1549.0472606197673 8449.295244073493
1549.817644426752 8236.625564102682
1550.5878411298072 8455.56445816442
1551.3578507787988 8375.470877044412
1552.1276734235635 8405.255910451313
1552.8973091139233 8488.603923285931
1553.6667578996767 8392.456274862663
1554.436019830604 8576.26247746088
1555.20509495646 8518.958757243456
1555.9739833269869 8401.754664784847
1556.7426849919011 8431.229065929478
1557.511200000903 8718.398561736496
1558.2795284036674 8365.578830755754
1559.0476702498509 8318.767093518058
1559.8156255890954 8557.289063191865
1560.5833944710157 8554.591670176163
1561.3509769452048 8441.947584389247
1562.1183730612447 8438.562754842676
1562.8855828686865 8528.175524994089
1563.6526064170703 8803.934871624693
1564.4194437559127 8589.286486465948
1565.1860949347047 8396.155540811675
1565.9525600029283 8630.658164542296
1566.7188390100328 8698.531344289453
1567.4849320054564 8366.03232688726
1568.250839038612 8564.842117685746
1569.0165601588997 8631.352017911893
1569.7820954156887 8751.336301233998
1570.5474448583373 8367.433912434564
1571.31260853618 8304.06212915829
1572.0775864985299 8397.469246403516
1572.8423787946813 8523.961833264126
1573.6069854739108 8414.62701379917
1574.371406585471 8534.656413118086
1575.1356421785986 8515.042709533362
1575.899692302506 8490.509253466837
1576.6635570063845 8506.298468561885
1577.4272363394157 8450.991150599966
1578.190730350747 8513.42743605225
1578.9540390895163 8396.271109101832
1579.7171626048384 8176.430473993149
1580.480100945806 8337.51956594097
1581.2428541614918 8455.668558987292
1582.0054223009538 8519.418913749721
1582.767805413223 8339.936461003848
1583.5300035473156 8360.492644321876
1584.292016752228 8552.334869654229
1585.0538450769309 8407.019314744764
1585.8154885703807 8271.842073746451
1586.5769472815136 8281.923376751027
1587.3382212592405 8437.015441252377
1588.099310552463 8465.90647175279
1588.8602152100484 8086.136447188682
1589.6209352808564 8423.026766980625
1590.3814708137234 8433.846735098878
1591.14182185746 8125.749249812633
1591.9019884608679 8344.232771260207
1592.6619706727215 8080.315561124678
1593.4217685417734 8248.832605629495
1594.1813821167616 8418.122110795632
1594.9408114464022 8007.05648832632
1595.7000565793933 8246.258348879679
1596.459117564409 8298.205578425735
1597.2179944501113 8124.289509610399
1597.9766872851324 8113.746377762427
1598.735196118092 8145.2247515689305
1599.4935209975883 8318.913500404204
1600.2516619721973 8191.11682656003
1601.0096190904787 8109.248209821878
1601.7673924009723 8099.122163288195
1602.524981952196 8123.490750283051
1603.2823877926476 7976.710443402968
1604.0396099708087 8046.92189562197
1604.7966485351371 8144.766147724053
1605.5535035340745 7965.722861221951
1606.3101750160404 8260.34261683926
1607.0666630294363 8142.001937601961
1607.822967622642 7831.646619349453
1608.5790888440224 8223.604505404448
1609.3350267419137 8396.348187140446
1610.0907813646445 8005.625231101216
1610.8463527605145 8079.09380625559
1611.601740977805 8182.351053531062
1612.356946064785 8179.6282357922655
1613.1119680696902 7925.040896071718
1613.8668070407512 7844.557677059073
1614.6214630261748 8080.489119253778
1615.375936074137 7978.712402313935
1616.1302262328118 8069.915051834541
1616.8843335503425 7974.439265522886
1617.638258074854 7909.495434772327
1618.391999854457 7988.639169083313
1619.1455589372363 8022.253530038992
1619.8989353712623 8077.77956636096
1620.65212920458 7819.6968242191
1621.4051404852235 7909.269114966461
1622.1579692611976 7845.379218890821
1622.9106155804966 7828.922311567256
1623.663079491087 7921.092177590828
1624.4153610409248 7858.774051070592
1625.1674602779385 7936.6043433240175
1625.9193772500403 7776.979336733743
1626.6711120051277 7955.949837206582
1627.4226645910676 7876.258341231587
1628.174035055721 7715.529523253759
1628.9252234469168 7794.506191552083
1629.676229812474 7736.816855496792
1630.4270542001905 8341.364531885207
1631.1776966578382 7881.521098947151
1631.9281572331747 7800.738922021349
1632.678435973945 7931.132477997524
1633.4285329278573 7889.263335422484
1634.1784481426203 7725.662661760402
1634.9281816659113 7939.980254962162
1635.677733545388 8095.9095592077065
1636.4271038286934 7922.462668159555
1637.176292563452 8016.625349640529
1637.9252997972635 8012.895877376531
1638.674125577716 8009.651816722467
1639.4227699523672 8211.01391110362
1640.171232968767 7874.464649183281
1640.9195146744423 8051.292015606962
1641.6676151168977 8031.92784854315
1642.4155343436178 8143.388480820695
1643.1632724020765 8021.079533842322
1643.9108293397167 7866.0188405006
1644.658205203974 7897.9518245187965
1645.4054000422566 8423.369899922678
1646.1524139019566 7994.061404929026
1646.8992468304423 7915.815454819969
1647.6458988750728 7970.592280935465
1648.3923700831765 8037.317112569743
1649.1386605020743 7893.854829157698
1649.8847701790564 8021.8262666046485
1650.6306991614038 8017.901278009667
1651.3764474963682 8057.61865567066
1652.1220152311944 7908.942273760455
1652.867402413096 8013.5694859082
1653.6126090892776 7993.8189078164505
1654.3576353069184 8046.485031629849
1655.1024811131829 7851.94475678609
1655.8471465552066 7875.830653756246
1656.5916316801213 8041.582749247347
1657.3359365350298 7901.315818684632
1658.0800611670165 7666.33522588384
1658.824005623148 7741.750486562807
1659.5677699504722 7548.21730835857
1660.3113541960192 7782.743077030112
1661.054758406799 7692.908773524965
1661.7979826297997 7457.852241830599
1662.5410269119966 7576.643510783145
1663.283891300338 7889.8547416938945
1664.0265758417645 7509.838107882715
1664.7690805831826 7530.411240806627
1665.5114055714948 7690.586514801905
1666.2535508535748 7730.926308215011
1666.9955164762814 7336.446346817216
1667.7373024864555 7266.144105924772
1668.478908930916 7553.519474373087
1669.220335856462 7289.679232317763
1669.9615833098778 7195.6702269718935
1670.7026513379296 7074.3490088904855
1671.44353998736 7226.870344909922
1672.1842493048916 7358.522733590017
1672.9247793372379 7122.470871504376
1673.6651301310812 7287.485657392576
1674.4053017330934 7124.3775972769945
1675.1452941899242 7295.85168204256
1675.885107548207 6959.364654370826
1676.6247418545518 6960.84126698084
1677.3641971555535 6959.9394846844925
1678.1034734977893 7033.909740330059
1678.8425709278108 6982.5485409138055
1679.5814894921605 7051.309491540016
1680.320229237359 6832.071718915775
1681.0587902098978 6986.365951644568
1681.7971724562685 6888.614302917255
1682.5353760229264 6841.737143254699
1683.2734009563173 6857.489981999926
1684.0112473028657 6821.329351513016
1684.7489151089794 6933.241817604287
1685.4864044210462 6964.583537871833
1686.2237152854377 6753.411924305654
1686.960847748498 6930.033137538259
1687.6978018565642 6575.887936316586
1688.434577655944 6595.374830513223
1689.1711751929379 6685.486381744668
1689.9075945138156 6791.120252355011
1690.6438356648396 6700.727829346831
1691.3798986922448 6417.995432843692
1692.1157836422499 6670.942610349611
1692.851490561059 6575.641925530834
1693.587019494853 6607.978365307898
1694.3223704897991 6423.220458773713
1695.0575435920364 6211.5393130453
1695.792538847696 6833.964276404573
1696.527356302886 6357.286024692681
1697.2619960036936 6350.793173291207
1697.9964579961907 6451.14704153573
1698.730742326432 6085.677560449574
1699.4648490404488 6074.269543056342
1700.1987781842563 6176.505872966567
1700.9325298038548 6423.369029096569
1701.6661039452174 6405.922064882153
1702.3995006543082 6294.740074631174
1703.1327199770658 6403.94520370486
1703.865761959416 6119.0336458407355
1704.598626647261 6306.1062609117
1705.3313140864866 6071.380044581473
1706.0638243229587 6122.275884005935
1706.7961574025303 6377.5850358820735
1707.528313371029 6223.013949343924
1708.260292274268 5965.28401932066
1708.9920941580403 6128.02588639505
1709.7237190681226 6226.95421305251
1710.4551670502697 6118.372777588903
1711.18643815022 5798.325142416105
1711.9175324136959 6357.974846712529
1712.6484498863938 5965.077307934224
1713.379190614005 5841.288173401278
1714.109754642188 6108.200362301087
1714.8401420165883 5905.002227149599
1715.570352782839 5979.949438885813
1716.3003869865497 6088.76109939576
1717.0302446733076 5961.007861098985
1717.7599258886876 5876.933394880622
1718.4894306782444 6105.993822527255
1719.2187590875183 5781.161790834287
1719.9479111620203 6079.100417449798
1720.6768869472544 5841.866111259317
1721.4056864887025 6112.686538107287
1722.1343098318284 6125.470301721914
1722.8627570220742 5782.01909047878
1723.591028104871 5746.455706679354
1724.3191231256242 5714.408734435442
1725.0470421297232 5804.54537066677
1725.7747851625427 5819.152486093068
1726.5023522694337 5889.020556766179
1727.2297434957363 5822.949712914669
1727.9569588867635 5744.46700073878
1728.6839984878152 5995.419489169818
1729.4108623441734 5398.85658244032
1730.1375505011038 5916.449513230696
1730.8640630038426 5695.862145055396
1731.5903998976264 5658.730630065051
1732.316561227657 5752.467190056326
1733.0425470391274 5731.006450039076
1733.7683573772065 5800.854982930086
1734.4939922870508 5668.826978035289
1735.2194518137949 5693.7654290253795
1735.9447360025606 5824.295203768005
1736.669844898439 5653.575809096953
1737.3947785465189 5646.122243356492
1738.1195369918605 5538.873946961074
1738.8441202795093 5604.489084515985
1739.5685284544943 5532.853042655753
1740.292761561821 5679.672207217446
1741.0168196464838 5829.470922976495
1741.7407027534518 5685.829979629503
1742.464410927687 5676.234594556796
1743.187944214118 5593.897515684962
1743.9113026576688 5495.625457017146
1744.634486303241 5600.420621418891
1745.3574951957125 5505.061729522301
1746.0803293799509 5713.931514403992
1746.8029889008048 5496.678412319968
1747.5254738031017 5879.191202044837
1748.2477841316504 5505.277628143344
1748.969919931249 5503.860260316046
1749.6918812466665 5534.129524225341
1750.4136681226646 5697.659716336556
1751.1352806039777 5690.304593794902
1751.856718735331 5332.403604226058
1752.5779825614281 5557.259854169034
1753.2990721269507 5633.507711717307
1754.0199874765676 5636.032093375641
1754.7407286549314 5268.263116335441
1755.4612957066693 5516.543959761193
1756.1816886763954 5424.337166167773
1756.9019076087097 5575.215424691624
1757.6219525481865 5640.417467955611
1758.3418235393856 5611.90039181537
1759.061520626854 5607.901878393619
1759.7810438551096 5566.696907836621
1760.5003932686614 5371.663278204061
1761.2195689119999 5643.091092005199
1761.938570829594 5360.250138342834
1762.657399065898 5438.55660966064
1763.376053665348 5415.992630649907
1764.0945346723602 5284.565214031036
1764.812842131334 5635.588736413747
1765.5309760866512 5319.09920846488
1766.2489365826787 5306.564487338682
1766.9667236637597 5460.703460114472
1767.684337374223 5235.583561076488
1768.401777758383 5200.705326270633
1769.1190448605284 5313.12917250612
1769.836138724937 5387.941828926466
1770.5530593958665 5576.45030182185
1771.2698069175603 5496.240447062206
1771.9863813342326 5403.031410408105
1772.702782690094 5514.644332290496
1773.4190110293293 5326.645969148178
1774.1350663961111 5484.61646011465
1774.8509488345844 5210.720124715664
1775.5666583888924 5276.147794353254
1776.2821951031437 5556.345121731523
1776.9975590214362 5315.4682652150705
1777.7127501878585 5459.199965660884
1778.4277686464684 5356.7038735183905
1779.1426144413108 5516.418227944963
1779.8572876164162 5442.541209806089
1780.571788215797 5179.411960866551
1781.2861162834415 5337.911509251806
1782.0002718633277 5312.658627761741
1782.7142549994132 5393.615469519661
1783.4280657356376 5455.998302706538
1784.141704115922 5067.230707131707
1784.855170184177 5372.552882575498
1785.5684639842839 5337.8564774630395
1786.2815855601148 5244.673304449208
1786.9945349555237 5328.514285686728
1787.707312214343 5032.912977857996
1788.4199173803918 5423.5791295294275
1789.132350497468 5232.199920083871
1789.8446116093583 5170.021815579967
1790.556700759822 5209.687714428145
1791.2686179926077 4950.213215410781
1791.9803633514493 5266.174725086509
1792.6919368800554 5031.490732865515
1793.4033386221236 5286.03456329632
1794.1145686213295 5144.611142312997
1794.8256269213307 5523.146703274062
1795.536513565774 5404.450235566671
1796.247228598284 5004.266717164418
1796.9577720624693 5143.244190986818
1797.6681440019165 5163.308145043195
1798.3783444602013 5189.012212436696
1799.0883734808776 5239.244181625923
1799.7982311074884 5391.442933640579
1800.5079173835475 5161.782192292949
1801.2174323525633 5360.558429340561
1801.9267760580187 5154.660482427281
1802.635948543386 5216.811052492393
1803.3449498521113 5158.13353119687
1804.0537800276325 5140.645084567773
1804.7624391133668 5196.805017142731
1805.47092715271 5065.0255300673
1806.1792441890484 5079.1039777916385
1806.8873902657433 5312.346165843221
1807.5953654261448 5094.433579523747
1808.3031697135812 5035.790740077988
1809.0108031713662 5105.909036051816
1809.71826584279 5003.801793238164
1810.425557771141 5052.882615035949
1811.1326789996747 5623.203856561004
1811.839629571632 5202.9080926484
1812.5464095302468 5037.05476166498
1813.2530189187182 5275.42999997203
1813.959457780249 5030.634518725617
1814.6657261580076 5322.437311651835
1815.371824095153 4978.858785391016
1816.0777516348262 5184.11826823351
1816.78350882015 4911.493293945755
1817.4890956942272 5040.28935940443
1818.1945123001533 4971.866580158497
1818.8997586809928 5073.452846036811
1819.6048348798067 4974.081646356103
1820.3097409396287 5066.481896298117
1821.0144769034796 5249.3809009942215
1821.7190428143622 5167.018356975203
1822.423438715261 5276.5218750355725
1823.1276646491478 4950.818004121451
1823.8317206589727 5143.77730708014
1824.5356067876692 5030.81360628161
1825.2393230781581 5096.675109908058
1825.942869573335 4823.7433144079205
1826.646246316086 4920.626512000198
1827.3494533492758 5134.481435410128
1828.052490715756 5137.3980617415045
1828.7553584583547 5036.110840902585
1829.458056619891 5025.806793197435
1830.1605852431585 4837.201780407688
1830.8629443709433 4807.849214756405
1831.5651340460063 4958.174362832332
1832.2671543110919 5066.762452946664
1832.9690052089318 5008.771496502969
1833.6706867822395 4905.519313000422
1834.3721990737104 5146.3259348022875
1835.0735421260233 5014.577387717223
1835.774715981841 5070.442465508173
1836.4757206838058 5201.259611578456
1837.1765562745459 4581.263014598168
1837.8772227966747 4679.638924171637
1838.5777202927839 5080.413039193836
1839.2780488054523 4908.761225335931
1839.9782083772352 4885.918974659502
1840.6781990506806 5217.468435959621
1841.378020868313 5033.131900287334
1842.0776738726418 4911.351736933087
1842.777158106157 4842.598433680552
1843.4764736113375 4798.330791704737
1844.1756204306403 4947.334382328954
1844.8745986065078 4999.012891181644
1845.5734081813607 4723.848900114311
1846.2720491976124 4668.714875902877
1846.970521697649 4894.425687736986
1847.6688257238511 4727.282778864567
1848.3669613185684 4842.4394115903615
1849.0649285241452 4776.944287381554
1849.7627273829057 4827.384228946112
1850.460357937156 4952.444260806802
1851.1578202291857 4675.917304973633
1851.8551143012664 4825.912369650086
1852.5522401956569 4988.906281250684
1853.2491979545957 5065.979763868259
1853.9459876203055 4876.197910767077
1854.6426092349902 4662.105067903178
1855.3390628408451 4751.036375462738
1856.0353484800362 5089.0088375474115
1856.7314661947203 4809.610851027505
1857.4274160270397 4722.622452420883
1858.123198019115 4824.944859055179
1858.8188122130487 4737.034105270976
1859.5142586509319 4826.502491490107
1860.209537374838 4802.526718650779
1860.9046484268183 4709.062746302943
1861.599591848917 5034.69070964977
1862.294367683151 4671.828815086768
1862.988975971528 4793.462574147657
1863.6834167560355 4869.103873596063
1864.3776900786452 4969.190819601352
1865.0717959813119 4680.843308650897
1865.7657345059724 4744.376182286406
1866.4595056945564 4911.075681858412
1867.1531095889586 4900.9392440637785
1867.846546231076 4739.773460477597
1868.5398156627743 5025.431134601784
1869.2329179259123 4711.987859495393
1869.9258530623283 5119.079148556942
1870.618621113843 4556.91039802462
1871.3112221222636 4682.594863094738
1872.0036561293764 4663.4142390524285
1872.695923176956 4902.509834498813
1873.3880233067594 4844.606871459842
1874.0799565605212 4681.003225957511
1874.7717229799673 4836.128764915929
1875.4633226068036 4919.292269775131
1876.1547554827175 4716.797700215145
1876.8460216493859 4693.264478407841
1877.5371211484617 4553.0301030467845
1878.2280540215852 4730.957774398492
1878.9188203103804 4617.86056384456
1879.6094200564548 4679.947471039433
1880.299853301396 4694.189610149578
1880.9901200867826 4805.992713361066
1881.6802204541673 4759.859009634061
1882.3701544450942 4820.209710212609
1883.059922101087 4687.613783055142
1883.7495234636517 4932.041494350552
1884.4389585742792 4690.542402276159
1885.1282274744517 4761.409187184097
1885.8173302056166 5171.164653493287
1886.506266809225 4616.9735043398105
1887.195037326701 4546.007159051344
1887.8836417994517 4650.14146861798
1888.5720802688702 5028.128080124721
1889.260352776333 4740.1825431099
1889.9484593632042 4741.146961814144
1890.63640007082 4688.4464411039135
1891.3241749405151 4400.758833651305
1892.0117840135954 4670.097429129929
1892.6992273313572 4611.105771136619
1893.3865049350788 4543.891406241364
1894.0736168660223 4816.62075437227
1894.7605631654333 4695.165771974914
1895.4473438745408 4558.886803808988
1896.133959034556 4778.395105630817
1896.820408686679 4645.128599399237
1897.506692872088 4863.679606741558
1898.192811631945 4543.946967933012
1898.8787650073991 4688.529485664016
1899.5645530395832 4765.600565878232
1900.2501757696118 4992.373855195032
1900.9356332385796 4552.242407083392
1901.620925487574 4843.362673670258
1902.3060525576602 4689.848912656666
1902.9910144898859 4881.511196200638
1903.6758113252872 4554.701271081789
1904.3604431048789 4605.110013643896
1905.0449098696663 4562.801677278018
1905.7292116606295 4659.0816315187785
1906.4133485187394 4636.839994469888
1907.0973204849488 4264.334695394918
1907.7811276001976 4714.578198832391
1908.4647699053967 4673.6576172947225
1909.1482474414588 4401.372862691596
1909.8315602492694 4548.73847314552
1910.5147083696957 4696.117722328855
1911.1976918436012 4700.97403274782
1911.880510711815 4564.810192942762
1912.5631650151681 4628.078694222302
1913.2456547944657 4638.784235171028
1913.927980090495 4460.387754615464
1914.6101409440362 4567.829941974016
1915.2921373958416 4557.2584045500735
1915.9739694866603 4563.382461122323
1916.655637257214 4801.738311852622
1917.3371407482136 4521.223936774552
1918.0184800003572 4736.743343256685
1918.6996550543154 4671.588859750556
1919.3806659507554 4680.349839660656
1920.0615127303208 4766.844881537724
1920.7421954336423 4773.334126482294
1921.4227141013343 4666.28132892603
1922.103068773993 4527.424922971889
1922.783259492202 4717.778014870441
1923.4632862965227 4496.182187116791
1924.1431492275078 4462.6704759335325
1924.8228483256917 4489.92563513555
1925.5023836315922 4475.469634883754
1926.1817551857057 4228.763432088717
1926.8609630285227 4666.552303159354
1927.5400072005123 4563.010295805396
1928.218887742125 4304.190197849457
1928.8976046938005 4266.21006418086
1929.5761580959588 4523.799432429536
1930.2545479890086 4581.366640829528
1930.9327744133352 4372.398067220454
1931.6108374093164 4370.984564700565
1932.2887370173066 4767.091501489796
1932.9664732776473 4145.480282923055
1933.6440462306673 4508.932136176896
1934.3214559166754 4407.039126999133
1934.9987023759659 4525.2463767372155
1935.675785648813 4418.192618424138
1936.3527057754836 4288.152114743205
1937.029462796223 4670.426782469376
1937.70605675126 4334.345470643866
1938.3824876808085 4429.495849835174
1939.058755625072 4394.490911299432
1939.7348606242267 4290.833109038586
1940.4108027184448 4398.86377514411
1941.0865819478713 4625.629575674349
1941.7621983526478 4179.3884713405805
1942.4376519728921 4249.2784649170535
1943.1129428487038 4411.30236371283
1943.7880710201734 4532.310887831134
1944.4630365273733 4486.250433407983
1945.1378394103576 4190.800456249075
1945.8124797091714 4768.920998206593
1946.4869574638324 4017.918185329134
1947.161272714353 4393.1522784570825
1947.8354255007234 4389.479453861926
1948.5094158629272 4500.737430991505
1949.1832438409183 4441.899161006055
1949.8569094746435 4334.530029148419
1950.530412804037 4627.203270372152
1951.2037538690092 4528.511426034356
1951.8769327094578 4286.870339777243
1952.5499493652678 4413.931914342184
1953.222803876306 4414.601802965238
1953.895496282421 4293.419188900171
1954.5680266234522 4353.9493681272415
1955.2403949392155 4413.400582766747
1955.9126012695142 3967.652320226781
1956.5846456541403 4477.583466156082
1957.2565281328643 4258.832533111631
1957.9282487454457 4370.182116610229
1958.5998075316202 4644.184096914708
1959.27120453112 4403.093345107353
1959.9424397836501 4239.131840271688
1960.613513328908 4479.750679212811
1961.2844252065697 4593.205008685159
1961.9551754563017 4430.860113769743
1962.6257641177453 4243.522705092946
1963.29619123054 4174.662343085171
1963.966456834296 4170.419500300083
1964.6365609686181 4104.987183175074
1965.306503673086 4538.633769974889
1965.976284987275 4171.557830113098
1966.645904950734 4259.438108634053
1967.315363603002 4127.311719144695
1967.9846609836077 4248.461043660262
1968.6537971320486 4218.474788774118
1969.3227720878222 4199.145138268818
1969.9915858904042 4025.6395478522986
1970.660238579252 4439.008739353416
1971.3287301938108 4302.38495615622
1971.997060773514 4032.545119164519
1972.665230357772 4270.534779849058
1973.3332389859843 4069.6543659979957
1974.0010866975335 4115.605922725041
1974.6687735317864 4242.184790581656
1975.3362995280932 4316.362961576166
1976.003664725793 4358.681460612437
1976.6708691642052 3853.8556637777424
1977.3379128826364 4139.063009111465
1978.004795920373 4293.934341010445
1978.6715183166925 4651.05033348589
1979.3380801108524 3849.2820465708346
1980.0044813420973 4289.441229128793
1980.6707220496555 3977.8684462228834
1981.3368022727373 4027.7257081573202
1982.0027220505417 4188.94991097914
1982.66848142225 3942.5751691124397
1983.3340804270283 3899.2897229197793
1983.999519104027 4231.990858728472
1984.6647974923835 4377.767630548481
1985.329915631215 4277.695144112922
1985.99487355963 4236.614372546958
1986.6596713167146 4167.090954524395
1987.3243089415428 4090.211139685363
1987.9887864731754 4406.264209737945
1988.6531039506553 3861.1042825830637
1989.3172614130071 4486.483287174188
1989.9812588992481 4162.909208726984
1990.645096448372 4041.166554390179
1991.3087740993633 4208.866575512696
1991.9722918911848 4152.94666944448
1992.635649862792 4033.0614301910405
1993.2988480531185 4307.0105482172385
1993.9618865010852 4374.288039283293
1994.6247652455968 4011.5074363312283
1995.287484325545 3969.0143517154966
1995.9500437798033 4210.106338331056
1996.6124436472292 3892.4534541415605
1997.2746839666706 4257.956862354757
1997.936764776954 4120.86920097099
1998.598686116895 3937.2926660159865
1999.2604480252903 4461.014355415099
1999.9220505409212 4184.709130501121
2000.5834937025593 3876.709742024713
2001.2447775489582 4079.29956987186
2001.9059021188514 4149.073021354824
2002.5668674509616 4087.6676780805624
2003.2276735839987 4082.5674853922014
2003.8883205566508 4331.215233823406
2004.5488084075987 3953.9114167368184
2005.2091371755014 4030.035259256315
2005.8693068990033 4007.1078507630955
2006.5293176167397 4143.924505411611
2007.1891693673224 4024.30000207733
2007.848862189354 3870.575097587993
2008.5083961214223 4152.05302365425
2009.1677712020955 3860.4764221295823
2009.8269874699254 3858.92850497037
2010.4860449634598 4420.516673575069
2011.1449437212177 3729.1729040168552
2011.8036837817108 4209.976206386822
2012.4622651834325 4368.908558365196
2013.1206879648653 4220.273223700382
2013.7789521644736 4392.577905468151
2014.4370578207036 3873.519238611697
2015.0950049719922 3998.404320735791
2015.7527936567585 4075.047157347538
2016.4104239134067 4109.529855815095
2017.067895780323 4332.25058293462
2017.725209295886 3680.52997341874
2018.3823644984514 4521.45494672933
2019.0393614263648 4228.087742291653
2019.6962001179545 3833.890050209954
2020.3528806115355 4196.920658158726
2021.0094029454067 3881.6092988715145
2021.6657671578487 3947.8281018244334
2022.321973287133 3998.324552860454
2022.9780213715148 3802.8109842564736
2023.6339114492293 3843.9839576112367
2024.2896435585026 3934.9336734064136
2024.9452177375442 4068.346195291427
2025.600634024544 4159.262867612129
2026.2558924576842 4122.090111401285
2026.9109930751292 4011.2949323210005
2027.565935915025 3920.6955127261267
2028.2207210155066 4268.208452721936
2028.8753484146964 4288.473862643468
2029.529818150695 3722.77285007724
2030.1841302615903 4090.8125320949243
2030.8382847854573 3824.9945895442675
2031.4922817603601 3885.0631909289523
2032.1461212243357 3951.4037954779087
2032.7998032154192 3557.945480548381
2033.4533277716218 4052.315091614792
2034.1066949309443 3935.2177444454464
2034.7599047313688 3929.7266117300446
2035.4129572108704 4192.5101847103815
2036.0658524074006 4186.861417385508
2036.7185903589016 4141.569506330375
2037.3711711032956 3986.08900607363
2038.023594678496 3944.3665222189093
2038.675861122394 3784.70952435414
2039.3279704728757 4043.3057687623486
2039.9799227678031 3703.6193102974744
2040.6317180450278 3867.9642596927333
2041.2833563423865 3895.1459500291194
2041.9348376977014 3953.4945698123606
2042.5861621487784 3908.2910120875868
2043.2373297334088 4093.419628793827
2043.8883404893695 3914.8643499123377
2044.5391944544208 4257.14277449947
2045.1898916663158 4020.5751880388098
2045.8404321627804 4074.1015294737017
2046.4908159815368 3954.931701479032
2047.1410431602853 3747.9049140287025
2047.7911137367173 3610.9960442006645
2048.441027748504 3949.236349210686
2049.090785233302 3855.7094438522013
2049.7403862287592 3769.882376963221
2050.389830772503 4237.62794807614
2051.0391189021466 3562.2112341913735
2051.688250655294 3936.1911687629495
2052.337226069527 3784.458673879463
2052.986045182417 4097.682812623692
2053.634708031521 3617.5845204055404
2054.283214654375 3958.7906151035363
2054.931565088511 3717.397091412998
2055.579759371436 3763.5550024337344
2056.2277975406523 3826.5609674994143
2056.8756796336384 4143.810493973542
2057.5234056878617 3535.182023564116
2058.1709757407752 3722.525244858767
2058.8183898298194 3942.3444399465143
2059.465647992416 3917.136115784919
2060.1127502659747 4076.306067144679
2060.759696687888 3749.243338886414
2061.4064872955405 4060.190861017796
2062.053122126292 4027.9405432803724
2062.699601217497 3622.9291343520395
2063.345924606485 3775.8926978410004
2063.992092330587 3864.511441401291
2064.638104427102 3624.2590928241907
2065.283960933324 4027.6230015821843
2065.92966188653 4005.460906201234
2066.5752073239855 3968.542911275513
2067.2205972829397 3741.78187188133
2067.86583180062 3902.6513358018624
2068.5109109142522 3787.232786280457
2069.15583466104 3251.71459815423
2069.8006030781708 3737.232264252507
2070.445216202821 4046.5829384031085
2071.089674072153 4170.382713395254
2071.7339767233116 3799.36852848499
2072.3781241934303 3745.219570070618
2073.0221165196253 4046.0943495605075
2073.6659537390024 3814.0694507349654
2074.3096358886505 4213.851956544468
2074.953163005637 3548.634497258257
2075.596535127028 3628.644474409637
2076.2397522898664 3691.6442193540024
2076.882814531182 3903.6608095538445
2077.5257218879924 4001.3116105850922
2078.1684743973 3538.16104317322
2078.8110720960885 3613.8109663317978
2079.453515021336 4125.873736691125
2080.095803209997 3858.1954245972206
2080.7379366990135 3807.384490506784
2081.37991552532 3885.253040553628
2082.0217397258275 3933.228704645717
2082.6634093374414 3527.6318940324627
2083.3049243970418 3913.231765366123
2083.9462849415067 3727.7582645613716
2084.587491007689 3630.009602613459
2085.2285426324324 3915.694654156215
2085.869439852564 3828.8458596488867
2086.510182704902 3491.009879963845
2087.1507712262483 3886.449268723336
2087.791205453381 3514.4229183733414
2088.4314854230743 3990.4051917083257
2089.0716111720867 3811.491821819197
2089.7115827371617 3602.1233112092496
2090.351400155023 4292.188394378336
2090.991063462385 3603.875507050626
2091.6305726959527 3510.722844241203
2092.2699278924047 4113.509216721025
2092.9091290884153 3834.3028230247082
2093.548176320641 3561.5935572299895
2094.187069625721 3784.2024509462635
2094.8258090402887 3500.3332928630625
2095.464394600951 3776.1118592090834
2096.102826344313 3844.8141437195177
2096.741104306955 3916.0429154802287
2097.379228525453 3500.5689747158117
2098.017199036358 3453.838591891764
2098.6550158762147 4037.529102733651
2099.2926790815527 3749.327093077433
2099.9301886888825 3914.0100663125413
2100.5675447347076 3790.4768159395076
2101.2047472555114 4095.153049604922
2101.841796287761 3611.306692582662
2102.47869186792 3729.042664229261
2103.1154340324265 3628.573086736387
2103.752022817709 3653.9247941563713
2104.388458260184 3605.571456512381
2105.024740396251 3689.3982556441597
2105.660869262292 3412.055276568933
2106.296844894685 4095.4101543390425
2106.93266732978 3778.600924435108
2107.5683366039284 3306.730949276447
2108.2038527534532 3570.8197081953904
2108.8392158146726 3974.817519678299
2109.4744258238843 3657.8570890835035
2110.1094828173755 3771.998640118407
2110.744386831422 4011.765750602688
2111.3791379022787 3830.0944174868296
2112.01373606619 3848.4560340835133
2112.648181359389 3673.363537671361
2113.28247381809 3646.672857050966
2113.916613478492 3573.7057302502094
2114.550600376786 3635.115283897217
2115.1844345491445 3837.4384935478347
2115.818116031729 3716.3692936524835
2116.451644860679 3666.6737551585115
2117.085021072133 3339.9404603399926
2117.718244702204 3463.9022970465508
2118.3513157869984 3644.0999291577255
2118.984234362604 3582.4070747598466
2119.617000465092 3491.1091071834185
2120.249614130529 3926.0547433516563
2120.8820753949585 3625.2771794300397
2121.5143842944162 3665.053778583283
2122.14654086492 3421.6093369727996
2122.7785451424734 3848.875976742113
2123.4103971630702 3243.0559043391568
2124.042096962681 3713.740400435608
2124.6736445772767 3561.999683734505
2125.305040042802 3529.805111571779
2125.936283395191 3684.2205648699883
2126.567374670365 3648.192665654375
2127.198313904233 3435.717806686808
2127.8291011326855 4047.5857310696983
2128.4597363916037 3471.476381449121
2129.0902197168507 3557.812845711881
2129.720551144279 3431.194226033668
2130.3507307097225 3900.5462109942737
2130.980758449008 3890.5907233383978
2131.6106343979427 3303.2091083180176
2132.2403585923203 3766.4965524355603
2132.8699310679276 3910.6510099590982
2133.499351860526 3584.1710637324077
2134.1286210058715 3810.762586422723
2134.7577385397053 3357.7895615190655
2135.3867044977487 3613.5245518440765
2136.0155189157176 3858.5209969076213
2136.644181829308 3930.042475943882
2137.2726932742025 3516.961740928184
2137.901053286074 3906.047321104962
2138.5292619005777 3401.017067974648
2139.1573191533535 3351.239610305068
2139.7852250800315 3761.6536169446563
2140.4129797162295 3761.344221444981
2141.0405830975433 3412.1506467314275
2141.6680352595613 3975.2483484748236
2142.2953362378576 3403.54263204542
2142.9224860679915 3366.4296319444925
2143.549484785508 3446.8643304111765
2144.1763324259373 3717.3095646377396
2144.803029024799 3367.3205333375627
2145.429574617594 3487.0099024517317
2146.0559692398165 3690.436265929116
2146.682212926942 3392.163612737596
2147.308305714432 3432.561390055649
2147.9342476377333 3592.3559947512813
2148.5600387322847 3717.89066478814
2149.185679033506 3617.0021909149445
2149.8111685768017 3549.335198858539
2150.4365073975678 3368.4055793803855
2151.061695531187 3578.0709061850803
2151.686733013021 3729.6999923382054
2152.311619878423 3539.167322159352
2152.9363561627342 3530.0607684594056
2153.560941901278 3264.521990918224
2154.1853771293663 3540.7113772233074
2154.809661882293 3633.395194730115
2155.433796195348 3646.0933105237914
2156.0577801037944 3396.17797823316
2156.681613642895 3711.387133413461
2157.3052968478896 3523.7255794346356
2157.928829754006 3386.058435571266
2158.552212396462 3505.8340753115763
2159.1754448104566 3431.506884218093
2159.7985270311783 3250.4908932556914
2160.4214590938027 3131.474956740873
2161.0442410334927 3224.219775809526
2161.6668728853874 3503.35206070555
2162.289354684628 3372.068176977282
2162.911686466332 3478.656533956554
2163.533868265602 3652.715625023217
2164.1559001175337 3841.202855738211
2164.7777820572046 3754.8424901185963
2165.399514119681 3378.7195674409604
2166.021096340013 3018.8616354139644
2166.6425287532384 3677.8788773051665
2167.263811394385 3321.8499555741714
2167.8849442984574 3599.801921824629
2168.505927500455 3256.7080763098793
2169.126761035366 3505.876490678357
2169.7474449381552 3289.3723680977673
2170.367979243778 3114.42991896962
2170.9883639871823 3328.3894919048507
2171.608599203293 3402.5428962996803
2172.2286849270276 3867.1507167634236
2172.8486211932886 4014.4189008758776
2173.4684080369625 3446.445789811238
2174.0880454929265 3214.6380738772223
2174.7075335960417 3284.6865785012537
2175.3268723811543 3607.5256495877534
2175.9460618831 3515.4133468358946
2176.565102136701 3225.5774559347865
2177.1839931767627 3255.0372350186108
2177.802735038078 3284.6216219546527
2178.421327755432 3316.9399472637815
2179.0397713635866 3289.295962025445
2179.658065897298 2943.8077040004055
2180.276211391305 3022.255564921109
2180.8942078803357 3146.2245852631004
2181.5120553991 3432.4142990466926
2182.129753982299 3213.647882836679
2182.7473036646206 3418.6055478126154
2183.3647044807367 3341.887415215258
2183.9819564653044 3166.8939217448115
2184.599059652968 3469.83560158271
2185.216014078367 3564.494034069639
2185.832819776113 2988.1170585697937
2186.4494767808137 3498.5929418946507
2187.065985127063 3345.342269090419
2187.682344849436 3264.613954190737
2188.298555982501 3571.2691979130555
2188.9146185608097 3579.6534422570803
2189.530532618901 3473.8735332533543
2190.1462981912937 3439.9791678284105
2190.761915312507 3487.7671817878645
2191.377384017036 3380.5547373406125
2191.9927043393654 3225.601377794138
2192.6078763139667 3122.325321920782
2193.2228999753006 3711.307224184881
2193.837775357808 3078.0546911929123
2194.452502495922 3197.5139563310336
2195.0670814240602 3095.292962532915
2195.6815121766285 3175.2063352921605
2196.2957947880186 3827.632923747594
2196.9099292926057 3423.434522436688
2197.523915724758 3376.066871020106
2198.137754118825 3290.1566409420047
2198.7514445091456 3547.401621052798
2199.3649869300443 3143.003268931701
2199.9783814158327 3431.3448865129517
2200.5916280008096 3706.660219250914
2201.2047267192593 3504.916898271331
2201.8176776054515 3397.011209546444
2202.430480693649 3227.7775334431094
2203.0431360180955 3284.773505878721
2203.6556436130195 3623.2072399316435
2204.268003512645 2922.7344786718413
2204.8802157511727 3582.9216559321094
2205.492280362796 3551.748948241806
2206.1041973816937 3283.966949806692
2206.715966842032 3328.0487144505278
2207.3275887779655 3167.093778321713
2207.93906322363 3368.11471533422
2208.550390213153 3457.9579001858788
2209.1615697806465 3436.095013985465
2209.7726019602105 2819.9571428481368
2210.3834867859277 2953.155074821569
2210.9942242918787 3286.6195090837114
2211.6048145121167 3218.9128925666632
2212.2152574806914 3276.779643371091
2212.825553231638 3334.7355993607175
2213.435701798975 3909.2667710249143
2214.045703216707 3256.297616768796
2214.655557518832 3036.325085993193
2215.2652647393297 2910.0261594045605
2215.874824912169 2852.0248944379414
2216.4842380713 3189.218698078829
2217.09350425067 3232.9927306682553
2217.7026234842033 3244.2211786794746
2218.311595805819 3355.2647505175555
2218.9204212494133 3096.5837634634418
2219.52909984888 3563.277599474791
2220.137631638092 2924.537089349245
2220.7460166509154 3547.735026864501
2221.354254921198 3384.8043236295243
2221.9623464827764 3486.9890472257493
2222.5702913694713 3220.1557621355773
2223.178089615096 3405.7592814336617
2223.7857412534486 3037.6201727254393
2224.39324631831 3000.0976994878224
2225.000604843457 3181.5899082134183
2225.607816862641 3526.33032232205
2226.214882409611 3345.7418236879553
2226.8218015180973 3377.1059986595747
2227.4285742218217 3068.386403930993
2228.0352005544864 3316.220964812966
2228.6416805497847 3110.9950444476926
2229.248014241399 3103.9377111558456
2229.8542016629945 2862.0740562389515
2230.460242848223 3242.1412610054485
2231.0661378307304 3683.6793367161326
2231.671886644139 3097.8823657900243
2232.277489322065 3064.954263840866
2232.8829458981127 2885.1953192443902
2233.48825640587 3467.483702957703
2234.0934208789095 3769.6120143207563
2234.6984393507955 3525.968419827989
2235.3033118550793 3646.492643471741
2235.9080384252975 3201.335468544693
2236.5126190949723 2945.4067426626452
2237.1170538976166 2914.157203091455
2237.721342866729 2686.9739580789096
2238.32548603579 3218.9195076395035
2238.9294834382763 3119.000461070208
2239.533335107646 2969.0424786306867
2240.1370410773434 3229.542542097283
2240.740601380803 3036.8192432633923
2241.3440160514474 3033.3482074479816
2241.9472851226783 3100.5043753493337
2242.550408627896 3253.1771668219026
2243.1533866004793 3406.1600483889515
2243.756219073799 2969.8155414428556
2244.3589060812064 3131.7649743722613
2244.961447656049 2979.5103890295436
2245.5638438316564 3065.0194171515514
2246.166094641343 3275.0467243229277
2246.7682001184166 3121.2532042298044
2247.3701602961664 2918.287112083138
2247.971975207871 3096.2714710674945
2248.5736448867974 3431.984761594483
2249.175169366197 3262.7237444270786
2249.7765486793123 2957.564198716961
2250.3777828593684 3354.5818969216934
2250.9788719395783 3300.4345449233965
2251.579815953146 3166.98449571008
2252.1806149332606 2824.2989961197645
2252.781268913097 3096.293643260105
2253.381777925817 2874.0514325470285
2253.9821420045737 3053.6968658678775
2254.5823611825035 3392.1844121886897
2255.1824354927303 3035.125170403212
2255.782364968365 2963.7803509860532
2256.38214964251 2892.4291343417467
2256.9817895482483 2753.5706554641233
2257.5812847186553 3203.0750365358
2258.180635186791 2908.191064013894
2258.779840985704 3133.2007653814894
2259.37890214843 2919.2110106758687
2259.97781870799 2973.7764301843763
2260.5765906973957 3028.4638118616353
2261.175218149645 3028.1550607723984
2261.773701097718 3447.684216622053
2262.3720395745895 2862.581224806996
2262.970233613216 2943.5965899568523
2263.568283246548 2845.9635577007357
2264.1661885075137 2967.772676661888
2264.763949429038 3098.7629989176075
2265.3615660440246 3351.2733418762305
2265.959038385374 2990.7142802161643
2266.5563664859637 3100.7651133150216
2267.153550378669 2943.4893642053225
2267.7505900963424 3262.5257216881087
2268.3474856718312 2934.9314656138613
2268.9442371379664 3190.924363327761
2269.5408445275643 2814.138857682503
2270.1373078734377 3229.694616440237
2270.7336272083758 3175.0104632014836
2271.32980256516 3216.6530695618117
2271.925833976562 3097.3507115360258
2272.5217214753357 3399.6933736113288
2273.117465094223 3057.484156116364
2273.7130648659586 2772.9847974842505
2274.308520823257 3074.2483415930533
2274.903832998827 3389.9550270648956
2275.4990014253563 2844.3076866802035
2276.094026135528 3257.55202649045
2276.6889071620117 2789.369783614896
2277.2836445374614 3104.1243411045602
2277.878238294519 2996.794943766465
2278.472688465812 2794.69115519167
2279.066995083962 2592.188017011831
2279.6611581815705 3091.9180412553987
2280.255177791232 3264.962561553569
2280.8490539455233 3438.412444443004
2281.442786677013 3323.199211631493
2282.0363760182554 3307.5945910081464
2282.6298220017943 3086.586018392003
2283.223124660155 3110.116981493305
2283.816284025859 3143.232643084944
2284.4093001314086 3467.228444181145
2285.002173009292 3219.4059943476295
2285.5949026919952 2970.9958261094866
2286.1874892119777 2872.4917344131645
2286.7799326016993 3081.3619551156266
2287.3722328936 2795.416837084852
2287.964390120109 2708.4913190437637
2288.556404313642 3096.744739096494
2289.1482755066027 3499.6689296695904
2289.7400037313873 2963.071625385078
2290.3315890203703 2948.0357960739816
2290.9230314059205 3406.921443616782
2291.5143309203904 2883.249819900622
2292.1054875961236 2692.716125371281
2292.6965014654506 3165.6522583917463
2293.287372560684 2712.188674661934
2293.878100914131 2768.2073793528584
2294.468686558086 2824.4348504063682
2295.059129524827 2915.034216654551
2295.649429846617 3273.3237061396067
2296.239587555716 3190.740088367328
2296.8296026843636 3018.4576197798533
2297.419475264791 3589.968687600609
2298.0092053292137 3060.848571138286
2298.598792909839 3039.4108692855953
2299.1882380388597 2884.836960712827
2299.777540748455 2930.135004212496
2300.3667010707904 2975.306456631057
2300.9557190380256 3070.099724450106
2301.544594682302 3508.38795704902
2302.1333280357503 2856.5852846762946
2302.721919130485 3097.5839318627077
2303.3103679986198 3334.223836019815
2303.898674672242 3043.725849287491
2304.486839183437 2761.197687427396
2305.0748615642697 3113.5811716430626
2305.6627418468015 2818.3155458449974
2306.2504800630704 2837.6014012512787
2306.8380762451143 2719.5536628295913
2307.425530424949 2264.486942222414
2308.012842634582 2905.7172237401696
2308.6000129060103 3330.936126943257
2309.187041271214 3609.2937918357557
2309.773927762164 3097.880828179318
2310.3606724108213 3003.851989556914
2310.9472752491274 2581.961643934127
2311.5337363090184 2985.0919321658885
2312.120055622414 2970.8281508719488
2312.706233221221 2647.2404882023616
2313.2922691373424 2734.0831945881155
2313.8781634026564 3109.8387140843433
2314.463916049037 2970.715555883525
2315.049527108342 3046.63732171287
2315.6349966124235 3405.863971104254
2316.2203245931123 3073.5623719112746
2316.8055110822315 2636.4534276513004
2317.3905561115935 2948.3434565485964
2317.9754597129977 2610.922678182179
2318.560221918229 3186.748490321358
2319.1448427590603 2751.1205203723885
2319.729322267256 2384.286535828231
2320.313660474563 3163.244982198087
2320.8978574127195 3531.72578730915
2321.481913113452 2886.715870259145
2322.0658276084705 2380.1998796229377
2322.6496009294806 2838.0165049034363
2323.233233108165 3349.0162677236863
2323.8167241762058 3073.920973582944
2324.4000741652617 3091.545602031271
2324.983283106987 3152.679486991737
2325.5663510330232 3307.859639739375
2326.1492779749933 2880.407782854283
2326.7320639645204 2933.748224784361
2327.3147090332004 2673.0503484983115
2327.897213212629 2741.6716798941507
2328.4795765343843 2810.1786467890643
2329.0617990300307 2859.235159168003
2329.643880731124 3092.7368076408884
2330.22582166921 2737.7358959555686
2330.807621875816 3151.3609972461504
2331.3892813824623 2555.6217611429665
2331.9708002206517 2652.9694119883793
2332.5521784218818 3156.5823092217306
2333.133416017634 3052.725154663346
2333.7145130393765 2824.495218068192
2334.295469518571 3064.35655953517
2334.876285486658 3086.4629518559345
2335.456960975076 3010.485205002516
2336.037496015242 2934.38977116257
2336.6178906385667 2802.5594022985665
2337.198144876451 3100.5273141729413
2337.778258760278 2471.2062913165432
2338.3582323214214 2620.081872842461
2338.938065591243 3147.492337614674
2339.517758601087 3137.245866039604
2340.0973113822965 2830.473812074347
2340.676723966193 2697.165981169421
2341.255996384094 2717.19423175463
2341.835128667295 3103.6748145316906
2342.4141208470883 2964.951852552265
2342.992972954751 2992.226437368454
2343.5716850215467 3078.4730046321292
2344.1502570787306 2952.209454125678
2344.7286891575386 2825.556828893558
2345.3069812892045 3347.8419978313614
2345.885133504944 3197.3912791330777
2346.4631458359618 2752.215714977081
2347.04101831345 3015.392928317083
2347.6187509685915 3017.2730371257517
2348.196343832553 2626.5859261582445
2348.7737969364935 2572.3237080617696
2349.351110311558 2909.2975930658413
2349.9282839888765 2724.198241670607
2350.5053179995757 2633.419358004903
2351.0822123747585 2680.918651990645
2351.658967145526 2659.443288853829
2352.2355823429643 2638.0872808116737
2352.812057998144 2891.482559166242
2353.3883941421263 2720.405264174281
2353.9645908059647 3060.812174763495
2354.540648020693 2958.453268057349
2355.116565817336 2628.617655763013
2355.6923442269126 2989.646743370208
2356.2679832804224 2750.9726426875613
2356.8434830088518 2432.1460656341596
2357.41884344318 2882.4270560336945
2357.994064614377 2724.0636568718255
