317.89969571804795 15452.067501366797
318.977263876126 15350.506901929442
320.05455438786703 15244.366701195648
321.1315673423287 15237.114951733054
322.2083028285215 15276.837529779576
323.2847609354267 15052.680748096649
324.3609417519747 15022.35292886674
325.43684536705587 14971.532420799518
326.5124718695279 14873.153358844527
327.58782134820103 14833.151457703309
328.66289389184385 14845.184474120188
329.7376895891921 14740.313626897812
330.8122085289342 14716.718127073074
331.88645079971866 14609.137821943174
332.9604164901575 14562.988000242616
334.03410568881554 14555.495365339113
335.1075184842266 14599.80113013532
336.18065496487543 14434.887074029019
337.2535152192122 14418.676202608161
338.32609933564163 14501.577521872692
339.39840740253203 14360.144505857117
340.4704395082099 14262.886009812437
341.5421957409617 14309.928921814708
342.6136761890357 14414.306180846848
343.6848809406365 14187.32633888406
344.75581008392874 14128.437601128098
345.82646370703696 14152.384175638517
346.8968418980512 14026.78262116811
347.96694474501055 14136.320432239832
349.0367723359268 14073.704129572468
350.106324758759 13972.782120158958
351.1756021014353 13873.304773533533
352.2446044518383 13941.504631071866
353.31333189781435 13926.352794261707
354.38178452716966 13832.73421539251
355.449962427665 13872.077361178035
356.51786568702846 13827.367576669805
357.58549439294256 13938.422476670054
358.6528486330535 13919.174614459811
359.71992849496564 13820.210926552414
360.7867340662433 13840.754987935725
361.8532654344144 13875.588063181505
362.9195226869597 13987.204188086096
363.9855059113288 13671.711232872909
365.05121519492604 13804.60719305631
366.11665062511565 13934.947909533623
367.1818122892273 13893.87286812611
368.2467002745434 13779.727413677527
369.31131466831175 13862.48568566873
370.375655557742 13856.475881562397
371.4397230299983 13904.943337370025
372.5035171722102 13897.480680798375
373.5670380714637 13932.184333494257
374.6302858148101 13995.428370631014
375.6932604892554 13937.684048278223
376.7559621817709 13935.911343654167
377.81839097928605 13769.588839525066
378.8805469686886 13856.41417889318
379.94243023683157 13788.593615497932
381.0040408705263 13845.41376443849
382.0653789565458 13757.251721468787
383.1264445816196 13755.219132951626
384.1872378324406 13666.11261416885
385.2477587956637 13697.755181481883
386.3080075579037 13578.61171275393
387.3679842057336 13610.223148233195
388.4276888256918 13639.707074295166
389.48712150426945 13711.184170520597
390.54628232792857 13579.695968579463
391.6051713830857 13575.471430353578
392.66378875611736 13562.187933739848
393.7221345333637 13532.32429895763
394.7802088011249 13482.454041298357
395.838011645661 13524.519844306458
396.89554315319765 13402.290565184865
397.9528034099112 13321.741815465099
399.00979250194723 13292.925686871531
400.06651051541485 13242.588410537166
401.1229575363741 13272.47726301182
402.17913365085224 13251.462795168307
403.23503894483656 13244.258120988981
404.2906735042761 13082.464357825333
405.3460374150818 13046.98670667062
406.401130763119 13075.508597997388
407.455953634224 13110.647757357374
408.5105061141876 13049.838199663893
409.56478828876243 12904.090183135128
410.6188002436629 12982.840395403131
411.6725420645689 12890.940419805376
412.72601383711117 13073.045332707992
413.77921564689314 12961.663164027013
414.8321475794728 12892.904750074606
415.88480972036814 12817.820654233841
416.93720215506437 12943.647295117995
417.9893249690049 12793.099223208003
419.04117824759123 12778.742575020104
420.09276207619223 12769.968700594762
421.144076540133 12722.233038193603
422.1951217247042 12742.936428836994
423.24589771515275 12790.292432508291
424.2964045966928 12640.68645292276
425.34664245449494 12744.520897915569
426.3966113736933 12616.07369100355
427.4463114393875 12569.388310922152
428.49574273662984 12636.034822715123
429.5449053504417 12548.494505074112
430.5937993658026 12523.41157687971
431.6424248676558 12446.102467077239
432.6907819409007 12423.963702196646
433.73887067040596 12432.135704743127
434.7866911409965 12465.045005619913
435.8342434374608 12346.667903508564
436.88152764455117 12299.692429136343
437.9285438469724 12297.686308406046
438.9752921294057 12227.358495752982
440.02177257648145 12248.438039360362
441.06798527279716 12150.101532130428
442.1139303029122 12177.758333264346
443.1596077513459 12227.179723970808
444.2050177025794 12201.319424937665
445.25016024105753 12210.005620862095
446.2950354511886 12200.315933143649
447.33964341733736 12239.369420885247
448.383984223834 12195.705598431545
449.4280579549686 12123.498827468115
450.471864694995 12188.318354548717
451.5154045281306 12229.60470930822
452.5586775385509 12145.19305207537
453.60168381039693 12112.769935366086
454.64442342776783 12214.526525794901
455.6868964747264 12119.354240968736
456.7291030353008 12157.735217152771
457.77104319347563 12219.85999190986
458.8127170332027 12167.016502040677
459.854124638392 12150.150207528424
460.895266092919 12244.267315871884
461.93614148061897 12221.60839583223
462.97675088529104 12369.400331025578
464.01709439069236 12301.323927486736
465.0571720805492 12187.430248198345
466.0969840385442 12307.81756549805
467.1365303483253 12378.093446247043
468.17581109350067 12399.766709374882
469.2148263576437 12355.28490827834
470.2535762242878 12392.104990744298
471.29206077693016 12568.772216476953
472.33028009902773 12556.077367317492
473.3682342740012 12615.968637078975
474.40592338523857 12562.158498498407
475.4433475160804 12667.588143544004
476.4805067498364 12589.696789159541
477.51740116978 12692.420400321385
478.5540308591426 12721.354146300968
479.59039590112116 12948.78018492778
480.6264963788726 12923.455148697076
481.6623323755193 13043.882870944897
482.6979039741436 13116.287519130341
483.7332112577915 13306.235703717806
484.76825430947247 13491.656608198027
485.80303321215797 13629.565793097989
486.837548048783 13647.005279346096
487.8717989022425 13982.705112199958
488.90578585539697 13960.536890814303
489.9395089910686 14169.6597495972
490.97296839203955 13981.17039219049
492.00616414106116 13983.965109392933
493.0390963208429 13997.78007586129
494.0717650140559 14014.548332723465
495.10417030333883 13818.575255235086
496.1363122712901 13820.343426649235
497.16819100046814 13653.58313712668
498.1998065734024 13476.780881518305
499.2311590725767 13305.081465037805
500.26224858044407 13260.847640017699
501.2930751794156 13092.123546939267
502.3236389518679 13032.782234868391
503.35393998014115 12701.614548119516
504.38397834653733 12672.84644828957
505.4137541333221 12553.359861219371
506.4432674227228 12447.914489484883
507.4725182969323 12369.767284837628
508.5015068381035 12251.037609723344
509.53023312835467 12249.000795487827
510.55869724976765 12164.922496589894
511.58689928438434 12030.160180989522
512.6148393142121 11888.776540483279
513.6425174212218 11962.252476055088
514.6699336873462 11969.89183518526
515.6970881944835 11955.030405710411
516.7239810244901 11959.401934937954
517.7506122591931 11912.513009595732
518.7769819803761 12048.64652457278
519.8030902697901 11983.7243774379
520.8289372091476 12003.564340911482
521.8545228801249 12032.190880399836
522.8798473643619 12055.191508436768
523.9049107434621 12019.22631333427
524.9297130989908 12002.800480022779
525.9542545124805 11958.907728872748
526.9785350654201 11979.517384912659
528.0025548392696 11917.558931769128
529.0263139154504 11902.20066878569
530.0498123753423 11855.566433140339
531.073050300296 11793.360599777254
532.0960277716204 11854.720794326462
533.1187448705896 11832.836121756221
534.1412016784416 11816.580305712885
535.1633982763833 11766.090138491982
536.1853347455726 11683.389752388992
537.2070111671401 11634.741777610987
538.2284276221817 11599.959998460254
539.2495841917516 11455.918984648986
540.2704809568677 11340.978383197213
541.2911179985167 11430.934034010896
542.3114953976419 11317.706544832294
543.3316132351592 11269.254416757056
544.3514715919409 11145.842135812789
545.3710705488247 11258.832346205192
546.3904101866156 11171.564262863158
547.4094905860784 11191.498474886013
548.4283118279418 10996.173216826033
549.4468739929034 11192.16625096616
550.4651771616191 11047.32308519153
551.4832214147063 11002.052761109244
552.501006832761 11033.20820662347
553.5185334963226 11046.007620770975
554.5358014859103 11035.693270623997
555.5528108820035 10981.46158468307
556.5695617650363 10920.451048160685
557.5860542154242 11056.014515533017
558.6022883135283 10934.791706727116
559.6182641396881 10931.338753027134
560.6339817741991 10918.495463498426
561.6494412973225 10930.713472342284
562.6646427892883 10945.155805203442
563.6795863302796 10876.757798580222
564.694272000459 10818.73331254071
565.7086998799423 11013.680623627917
566.7228700488104 10883.92616861111
567.7367825871115 10860.732964925543
568.7504375748576 10832.69513019428
569.7638350920224 10875.713864431114
570.7769752185486 10821.308686410783
571.7898580343353 10918.192155628169
572.802483619258 10779.83880980602
573.8148520531431 10987.815533080358
574.8269634157932 10974.234862224166
575.8388177869692 10929.446797257518
576.8504152463938 10851.15022438019
577.8617558737587 11114.420665596237
578.8728397487175 11004.53712713566
579.883666950891 11166.594873036829
580.8942375598654 11217.776786913439
581.9045516551851 11315.97030839765
582.9146093163617 11478.174313859616
583.924410622878 11458.686694545373
584.9339556541727 11484.549243058358
585.9432444896538 11771.868001637882
586.9522772086875 11506.161215985545
587.9610538906127 11623.927187034591
588.9695746147318 11530.655918906867
589.9778394603054 11568.605284295892
590.985848506567 11647.247096279008
591.9936018327098 11564.025559277918
593.0010995178891 11409.039152559248
594.0083416412344 11444.962580068892
595.0153282818283 11310.501431332597
596.0220595187293 11256.848208198126
597.0285354309508 11216.251054217615
598.0347560974806 11205.291355431551
599.0407215972609 11066.80792283863
600.0464320092051 11097.572677883285
601.0518874121954 11053.00730834416
602.0570878850685 11045.763738542593
603.062033506636 10988.168022481706
604.0667243556636 11017.992868167717
605.0711605108936 11006.639646505555
606.0753420510264 11117.278138533922
607.0792690547278 11016.69635168042
608.082941600629 11043.942290919176
609.0863597673306 10927.743948851323
610.0895236333909 10977.283822152667
611.0924332773357 11094.447507339206
612.0950887776617 11066.290512851878
613.0974902128219 11128.127473681012
614.0996376612384 11315.794534970099
615.1015312013005 11394.518946945956
616.1031709113595 11388.083451497345
617.1045568697336 11395.004983606208
618.1056891547069 11583.530852650172
619.1065678445229 11727.331946842996
620.1071930173985 11927.585487991824
621.1075647515099 12072.468891207474
622.1076831250048 12141.706757547483
623.1075482159849 12338.221077086779
624.1071601025305 12474.056224914215
625.1065188626781 12704.68751081174
626.105624574433 12905.407094734079
627.1044773157682 12984.922205006591
628.1030771646128 13119.589383703502
629.1014241988742 13272.655538595054
630.0995184964158 13625.218082861771
631.0973601350688 13574.425570141597
632.0949491926294 13842.427300696265
633.0922857468631 13699.34460698345
634.089369875499 13829.120824246444
635.0862016562278 13795.845649013132
636.0827811667077 13646.27652268438
637.0791084845641 13652.033328519285
638.0751836873878 13506.285993607595
639.0710068527369 13457.772625041147
640.0665780581294 13259.912070586137
641.0618973810506 13055.658051021008
642.0569648989604 13013.430704634058
643.0517806892676 12790.951498966284
644.0463448293649 12666.16424159651
645.040657396592 12500.436594679964
646.0347184682723 12291.811578532295
647.0285281216875 12030.892352752104
648.0220864340772 12000.449083248235
649.0153934826558 11798.184957581421
650.0084493446047 11707.507667467444
651.0012540970674 11489.434739562863
651.9938078171526 11344.17215997072
652.9861105819346 11253.40583381096
653.9781624684565 11255.04824871246
654.9699635537254 11033.964294241583
655.9615139147136 11017.055633683087
656.9528136283589 10857.93508855576
657.9438627715699 10918.67129574867
658.9346614212154 10793.6790464111
659.925209654135 10688.894708364434
660.9155075471263 10723.375292396904
661.9055551769616 10711.273108026957
662.895352620375 10734.307573060814
663.8848999540678 10646.639895752558
664.8741972547068 10393.580971594112
665.863244598926 10529.635677458838
666.8520420633213 10558.765310188406
667.8405897244611 10517.65272387405
668.8288876588758 10367.758334862841
669.8169359430613 10455.098636473782
670.8047346534822 10409.143549462997
671.7922838665672 10412.711456407455
672.7795836587156 10478.620996942995
673.766634106285 10565.9336839776
674.7534352856092 10390.354437077709
675.7399872729766 10453.042312482889
676.7262901446538 10394.883926950928
677.712343976862 10395.997737350506
678.6981488457986 10408.121894274653
679.6837048276229 10333.561145777221
680.6690119984596 10396.416319715692
681.6540704344043 10368.52355743274
682.6388802115107 10336.231158494276
683.6234414058108 10268.428872996838
684.6077540932874 10212.515182296225
685.591818349907 10202.8245790412
686.575634251587 10113.038710898123
687.5592018742263 10145.95143181158
688.5425212936734 9959.30157437583
689.5255925857564 9990.193619309992
690.5084158262707 9981.964047894498
691.4909910909646 9939.259473327449
692.4733184555644 9883.872683230611
693.4553979957618 9860.475570927329
694.4372297872123 9811.655928132695
695.4188139055404 9811.166173397762
696.4001504263324 9701.097717623594
697.3812394251509 9774.118890505237
698.3620809775111 9645.235242900186
699.3426751589104 9660.245585318304
700.3230220448004 9661.611732534195
701.3031217106054 9726.50832305317
702.2829742317172 9802.650514806464
703.2625796834873 9594.346054720365
704.2419381412474 9582.147149970753
705.22104968028 9733.020546491894
706.1999143758458 9668.93958872671
707.178532303169 9534.205200353403
708.1569035374378 9561.449898024941
709.1350281538107 9667.04339495071
710.1129062274158 9570.000885866048
711.0905378333373 9645.49985485857
712.0679230466376 9638.673284492546
713.0450619423427 9703.896192590677
714.0219545954424 9680.068795996916
714.9986010808989 9582.76649159866
715.9750014736292 9684.759106059313
716.9511558485392 9745.934664809125
717.9270642804786 9774.89982990787
718.9027268442787 9851.802288025066
719.8781436147328 9776.073572175997
720.8533146666014 9797.522864793546
721.828240074612 9764.000033635692
722.8029199134635 9766.41332793894
723.7773542578125 9752.165097869192
724.751543182294 9727.136932532227
725.7254867615029 9774.401366818138
726.6991850700015 9686.839739478353
727.6726381823228 9596.524893016429
728.6458461729599 9750.625796465209
729.6188091163858 9595.972839489534
730.5915270870246 9603.930590082347
731.5640001592856 9503.955262339063
732.536228407529 9700.754563332437
733.5082119060917 9652.190250622205
734.4799507292755 9569.033280922193
735.4514449513481 9577.473691797453
736.4226946465496 9658.474031871967
737.3936998890786 9684.389542996887
738.3644607531078 9612.605158164915
739.3349773127793 9556.20668948424
740.3052496421951 9631.107411305124
741.27527781543 9425.304873210222
742.2450619065221 9367.344925505782
743.2146019894826 9492.024459849965
744.183898138288 9415.395981873236
745.1529504268801 9437.31845710483
746.1217589291682 9323.369642906713
747.0903237190341 9254.732139307705
748.058644870318 9341.873102110452
749.0267224568397 9185.311785095173
749.994556552374 9078.763746979686
750.9621472306771 9145.857011747465
751.9294945654583 9218.85570496185
752.8965986304011 9226.288072262756
753.8634594991636 9185.649025057428
754.8300772453586 9227.968724880957
755.7964519425768 9200.160942447868
756.762583664371 9269.0601670732
757.7284724842611 9286.558125365536
758.6941184757416 9188.296463242408
759.6595217122667 9284.30190898023
760.6246822672638 9196.448473060238
761.5896002141235 9236.543512877419
762.5542756262093 9226.344804327307
763.5187085768503 9268.481430565842
764.4828991393406 9240.162616083822
765.4468473869474 9265.45215015842
766.4105533929032 9204.777004981548
767.3740172304078 9206.05379111421
768.3372389726283 9215.353827855633
769.3002186926988 9089.063534537108
770.2629564637282 9023.930044218107
771.2254523587872 9054.733905116556
772.1877064509154 8933.807997089662
773.1497188131179 8935.752508179028
774.1114895183728 8806.156217430245
775.0730186396268 8837.986472387558
776.0343062497905 8781.968581847537
776.9953524217381 8768.391316691635
777.9561572283274 8777.119437687523
778.9167207423689 8775.942951080886
779.8770430366476 8718.665242815337
780.8371241839159 8675.60631277524
781.7969642568951 8651.411272694062
782.7565633282757 8899.808149648725
783.7159214707099 8689.89094288405
784.6750387568281 8669.746655328196
785.6339152592227 8669.537969340397
786.5925510504512 8716.550145292038
787.5509462030477 8683.287985522938
788.5091007895098 8735.04106120668
789.4670148823006 8757.291432465481
790.4246885538596 8678.402571491268
791.3821218765861 8760.518550542669
792.3393149228505 8691.947103955683
793.2962677649975 8737.105904554322
794.2529804753303 8847.774607421863
795.20945312613 8881.641745679568
796.1656857896378 8790.598813137329
797.1216785380675 8929.629247720914
798.0774314435985 9046.82382658531
799.0329445783846 9121.81091685595
799.9882180145414 8989.663078938891
800.9432518241574 9055.271111597078
801.89804607929 9154.25954062647
802.852600851962 9195.62822872171
803.8069162141637 9164.800237578442
804.760992237856 9278.508772063291
805.714828994971 9327.447886168256
806.6684265574077 9400.310069926669
807.6217849970271 9304.564475547942
808.574904385674 9245.712555844391
809.527784795142 9224.578413447689
810.4804262972102 9333.604118807114
811.4328289636178 9163.284594677982
812.3849928660748 9010.790887923074
813.3369180762638 9078.492859802767
814.2886046658241 8975.201506887777
815.2400527063783 8805.732032349739
816.1912622695108 8703.76627537419
817.1422334267718 8844.659276293405
818.0929662496856 8623.884707344727
819.0434608097457 8582.429691377003
819.9937171784059 8513.158845154649
820.9437354271013 8391.205075635886
821.8935156272255 8443.52998055285
822.8430578501484 8320.749059710977
823.7923621672016 8203.01144091347
824.7414286496896 8280.534677325073
825.6902573688876 8270.175284607527
826.6388483960363 8248.326596952184
827.5872018023492 8148.491063504385
828.5353176590033 8164.082389172222
829.4831960371503 8139.547714265461
830.4308370079016 8148.966079806478
831.3782406423525 8127.8011933629505
832.3254070115545 8151.539523406624
833.2723361865319 8029.273954095343
834.2190282382799 8021.527385054654
835.1654832377644 8145.163136243236
836.1117012559116 7973.7799708900475
837.0576823636256 8154.954823656088
838.003426631778 7931.188194836081
838.9489341312074 7891.3263577421585
839.8942049327197 8008.810845038026
840.8392391070975 7995.825044473371
841.7840367250865 7963.338297111501
842.7285978573982 7838.509713770052
843.672922574724 7959.568042930941
844.6170109477152 7847.0252182684
845.560863046996 7913.599196215638
846.5044789431595 7866.172437231542
847.4478587067697 7890.298510746038
848.3910024083561 7937.787672858353
849.333910118421 7919.877147300916
850.2765819074339 7828.841292089661
851.2190178458332 7950.972272674374
852.161218004032 7968.007261641297
853.1031824524016 7840.64650568769
854.0449112612987 7873.752990995999
854.9864045010327 7930.099687236594
855.9276622418947 7834.343773154915
856.8686845541379 7888.200242101196
857.8094715079915 7811.650987691365
858.7500231736467 7928.454081369635
859.690339621271 7874.488511855621
860.6304209209939 7947.314184705921
861.5702671429244 7702.621883472854
862.5098783571284 7886.139700602342
863.4492546336569 7899.537436854623
864.3883960425155 7901.769689580813
865.3273026536863 7890.554993380933
866.2659745371238 7981.523514658382
867.2044117627465 8066.290921724089
868.1426144004472 7960.140288177785
869.0805825200823 8011.106186497238
870.0183161914847 8105.167667330315
870.9558154844526 8161.1868577434025
871.8930804687552 8105.563364139349
872.8301112141307 8156.520508599911
873.7669077902865 8243.662525133015
874.7034702669062 8310.110614478055
875.6397987136315 8254.307809976573
876.5758932000863 8298.376147487243
877.5117537958522 8426.296840456867
878.4473805704911 8330.43595575887
879.3827735935283 8314.9031350068
880.3179329344603 8421.400289253957
881.2528586627541 8410.780498838938
882.1875508478479 8407.051755549775
883.1220095591489 8390.553383293092
884.0562348660296 8364.751969724966
884.9902268378391 8516.867116460231
885.9239855438955 8393.663389941627
886.8575110534839 8303.270853150923
887.7908034358588 8277.432599685546
888.7238627602474 8288.395617250244
889.6566890958475 8208.673561486494
890.5892825118208 8140.841447132807
891.5216430773125 8165.355629388499
892.4537708614189 8074.948691626337
893.3856659332196 8022.328952201387
894.3173283617652 7944.065875319563
895.2487582160684 7938.243092294644
896.179955565116 7823.197493363799
897.110920477864 7737.902890421884
898.0416530232451 7722.076553839477
898.9721532701478 7697.450674424365
899.9024212874428 7698.4583616402
900.8324571439662 7603.298191671927
901.7622609085302 7573.93395567072
902.6918326499072 7501.163578448347
903.6211724368477 7660.131997673287
904.5502803380696 7443.7279207253505
905.4791564222614 7602.112924800325
906.4078007580792 7466.662315338579
907.3362134141571 7526.361686206037
908.2643944590909 7576.443482879071
909.1923439614493 7462.146395181587
910.1200619897754 7378.071019043894
911.0475486125779 7493.718189751746
911.9748038983344 7464.028383238726
912.9018279155007 7401.702816316676
913.8286207324982 7289.106192084179
914.7551824177117 7355.670294413106
915.6815130395116 7288.816228873162
916.6076126662283 7260.177442952403
917.533481366163 7326.68955365972
918.4591192075914 7302.176073436662
919.3845262587565 7421.526499494855
920.3097025878706 7313.008857532487
921.2346482631237 7256.810372776321
922.1593633526682 7356.104360318524
923.0838479246304 7338.172622085842
924.0081020471061 7342.097504646413
924.9321257881656 7242.77955143578
925.8559192158464 7327.12706898269
926.7794823981512 7214.4033989010695
927.7028154030686 7203.025295952279
928.6259182985414 7123.705619747447
929.5487911524906 7272.132422759323
930.4714340328119 7201.116646987498
931.3938470073608 7154.795024319583
932.3160301439748 7241.457745427035
933.2379835104548 7190.68008011328
934.1597071745709 7307.65561261587
935.0812012040769 7286.282777170602
936.002465666681 7218.2878809010845
936.9235006300696 7230.853966172848
937.8443061619055 7237.725583824182
938.7648823298077 7127.012811206267
939.6852292013809 7223.690268513514
940.6053468441951 7242.518441973734
941.5252353257874 7061.501951403868
942.4448947136698 7172.458433610853
943.364325075323 7166.083018326748
944.2835264782043 7258.78777361105
945.2024989897309 7150.333589779698
946.1212426773054 7127.679373487343
947.0397576082851 7180.901771259683
947.9580438500125 7167.741475305767
948.8761014697939 7234.349618564597
949.7939305349064 7178.694994421361
950.7115311125999 7136.507262916632
951.6289032700952 7079.406822499792
952.5460470745875 7190.107684834298
953.4629625932339 7072.26819157383
954.3796498931715 7172.1866524491215
955.2961090415029 7077.583069873358
956.2123401053068 7154.543570272086
957.1283431516276 7064.632670353354
958.0441182474842 7064.4268441389695
958.9596654598663 7174.601680504854
959.8749848557309 7085.5428039752705
960.7900765020167 7047.67311225148
961.7049404656209 7074.024912567753
962.6195768134185 7065.81388460046
963.5339856122537 7006.689750316342
964.4481669289453 7070.622837236503
965.3621208302793 6982.969343312082
966.2758473830145 6984.003684028986
967.1893466538822 7145.085152430796
968.1026187095813 7006.810638496524
969.0156636167867 7050.839296710999
969.9284814421426 7026.862096310321
970.8410722522622 6995.753487224845
971.753436113735 6982.33920706832
972.6655730931161 6991.602502930946
973.5774832569368 7070.698860601602
974.4891666716958 6942.844562779645
975.4006234038698 6944.563909598056
976.3118535198955 6943.906009385952
977.2228570861935 7000.716614774088
978.1336341691494 6958.163717475068
979.0441848351202 6997.616814571067
979.9545091504333 7014.336885501869
980.864607181391 7109.423077060698
981.7744789942699 7010.045314664228
982.6841246553086 7042.763589711188
983.5935442307236 7015.745661540959
984.5027377867027 7045.4064617915155
985.4117053894024 7067.0350666626055
986.3204471049557 7011.856308529382
987.2289629994648 7070.297153632967
988.1372531390007 7191.11786680815
989.0453175896091 7052.441551624304
989.9531564173067 7078.603045030979
990.860769688079 7052.956691939353
991.7681574678918 7136.998660338433
992.6753198226706 7219.950937043429
993.582256818323 7165.402651959336
994.4889685207218 7223.158463450212
995.3954549957143 7302.415574457753
996.301716309119 7196.583259010571
997.2077525267232 7215.629156848775
998.1135637142943 7286.02482854376
999.0191499375615 7321.497598681084
999.924511262232 7252.277465173653
1000.8296477539861 7279.953090796314
1001.7345594784656 7356.513337287451
1002.6392465012996 7345.555716447166
1003.5437088880753 7336.57957114159
1004.4479467043584 7261.004826253442
1005.3519600156869 7185.849523156937
1006.2557488875718 7233.58732847394
1007.1593133854858 7261.855353425433
1008.0626535748888 7209.588227360162
1008.9657695212009 7100.706148130996
1009.8686612898182 7345.670241636535
1010.7713289461135 7258.116316923888
1011.6737725554212 7228.193943420252
1012.5759921830577 7124.553896139683
1013.4779878943027 7220.092641678755
1014.379759754418 7169.8689410644265
1015.2813078286254 7086.362542215589
1016.18263218213 7068.774884413239
1017.0837328801026 7080.465939152322
1017.9846099876886 7103.968715629793
1018.8852635700023 7010.208684736371
1019.7856936921362 6922.085679813719
1020.6859004191447 7019.517345326273
1021.5858838160675 6970.929917511882
1022.4856439479063 6868.987223002453
1023.3851808796389 6852.698251289275
1024.2844946762143 6957.911843524664
1025.183585402554 6830.930966269002
1026.082453123554 6785.760514859384
1026.9810979040776 6751.085608223385
1027.8795198089647 6732.565944306622
1028.777718903024 6788.016705727799
1029.6756952510368 6680.63002693858
1030.5734489177648 6710.664096317343
1031.4709799679313 6802.762673477363
1032.3682884662358 6843.770298577445
1033.2653744773506 6712.492551468099
1034.1622380659192 6697.234987080507
1035.058879296559 6757.169464534823
1035.9552982338591 6700.453562320474
1036.8514949423825 6668.267675477448
1037.7474694866614 6703.638866100987
1038.6432219312028 6760.662047822387
1039.5387523404825 6812.022225993782
1040.4340607789582 6714.000449377141
1041.3291473110476 6754.354497745197
1042.2240120011465 6836.741322425191
1043.1186549136273 6917.1937571167655
1044.0130761128294 6846.357929433514
1044.9072756630649 6913.582035066831
1045.8012536286205 6997.901585801058
1046.6950100737577 6887.473912687237
1047.588545062701 7063.135941395548
1048.481858659663 6967.180306431231
1049.3749509288118 7083.686550941212
1050.2678219343034 7008.643018152085
1051.1604717402515 6942.569201003683
1052.0529004107575 6935.299006980013
1052.9451080098825 7037.620797274603
1053.8370946016694 6982.896897970143
1054.7288602501267 7002.506905492953
1055.6204050192446 6945.018206680836
1056.511728972977 7088.160343087258
1057.402832175254 6993.498747236178
1058.2937146899785 7010.158629899054
1059.1843765810263 6920.3997826313625
1060.0748179122456 7061.818551948601
1060.9650387474576 6976.481857180903
1061.855039150456 6951.207973128117
1062.7448191850071 6994.62219731603
1063.6343789148505 6969.530236157773
1064.5237184037014 6982.164305723194
1065.412837715241 6910.528060541947
1066.3017369131267 6870.1850163365725
1067.190416060992 6946.768890344676
1068.0788752224398 6696.30920924152
1068.9671144610438 6777.216469737522
1069.8551338403558 6825.09411362235
1070.7429334239023 6849.411790493384
1071.6305132751695 6756.455782352241
1072.517873457633 6785.242428315143
1073.4050140347335 6723.6000388166385
1074.2919350698776 6765.939527986838
1075.1786366264623 6610.893375450852
1076.0651187678395 6712.417768901434
1076.95138155735 6545.929131689437
1077.8374250582929 6522.583288149699
1078.7232493339507 6574.109958505165
1079.608854447577 6549.175785838517
1080.4942404623907 6551.328658385312
1081.3794074415982 6526.0727881147
1082.2643554483657 6495.5501169975
1083.149084545841 6546.815056698253
1084.033594797138 6359.489624139042
1084.9178862653516 6480.5535725497175
1085.8019590135427 6482.392823720156
1086.6858131047484 6340.8010899514675
1087.5694486019802 6410.990630912169
1088.4528655682225 6400.737475793403
1089.3360640664287 6440.192451891087
1090.2190441595321 6388.841282716938
1091.1018059104317 6454.468473230472
1091.98434938201 6467.021689594051
1092.866674637111 6339.857986985569
1093.748781738559 6363.066440592405
1094.6306707491512 6307.66141820569
1095.5123417316554 6370.394271426746
1096.3937947488157 6351.0743879011125
1097.2750298633455 6303.716828886613
1098.156047137938 6280.471176489657
1099.0368466352556 6441.7403428978705
1099.9174284179317 6329.4473499922915
1100.7977925485757 6281.866224078795
1101.6779390897755 6297.478085553204
1102.5578681040806 6332.250884647135
1103.4375796540226 6325.234853161353
1104.3170738021054 6353.984491650134
1105.1963506108077 6253.786210539525
1106.0754101425773 6162.469492470773
1106.9542524598382 6270.4883724772635
1107.8328776249855 6225.732138344394
1108.7112857003904 6269.0515687810885
1109.5894767483987 6276.761312797821
1110.4674508313292 6398.22350631486
1111.3452080114657 6370.428544504098
1112.2227483510815 6417.625356298581
1113.1000719124077 6508.672151800105
1113.9771787576592 6561.383972625983
1114.854068949022 6524.294109348356
1115.7307425486542 6545.514293100071
1116.6071996186893 6673.439068694819
1117.483440221229 6832.150562228269
1118.3594644183577 6785.3193883178055
1119.235272272128 6783.923662774452
1120.1108638445658 6926.304732976234
1120.9862391976712 7143.307551452483
1121.8613983934229 7053.400098852908
1122.7363414937627 7119.408705790376
1123.6110685606182 7235.018214472564
1124.485579655884 7231.828068364843
1125.359874841426 7368.297365634569
1126.2339541790916 7247.908973421164
1127.1078177306936 7430.859616473341
1127.9814655580267 7405.837242690174
1128.854897722851 7400.163204958769
1129.7281142869106 7478.326064410027
1130.6011153119125 7549.318714619796
1131.473900859548 7597.440178581438
1132.3464709914697 7415.403433439775
1133.2188257693178 7422.973645638287
1134.0909652546961 7476.951945435193
1134.96288950919 7326.634027865771
1135.8345985943506 7474.004880952513
1136.7060925717087 7246.393242502074
1137.57737150277 7277.608042650148
1138.4484354490069 7146.995752324202
1139.3192844718778 7079.121751036803
1140.1899186327992 6923.3652946892935
1141.060337993178 7030.787779522961
1141.930542614382 6888.2736570204315
1142.8005325577597 6879.859652428667
1143.670307884635 6585.5179633695025
1144.5398686563003 6753.582993784476
1145.409214934025 6627.777327152804
1146.2783467790541 6516.125959743388
1147.1472642526023 6459.130250720986
1148.0159674158622 6529.122597664133
1148.8844563300026 6353.505347399247
1149.7527310561618 6210.99011956466
1150.6207916554504 6136.789483343671
1151.4886381889592 6134.466681533359
1152.3562707177498 6203.768693685602
1153.2236893028585 6163.37687334345
1154.090894005296 6033.491734953558
1154.9578848860474 6042.895732159888
1155.8246620060709 6027.93072918981
1156.6912254262988 5961.03035371576
1157.5575752076438 5880.448893274431
1158.42371141098 6045.807523875044
1159.2896340971656 6012.702668206532
1160.1553433270346 5933.394632013814
1161.0208391613887 5940.386523182634
1161.8861216610057 6004.070409568767
1162.75119088664 5980.7071470028295
1163.6160468990201 5845.2950639898445
1164.4806897588442 5801.906798334644
1165.3451195267917 5971.438098684167
1166.2093362635114 5993.1649080944135
1167.0733400296285 5912.8584224060405
1167.9371308857444 5813.395346713624
1168.8007088924278 5854.930684044703
1169.6640741102328 5937.548630692048
1170.5272265996773 5789.67802940486
1171.390166421259 5759.371647523551
1172.252893635452 5826.771554661283
1173.1154083026995 5895.628557724848
1173.977710483421 5953.581063486968
1174.8398002380145 5782.456779848466
1175.7016776268483 5897.388059848721
1176.563342710264 5873.854749070327
1177.4247955485826 5803.212155389645
1178.2860362020947 5887.381372739103
1179.147064731069 5835.605288631038
1180.0078811957483 5974.8151755943
1180.8684856563486 5814.541477001601
1181.7288781730604 5846.743651461543
1182.589058806052 5999.210174733169
1183.4490276154593 6036.6881851796625
1184.3087846614017 5948.915280173749
1185.1683300039676 5944.976729604941
1186.027663703222 6210.156516631729
1186.8867858192025 6175.281305020431
1187.7456964119228 6155.494773369052
1188.6043955413716 6272.671625587092
1189.4628832675116 6315.416506013536
1190.3211596502842 6360.446704464042
1191.179224749596 6392.859673152429
1192.0370786253388 6300.156182958618
1192.8947213373758 6480.089272530442
1193.7521529455407 6515.015839119139
1194.6093735096438 6427.30192972897
1195.466383089477 6491.404227220925
1196.3231817447977 6650.2954138735995
1197.1797695353398 6697.531124354631
1198.0361465208189 6521.424710534668
1198.8923127609214 6522.780478448423
1199.7482683153048 6543.036590645372
1200.6040132436028 6654.738268621865
1201.459547605431 6611.653203483077
1202.3148714603722 6453.351256809405
1203.1699848679855 6638.764803260931
1204.0248878878065 6560.529719519522
1204.8795805793507 6507.872587981289
1205.7340630020935 6588.079500562695
1206.5883352155033 6543.279374180087
1207.4423972790064 6538.879758235436
1208.2962492520237 6401.924376326018
1209.1498911939307 6489.777905977854
1210.0033231640937 6457.901579334821
1210.8565452218427 6418.288371295154
1211.7095574264913 6313.156717305436
1212.5623598373222 6285.2305346037765
1213.4149525135963 6171.703934752344
1214.2673355145507 6228.485870958501
1215.1195088993936 6167.303836812521
1215.9714727273113 6053.359240969504
1216.8232270574663 6162.276022251647
1217.6747719489904 5951.250624981834
1218.5261074609934 6015.515087935574
1219.3772336525653 5984.789054598947
1220.2281505827668 6101.239045224842
1221.0788583106296 6007.177786770242
1221.9293568951707 5909.226022284287
1222.7796463953746 5919.776364916596
1223.629726870202 5945.971927597704
1224.4795983785934 5895.1460183225345
1225.3292609794553 5934.568384571232
1226.1787147316809 5806.846445712405
1227.0279596941327 5971.52249501269
1227.8769959256424 5946.984899907273
1228.7258234850306 5850.96483635334
1229.5744424310833 5704.433772596515
1230.422852822563 5855.37490899384
1231.2710547182105 5892.956605763495
1232.119048176739 5749.29195102039
1232.9668332568417 5687.280619222393
1233.8144100171812 5855.224999971083
1234.6617785163999 5720.856432711962
1235.508938813111 5628.1793716429875
1236.3558909659114 5751.969105371811
1237.2026350333617 5838.874791798201
1238.049171074008 5791.614569473508
1238.8954991463652 5762.318528300661
1239.741619308932 5612.377553799002
1240.587531620169 6765.470827950243
1241.4332361385277 5710.292423104874
1242.2787329224248 5655.355001910429
1243.1240220302534 5648.337129431311
1243.9691035203869 5692.4632623612215
1244.813977451171 5732.194073219047
1245.6586438809263 5755.971773359001
1246.5031028679496 5514.6926273350955
1247.3473544705157 5755.899115039088
1248.1913987468706 5649.004570904135
1249.0352357552383 5655.1031720025985
1249.8788655538228 5576.808284810435
1250.7222882007918 5667.516337754632
1251.565503754302 5693.470953133137
1252.4085122724755 5660.8539931787245
1253.2513138134182 5623.425409462235
1254.0939084352049 5571.78698884546
1254.9362961958905 5718.7458795649045
1255.7784771535007 5584.429014075007
1256.6204513660432 5667.77432022241
1257.4622188915 5783.331123711119
1258.3037797878242 5617.924835096152
1259.1451341129468 5643.191318889461
1259.9862819247755 5648.203294350313
1260.8272232811978 5585.3112269390795
1261.6679582400666 5631.51414481029
1262.5084868592203 5536.1233097766435
1263.34880919647 5525.437791674196
1264.1889253095997 5629.12064452843
1265.0288352563712 5598.26241713869
1265.8685390945266 5506.404154894407
1266.7080368817751 5535.519966720112
1267.5473286758115 5533.092875949205
1268.386414534294 5564.410698602
1269.2252945148703 5433.38704948234
1270.0639686751547 5448.464194883401
1270.9024370727402 5448.900261477486
1271.7406997651997 5389.611439669678
1272.5787568100714 5499.270587976131
1273.4166082648808 5387.213675871801
1274.2542541871244 5428.771147252274
1275.091694634275 5559.351504053116
1275.9289296637817 5351.770188036272
1276.7659593330663 5381.41809583812
1277.6027836995308 5441.724290580646
1278.4394028205552 5316.035793392977
1279.2758167534867 5361.365641801368
1280.112025555658 5465.801571497289
1280.9480292843746 5475.720506533426
1281.7838279969128 5306.854148773529
1282.6194217505326 5362.77129529136
1283.4548106024686 5220.245563669356
1284.289994609926 5392.627776333421
1285.1249738300921 5418.157374299484
1285.959748320127 5226.658494323776
1286.7943181371702 5304.520022282072
1287.6286833383328 5365.985277919896
1288.4628439807038 5389.919161749405
1289.2968001213521 5279.162086755433
1290.1305518173194 5359.394251078969
1290.9640991256183 5362.632935872446
1291.7974421032523 5366.777341805656
1292.630580807183 5333.961562640665
1293.463515294361 5375.3519866863
1294.29624562171 5389.677361779782
1295.12877184613 5312.287028519725
1295.961094024493 5382.833469669078
1296.79321221365 5420.8867445169535
1297.6251264704333 5390.762393429455
1298.4568368516466 5648.665210937164
1299.2883434140658 5376.427497403407
1300.1196462144526 5389.352867280757
1300.9507453095375 5518.996176335424
1301.7816407560313 5495.395626057672
1302.6123326106172 5473.769740997904
1303.4428209299622 5306.759300310334
1304.2731057707024 5573.923686724853
1305.1031871894502 5445.550582175494
1305.933065242798 5539.03012309678
1306.7627399873181 5541.152326284077
1307.5922114795467 5632.205027693228
1308.4214797760123 5613.676707352122
1309.2505449332057 5480.233188369919
1310.0794070076026 5669.84900794945
1310.9080660556538 5646.839295479447
1311.736522133786 5653.2605719834
1312.5647752983987 5612.801240975282
1313.3928256058734 5550.037241797789
1314.2206731125661 5615.468157309546
1315.048317874809 5669.37207932079
1315.8757599489109 5602.9013417170745
1316.7029993911547 5650.85480574245
1317.5300362578055 5788.779022061588
1318.356870605101 5578.3995280955105
1319.183502489257 5614.509260948734
1320.0099319664623 5632.569319602839
1320.836159092889 5722.726128143726
1321.66218392468 5693.085713690188
1322.4880065179532 5591.549775566877
1323.3136269288134 5668.697485779487
1324.1390452133292 5687.168501180882
1324.9642614275563 5603.50801139541
1325.7892756275214 5738.105209108678
1326.6140878692295 5631.323643916514
1327.4386982086617 5847.06067556367
1328.2631067017755 5707.132298647035
1329.0873134045069 5725.085579385131
1329.911318372764 5627.710038622541
1330.735121662441 5774.484604426824
1331.558723329399 5681.058324490463
1332.3821234294774 5627.76658787559
1333.2053220185007 5633.746839887689
1334.0283191522612 5659.164432029653
1334.851114886529 5611.232090534135
1335.6737092770582 5679.385695717311
1336.4961023795695 5638.278315084627
1337.3182942497697 5564.885120124128
1338.1402849433325 5650.559930605303
1338.962074515921 5494.997299589897
1339.7836630231632 5455.288459791371
1340.6050505206676 5683.813103884435
1341.426237064028 5725.891725256729
1342.2472227088037 5518.041966494159
1343.0680075105338 5507.350548095357
1343.888591524741 5549.917735052932
1344.7089748069138 5632.920829973968
1345.5291574125276 5459.549947873757
1346.3491393970307 5380.275872077053
1347.168920815846 5454.991483265007
1347.9885017243778 5559.379735048968
1348.8078821780036 5408.665567444341
1349.6270622320844 5440.21240936791
1350.4460419419447 5373.361884754688
1351.2648213629054 5441.79127945501
1352.0834005502438 5282.51868135214
1352.90177955923 5353.627664658083
1353.7199584451064 5548.641917867592
1354.5379372630887 5435.854719975388
1355.355716068374 5282.798180306925
1356.1732949161305 5383.9776671584605
1356.9906738615155 5422.662882526477
1357.8078529596478 5484.66782652328
1358.6248322656375 5469.318744934305
1359.441611834567 5277.634187278641
1360.2581917214866 5494.148647984504
1361.0745719814367 5213.866024318885
1361.890752669433 5256.959407047682
1362.7067338404577 5258.927259536766
1363.5225155494845 5506.174596806696
1364.3380978514506 5386.062581076714
1365.1534808012839 5261.336445474619
1365.9686644538815 5257.42295163973
1366.783648864117 5423.372771946085
1367.5984340868417 5469.123220122639
1368.413020176893 5320.629368828495
1369.2274071890715 5322.472312877197
1370.0415951781652 5410.161510620207
1370.8555841989346 5006.55434222483
1371.6693743061223 5226.149871043524
1372.48296555444 5241.990612263575
1373.2963579985844 5381.281118668035
1374.1095516932255 5218.571080763197
1374.9225466930166 5292.372817054291
1375.7353430525782 5188.142234002921
1376.5479408265164 5237.557814262096
1377.36034006941 5256.64049386072
1378.1725408358216 5323.879273232582
1378.9845431802805 5197.667202569888
1379.796347157304 5428.678413733649
1380.6079528213813 5424.424912459884
1381.4193602269788 5220.902226811368
1382.230569428546 5172.009600962684
1383.0415804805016 5453.392953406861
1383.852393437246 5354.652403719647
1384.6630083531563 5362.644227858194
1385.4734252825892 5315.80677503957
1386.2836442798798 5368.837961629595
1387.0936653993322 5277.701119932298
1387.9034886952395 5217.03779634032
1388.713114221864 5398.458290507658
1389.5225420334482 5356.430492263152
1390.331772184214 5301.864688745363
1391.1408047283585 5243.934289550152
1391.9496397200564 5188.016505484729
1392.758277213461 5349.98449466942
1393.5667172627054 5344.106223322973
1394.3749599218918 5152.340223378222
1395.1830052451114 5123.489323851495
1395.9908532864265 5182.640239239963
1396.7985040998774 5270.4341900189365
1397.6059577394808 5040.272270432168
1398.4132142592352 5138.931298617799
1399.2202737131156 5108.962097635734
1400.027136155073 5134.424889599499
1400.8338016390353 5032.943498787661
1401.6402702189134 5058.103352369595
1402.446541948586 5120.7152841306715
1403.2526168819204 5024.917612109232
1404.058495072757 5065.286616792943
1404.8641765749107 5115.322829891524
1405.6696614421799 5053.4918710817565
1406.4749497283356 5243.314271941635
1407.280041487129 4923.370617885875
1408.084936772295 4905.146326790398
1408.8896356375335 5045.2473511882945
1409.6941381365323 4958.502631016496
1410.498444322955 4866.128638662823
1411.3025542504402 4899.16173645664
1412.106467972606 5003.137404155836
1412.9101855430508 4924.587282155597
1413.7137070153458 4830.578355733021
1414.5170324430437 4804.066722254443
1415.320161879672 4903.004835247951
1416.1230953787435 4960.09470132734
1416.925832993742 4853.774247894262
1417.7283747781275 4673.0441359014285
1418.5307207853439 4813.565765459598
1419.3328710688093 4853.032935981422
1420.134825681922 4673.934128957362
1420.9365846780584 4680.914235750017
1421.7381481105713 4900.063956381683
1422.539516032788 4805.656897322819
1423.3406884980232 4680.160443985733
1424.1416655595604 4656.388963863782
1424.942447270665 4810.900467196267
1425.7430336845828 4792.8263769931345
1426.5434248545298 4600.972072248667
1427.3436208337116 4660.685567828953
1428.143621675301 4743.382614975808
1428.9434274324558 4769.0726704497465
1429.7430381583108 4660.241989696986
1430.5424539059713 4771.80857061893
1431.3416747285337 5079.21484011121
1432.1407006790632 4782.061516936481
1432.9395318106053 4701.629413684289
1433.7381681761835 4682.986345851525
1434.5366098288014 4783.814621734068
1435.3348568214424 4827.075016660072
1436.1329092070573 4669.536300594244
1436.9307670385879 4662.708599258944
1437.7284303689503 4896.604304624273
1438.5258992510335 4924.589976131393
1439.3231737377118 4725.167958373771
1440.1202538818306 4699.3909526792795
1440.9171397362225 4839.29014527379
1441.7138313536925 4725.670646957164
1442.5103287870243 4677.457665345988
1443.3066320889775 4572.635439514035
1444.1027413122956 4815.491184497989
1444.8986565096966 4666.89003184254
1445.694377733882 4666.652367449429
1446.4899050375207 4647.263216288878
1447.2852384732687 4454.879429096041
1448.0803780937622 4798.857952008566
1448.8753239516063 4621.898888957692
1449.6700760993954 4586.539345573763
1450.464634589689 4546.373896361861
1451.2589994750397 4729.577007831754
1452.0531708079689 4471.333918685932
1452.8471486409799 4555.370627309623
1453.6409330265524 4713.378659585924
1454.4345240171442 4583.820594732403
1455.2279216651987 4607.2838484642225
1456.0211260231263 4610.553124491842
1456.8141371433194 4613.302553162006
1457.6069550781594 4625.382619799667
1458.3995798799897 4496.051529682014
1459.1920116011424 4507.581591620803
1459.98425029393 4517.382532248399
1460.7762960106338 4530.049821835246
1461.5681488035225 4449.600293979996
1462.3598087248392 4555.760845414361
1463.1512758268036 4540.254463102434
1463.942550161617 4517.083992465081
1464.7336317814625 4469.943919797724
1465.524520738496 4406.401056646659
1466.3152170848552 4461.914867706611
1467.1057208726506 4438.591048743859
1467.8960321539817 4367.211482894034
1468.6861509809169 4320.7466090419275
1469.4760774055085 4307.977103638062
1470.265811479785 4589.595722140964
1471.055353255755 4351.465886652231
1471.844702785409 4403.215727181376
1472.6338601207044 4325.9673012220155
1473.4228253135934 4809.781108802994
1474.2115984159936 4282.133739750834
1475.0001794798063 4262.947511885951
1475.7885685569145 4385.115629310176
1476.576765699172 4400.009760092389
1477.3647709584238 4443.269800342537
1478.1525843864802 4527.770137392442
1478.9402060351367 4447.724712036559
1479.7276359561693 4426.9009231949585
1480.514874201328 4337.926787403474
1481.3019208223468 4271.0813724349655
1482.0887758709323 4309.818160764706
1482.8754393987747 4460.854276320368
1483.6619114575406 4210.514122671222
1484.4481920988783 4443.455407617144
1485.2342813744108 4494.42760802758
1486.0201793357446 4368.469262910787
1486.8058860344572 4384.755627469115
1487.591401522117 4269.50795755368
1488.3767258502594 4363.711117030742
1489.1618590704056 4409.386937896003
1489.9468012340494 4252.495040356137
1490.7315523926754 4331.4566977535
1491.5161125977356 4515.7981189548
1492.3004819006637 4330.4932623114755
1493.084660352877 4351.023056191914
1493.8686480057622 4410.259413195245
1494.6524449106964 4511.268353486996
1495.4360511190262 4428.516721584897
1496.219466682087 4356.422072188487
1497.0026916511779 4413.907681326234
1497.7857260775945 4312.409158973914
1498.5685700125996 4380.092132058639
1499.3512235074395 4311.386020123351
1500.133686613337 4316.303850474684
1500.9159593814966 4386.636288900092
1501.698041863101 4520.752212573325
1502.4799341093094 4281.9863582433045
1503.2616361712662 4167.413935086909
1504.043148100087 4405.140234544675
1504.8244699468742 4369.816640754015
1505.6056017626997 4325.074538263085
1506.3865435986281 4228.65843612204
1507.1672955056893 4369.333755454213
1507.9478575348967 4245.274547305965
1508.7282297372512 4328.319462411042
1509.5084121637192 4303.0678070572785
1510.2884048652577 4339.305160858441
1511.0682078927948 4190.273295173605
1511.8478212972423 4191.628605338617
1512.6272451294917 4224.6773709504805
1513.4064794404076 4473.573049792276
1514.1855242808433 4248.90801938429
1514.9643797016215 4304.710310221582
1515.743045753552 4333.128796264391
1516.5215224874191 4270.388586256702
1517.2998099539836 4083.0014349099247
1518.077908203999 4181.373318561771
1518.8558172881785 4359.400392468078
1519.633537257234 4427.582905612582
1520.4110681618404 4372.837601006654
1521.1884100526604 4469.047530885208
1521.9655629803365 4298.995678777053
1522.7425269954856 4479.802367264008
1523.5193021487103 4512.07498783068
1524.2958884905856 4269.841937644593
1525.0722860716687 4350.266763558862
1525.848494942502 4367.540346306106
1526.624515153595 4444.930721660048
1527.4003467554485 4360.1762550835865
1528.175989798534 4437.596515344501
1528.9514443333064 4358.188787731761
1529.726710410203 4461.478616230221
1530.5017880796331 4378.807125458616
1531.276677391992 4361.905513764063
1532.0513783976457 4507.75690673391
1532.825891146953 4477.753195923093
1533.6002156902414 4436.504660307293
1534.3743520778207 4579.936162032567
1535.1483003599806 4447.163198591703
1535.9220605869923 4360.132253364178
1536.6956328091019 4509.058184994008
1537.4690170765407 4476.929304933913
1538.242213439511 4576.462509142965
1539.015221948208 4541.089036585583
1539.78804265279 4445.531469852019
1540.560675603405 4404.505194674928
1541.3331208501804 4805.533848235297
1542.1053784432224 4603.701773426615
1542.8774484326168 4614.378412532563
1543.649330868422 4484.630123558072
1544.4210258006842 4528.060190594029
1545.1925332794308 4576.03022198296
1545.9638533546604 4549.996541219591
1546.7349860763552 4492.998519710858
1547.5059314944829 4696.528860925567
1548.27668965898 4647.057984086094
1549.0472606197673 4717.985899387453
1549.817644426752 4519.263759318184
1550.5878411298072 4665.54644877765
1551.3578507787988 4683.746798028634
1552.1276734235635 4646.556830484014
1552.8973091139233 4590.387872998646
1553.6667578996767 4636.25120113433
1554.436019830604 4624.7623457403615
1555.20509495646 4679.465437758181
1555.9739833269869 4555.1690247246925
1556.7426849919011 4517.681952343722
1557.511200000903 4952.696509099848
1558.2795284036674 4663.283044367847
1559.0476702498509 4584.392772873519
1559.8156255890954 4783.19818708943
1560.5833944710157 4808.516051903531
1561.3509769452048 4632.216863113608
1562.1183730612447 4620.684714852494
1562.8855828686865 4791.501445685497
1563.6526064170703 4802.528029300523
1564.4194437559127 4743.111189469897
1565.1860949347047 4611.606067678213
1565.9525600029283 4808.837102962263
1566.7188390100328 4816.4305800344555
1567.4849320054564 4613.199265524354
1568.250839038612 4670.718130343478
1569.0165601588997 4767.163239908912
1569.7820954156887 4817.253020437075
1570.5474448583373 4527.359795644662
1571.31260853618 4632.838122955307
1572.0775864985299 4576.963825635799
1572.8423787946813 4676.212279768279
1573.6069854739108 4525.87741770617
1574.371406585471 4641.937508080242
1575.1356421785986 4730.264431392812
1575.899692302506 4504.649418482519
1576.6635570063845 4617.959285564061
1577.4272363394157 4527.944463071525
1578.190730350747 4747.307689036943
1578.9540390895163 4437.427612046597
1579.7171626048384 4380.814440795597
1580.480100945806 4419.401617156853
1581.2428541614918 4555.989126895201
1582.0054223009538 4571.550160647357
1582.767805413223 4523.210805950138
1583.5300035473156 4478.8619639821645
1584.292016752228 4676.001505778693
1585.0538450769309 4603.585175525484
1585.8154885703807 4533.611948253888
1586.5769472815136 4476.002775853572
1587.3382212592405 4647.148769897764
1588.099310552463 4636.940952182149
1588.8602152100484 4310.486948873742
1589.6209352808564 4684.31944741864
1590.3814708137234 4632.215497877776
1591.14182185746 4462.987808817179
1591.9019884608679 4621.8387897325165
1592.6619706727215 4360.135392164673
1593.4217685417734 4615.2311126351715
1594.1813821167616 4906.190961165025
1594.9408114464022 4430.306097866883
1595.7000565793933 4532.016605779542
1596.459117564409 4561.873342034391
1597.2179944501113 4492.685333137697
1597.9766872851324 4586.227779228497
1598.735196118092 4512.008225029467
1599.4935209975883 4659.779466451091
1600.2516619721973 4665.548001252309
1601.0096190904787 4518.9658035752855
1601.7673924009723 4461.196494245391
1602.524981952196 4536.205861044817
1603.2823877926476 4534.046793209764
1604.0396099708087 4483.7214135140575
1604.7966485351371 4514.331678156192
1605.5535035340745 4543.426416563585
1606.3101750160404 4590.384248324166
1607.0666630294363 4527.161513690868
1607.822967622642 4358.2315370823435
1608.5790888440224 4603.236561771089
1609.3350267419137 4590.923305968551
1610.0907813646445 4440.555011831501
1610.8463527605145 4517.945319523926
1611.601740977805 4536.276507063719
1612.356946064785 4552.466608141328
1613.1119680696902 4418.622438021111
1613.8668070407512 4365.800513071175
1614.6214630261748 4504.025103114919
1615.375936074137 4496.206582789989
1616.1302262328118 4525.8817507676695
1616.8843335503425 4442.067027604572
1617.638258074854 4407.705247474448
1618.391999854457 4416.177164073919
1619.1455589372363 4555.622590376694
1619.8989353712623 4487.178431054266
1620.65212920458 4323.045503630992
1621.4051404852235 4387.212183005934
1622.1579692611976 4407.023468920416
1622.9106155804966 4289.453272636272
1623.663079491087 4427.53229200295
1624.4153610409248 4324.659727310447
1625.1674602779385 4396.740781602719
1625.9193772500403 4201.776801383424
1626.6711120051277 4623.057217954456
1627.4226645910676 4424.269174251984
1628.174035055721 4145.373241109153
1628.9252234469168 4250.106321097932
1629.676229812474 4185.156640163945
1630.4270542001905 4445.8577493430585
1631.1776966578382 4363.429157867972
1631.9281572331747 4294.082120175056
1632.678435973945 4303.116952237307
1633.4285329278573 4299.436488557698
1634.1784481426203 4218.924499677565
1634.9281816659113 4335.890656213721
1635.677733545388 4455.041535634891
1636.4271038286934 4302.769095604955
1637.176292563452 4197.47789955981
1637.9252997972635 4382.699371228807
1638.674125577716 4401.58720859067
1639.4227699523672 4537.907433390158
1640.171232968767 4278.562687690034
1640.9195146744423 4358.4055572123925
1641.6676151168977 4487.7930175672755
1642.4155343436178 4427.448737107499
1643.1632724020765 4476.002532030244
1643.9108293397167 4321.703911608251
1644.658205203974 4272.808419638142
1645.4054000422566 4703.901759142389
1646.1524139019566 4450.847719230018
1646.8992468304423 4338.077612954321
1647.6458988750728 4442.5718115200225
1648.3923700831765 4544.478415064395
1649.1386605020743 4446.3913916162965
1649.8847701790564 4422.517716418162
1650.6306991614038 4455.742854280679
1651.3764474963682 4447.201175179197
1652.1220152311944 4371.814446924123
1652.867402413096 4464.355267575183
1653.6126090892776 4465.653436146803
1654.3576353069184 4487.912573112973
1655.1024811131829 4496.422558591211
1655.8471465552066 4371.487544106958
1656.5916316801213 4627.598428337105
1657.3359365350298 4387.2647483439505
1658.0800611670165 4432.299687234076
1658.824005623148 4367.28640202737
1659.5677699504722 4251.220747237816
1660.3113541960192 4426.613466924371
1661.054758406799 4394.004849254236
1661.7979826297997 4307.7848470257195
1662.5410269119966 4306.346520515487
1663.283891300338 4492.84603201573
1664.0265758417645 4154.619191083609
1664.7690805831826 4240.590553822832
1665.5114055714948 4410.645133937142
1666.2535508535748 4488.7230149877505
1666.9955164762814 4136.547849742713
1667.7373024864555 4211.002996019917
1668.478908930916 4270.332751124674
1669.220335856462 4026.1974191395034
1669.9615833098778 4084.972264318375
1670.7026513379296 3889.1570137188814
1671.44353998736 4028.969794317475
1672.1842493048916 4211.138496633075
1672.9247793372379 3944.942199919835
1673.6651301310812 4028.1283825089217
1674.4053017330934 3871.98095870019
1675.1452941899242 4049.48846544933
1675.885107548207 3786.1718985164757
1676.6247418545518 3816.584118578628
1677.3641971555535 3869.8670571902194
1678.1034734977893 3994.741778814726
1678.8425709278108 3830.8951403738056
1679.5814894921605 3956.0872316307714
1680.320229237359 3687.137331888431
1681.0587902098978 3922.7802853990624
1681.7971724562685 3781.2924948864347
1682.5353760229264 3773.5542947722
1683.2734009563173 3720.3667240885684
1684.0112473028657 3773.164144955585
1684.7489151089794 3760.4138120439807
1685.4864044210462 3757.860451925407
1686.2237152854377 3635.483839298323
1686.960847748498 3781.5039481471117
1687.6978018565642 3567.404697046671
1688.434577655944 3498.043558660268
1689.1711751929379 3581.7214307538125
1689.9075945138156 3618.425006339165
1690.6438356648396 3564.3509996783105
1691.3798986922448 3379.175840893187
1692.1157836422499 3593.8701455477703
1692.851490561059 3445.1649119394338
1693.587019494853 3379.068843828683
1694.3223704897991 3395.7891044395196
1695.0575435920364 3330.5595007968077
1695.792538847696 3513.3668515686563
1696.527356302886 3316.3525318494517
1697.2619960036936 3311.343965026269
1697.9964579961907 3405.098652932355
1698.730742326432 3108.316554735428
1699.4648490404488 3183.17258798385
1700.1987781842563 3233.272742648123
1700.9325298038548 3471.1158536089943
1701.6661039452174 3413.781580863934
1702.3995006543082 3269.1699494936242
1703.1327199770658 3302.193251506154
1703.865761959416 3219.3270348337815
1704.598626647261 3410.7879253994506
1705.3313140864866 3171.468323005343
1706.0638243229587 3307.5217241361897
1706.7961574025303 3292.737382160417
1707.528313371029 3179.7551012653134
1708.260292274268 3042.0849561919995
1708.9920941580403 3273.530883272353
1709.7237190681226 3229.2147881761684
1710.4551670502697 3160.935907827416
1711.18643815022 3002.0815958415787
1711.9175324136959 3230.4728676291106
1712.6484498863938 3175.2741780413503
1713.379190614005 2997.783903474167
1714.109754642188 3325.779759122982
1714.8401420165883 3046.100029778279
1715.570352782839 3066.552562786522
1716.3003869865497 3240.4709250612805
1717.0302446733076 3028.170438469985
1717.7599258886876 3026.4362320217206
1718.4894306782444 3160.4457713151087
1719.2187590875183 3020.5284068711685
1719.9479111620203 3039.5443689276917
1720.6768869472544 3026.4133205904463
1721.4056864887025 3250.6431499692444
1722.1343098318284 3245.2124864402363
1722.8627570220742 2990.762978356469
1723.591028104871 2924.270627652676
1724.3191231256242 2849.3094457389916
1725.0470421297232 3047.7631603143122
1725.7747851625427 3061.188377702578
1726.5023522694337 2964.4566098832283
1727.2297434957363 2897.5324150539154
1727.9569588867635 2871.850759658782
1728.6839984878152 3018.064014715541
1729.4108623441734 2769.9671763239826
1730.1375505011038 3053.345415080562
1730.8640630038426 3015.658513080588
1731.5903998976264 2868.68429327496
1732.316561227657 3006.438386169969
1733.0425470391274 2995.478038877319
1733.7683573772065 3037.0079573058247
1734.4939922870508 2873.533612369612
1735.2194518137949 2900.50083489953
1735.9447360025606 3094.89711452672
1736.669844898439 2938.8374856721734
1737.3947785465189 2850.1426029912827
1738.1195369918605 2793.869549560376
1738.8441202795093 2890.8997732966586
1739.5685284544943 2906.0107925426605
1740.292761561821 2911.7766330073314
1741.0168196464838 3013.908685629248
1741.7407027534518 2886.2061665086835
1742.464410927687 2891.019479253718
1743.187944214118 2912.0334216169217
1743.9113026576688 2867.9671892460174
1744.634486303241 2897.788131077574
1745.3574951957125 2866.338243892512
1746.0803293799509 2878.1263284757647
1746.8029889008048 2724.4501299555304
1747.5254738031017 3060.2790824711196
1748.2477841316504 2779.265095200283
1748.969919931249 2765.06046066899
1749.6918812466665 2825.8448784730526
1750.4136681226646 2995.937304815384
1751.1352806039777 2887.387699131837
1751.856718735331 2688.6965102688764
1752.5779825614281 2829.111634462849
1753.2990721269507 2864.959624015369
1754.0199874765676 2932.838141503083
1754.7407286549314 2672.704299000819
1755.4612957066693 2821.462429860647
1756.1816886763954 2868.7469727385524
1756.9019076087097 2845.44356960333
1757.6219525481865 2906.2485032547065
1758.3418235393856 2897.914980135137
1759.061520626854 3025.5780956150898
1759.7810438551096 2873.448247612185
1760.5003932686614 2753.2393876013452
1761.2195689119999 2930.940548019612
1761.938570829594 2620.8800379093855
1762.657399065898 2919.067849836506
1763.376053665348 2715.845544430216
1764.0945346723602 2589.6087880865443
1764.812842131334 2851.2226912895358
1765.5309760866512 2737.885449070203
1766.2489365826787 2741.1456322509384
1766.9667236637597 2877.065713470973
1767.684337374223 2553.038044166829
1768.401777758383 2637.1012001667327
1769.1190448605284 2650.228202136939
1769.836138724937 2653.960985879815
1770.5530593958665 2883.781612224184
1771.2698069175603 2902.1405988631786
1771.9863813342326 2840.208940393037
1772.702782690094 2789.1435665129484
1773.4190110293293 2793.5430502693944
1774.1350663961111 2970.7067544725087
1774.8509488345844 2717.058156097176
1775.5666583888924 2834.8959226486063
1776.2821951031437 2874.452511804754
1776.9975590214362 2710.1018317527883
1777.7127501878585 2922.432144750819
1778.4277686464684 2800.4594664835654
1779.1426144413108 2885.2217283347936
1779.8572876164162 2715.248833166975
1780.571788215797 2663.95920842119
1781.2861162834415 2714.7536941454277
1782.0002718633277 2656.323029641063
1782.7142549994132 2662.9838591372027
1783.4280657356376 2805.767121676575
1784.141704115922 2648.5599725166344
1784.855170184177 2715.334348633921
1785.5684639842839 2660.842394531638
1786.2815855601148 2655.480253651148
1786.9945349555237 2844.2780196350486
1787.707312214343 2670.7013464571487
1788.4199173803918 2727.9908247686662
1789.132350497468 2734.5161540568315
1789.8446116093583 2712.0702176647187
1790.556700759822 2677.582155198767
1791.2686179926077 2490.15356339968
1791.9803633514493 2654.2609139906267
1792.6919368800554 2565.078204326702
1793.4033386221236 2782.6189469033097
1794.1145686213295 2659.75030910815
1794.8256269213307 2923.563888300304
1795.536513565774 2745.627032888777
1796.247228598284 2527.133362418409
1796.9577720624693 2606.907239775508
1797.6681440019165 2591.506562598647
1798.3783444602013 2800.509442590217
1799.0883734808776 2745.5621831797007
1799.7982311074884 2714.2532524589597
1800.5079173835475 2499.6602551404494
1801.2174323525633 2785.492750922248
1801.9267760580187 2590.950318414902
1802.635948543386 2638.976132759358
1803.3449498521113 2538.1269418630045
1804.0537800276325 2686.158978670349
1804.7624391133668 2535.4711086488087
1805.47092715271 2516.35094355788
1806.1792441890484 2556.1259003215455
1806.8873902657433 2671.513872187666
1807.5953654261448 2458.3824866660516
1808.3031697135812 2598.888336368542
1809.0108031713662 2575.8103992387687
1809.71826584279 2588.415840193996
1810.425557771141 2610.0995104557614
1811.1326789996747 2870.7375814298207
1811.839629571632 2699.7942430599423
1812.5464095302468 2475.9939542002376
1813.2530189187182 2638.1256021781837
1813.959457780249 2540.765865298726
1814.6657261580076 2662.047072058426
1815.371824095153 2457.6818771037388
1816.0777516348262 2777.1507222500945
1816.78350882015 2385.511915340625
1817.4890956942272 2386.720604135872
1818.1945123001533 2517.7298755423467
1818.8997586809928 2524.159011654423
1819.6048348798067 2480.331386697094
1820.3097409396287 2576.4076835585684
1821.0144769034796 2750.4951054593603
1821.7190428143622 2590.635169005012
1822.423438715261 2818.3177983676665
1823.1276646491478 2516.1299364264005
1823.8317206589727 2572.3020845443316
1824.5356067876692 2566.2323183993694
1825.2393230781581 2564.298436282254
1825.942869573335 2432.038829468933
1826.646246316086 2458.6251811546313
1827.3494533492758 2597.9284818176557
1828.052490715756 2692.7610254620786
1828.7553584583547 2557.172337779757
1829.458056619891 2649.6588363618075
1830.1605852431585 2494.785427152321
1830.8629443709433 2456.1347760631347
1831.5651340460063 2586.9285303014817
1832.2671543110919 2547.70505366412
1832.9690052089318 2486.667327640054
1833.6706867822395 2431.6545658694545
1834.3721990737104 2597.225771969718
1835.0735421260233 2492.9128033626266
1835.774715981841 2618.133554696976
1836.4757206838058 2643.404781001071
1837.1765562745459 2241.8396648870357
1837.8772227966747 2243.3410295559847
1838.5777202927839 2500.1673758188335
1839.2780488054523 2582.009711832863
1839.9782083772352 2459.214546173386
1840.6781990506806 2544.37407596449
1841.378020868313 2696.7550422869026
1842.0776738726418 2525.0599295028023
1842.777158106157 2498.582116368836
1843.4764736113375 2318.7344793902216
1844.1756204306403 2609.1234296827306
1844.8745986065078 2485.643940327536
1845.5734081813607 2382.7022567588037
1846.2720491976124 2426.98664358975
1846.970521697649 2348.5672336742446
1847.6688257238511 2416.8070926927207
1848.3669613185684 2496.7999374402034
1849.0649285241452 2419.5369744752493
1849.7627273829057 2452.924405931166
1850.460357937156 2583.9401663872613
1851.1578202291857 2241.4815959012203
1851.8551143012664 2518.8594101592403
1852.5522401956569 2610.674907551314
1853.2491979545957 2461.0873108538462
1853.9459876203055 2275.7429419310292
1854.6426092349902 2288.824711618055
1855.3390628408451 2373.78713849921
1856.0353484800362 2634.2229140792892
1856.7314661947203 2471.2793708590143
1857.4274160270397 2233.8561381401405
1858.123198019115 2442.2992434643193
1858.8188122130487 2347.307340195135
1859.5142586509319 2456.5498242396593
1860.209537374838 2352.7168041182586
1860.9046484268183 2377.0782408309233
1861.599591848917 2511.6958973408027
1862.294367683151 2351.1107568906227
1862.988975971528 2318.0453803573882
1863.6834167560355 2523.285623398247
1864.3776900786452 2562.509172381172
1865.0717959813119 2343.899795792663
1865.7657345059724 2441.4945498093975
1866.4595056945564 2519.224649322112
1867.1531095889586 2531.670092819218
1867.846546231076 2415.760174738067
1868.5398156627743 2592.7393135885955
1869.2329179259123 2340.2298095346614
1869.9258530623283 2524.486389957704
1870.618621113843 2381.9220086119094
1871.3112221222636 2354.893481713435
1872.0036561293764 2338.287446960173
1872.695923176956 2430.5925458782135
1873.3880233067594 2464.957922609159
1874.0799565605212 2230.0198191483623
1874.7717229799673 2350.6644089356464
1875.4633226068036 2478.5947301350075
1876.1547554827175 2410.010216234631
1876.8460216493859 2419.921161835281
1877.5371211484617 2302.580304763412
1878.2280540215852 2545.028708345676
1878.9188203103804 2295.645106562261
1879.6094200564548 2457.7929278026722
1880.299853301396 2342.654915180075
1880.9901200867826 2406.538482762669
1881.6802204541673 2393.241476974463
1882.3701544450942 2332.791733063891
1883.059922101087 2378.923876090227
1883.7495234636517 2424.191500522892
1884.4389585742792 2383.9985867285677
1885.1282274744517 2202.043675402086
1885.8173302056166 2592.2626260414545
1886.506266809225 2398.595087728535
1887.195037326701 2347.5485268332714
1887.8836417994517 2394.75368294139
1888.5720802688702 2631.631929686491
1889.260352776333 2379.4793912004825
1889.9484593632042 2463.694483584762
1890.63640007082 2298.0633946933767
1891.3241749405151 2320.5568147333884
1892.0117840135954 2364.663816035695
1892.6992273313572 2372.9250111145843
1893.3865049350788 2328.1344460110563
1894.0736168660223 2554.0804721770846
1894.7605631654333 2249.8657236654235
1895.4473438745408 2279.436361217915
1896.133959034556 2517.2482778611015
1896.820408686679 2345.5679430857567
1897.506692872088 2495.9397273529403
1898.192811631945 2388.0576596214423
1898.8787650073991 2409.342992557706
1899.5645530395832 2573.647326742922
1900.2501757696118 2581.714676497071
1900.9356332385796 2255.7335502655164
1901.620925487574 2401.7301881292146
1902.3060525576602 2353.991027808515
1902.9910144898859 2441.656751261602
1903.6758113252872 2246.885760391308
1904.3604431048789 2207.4356081299184
1905.0449098696663 2373.877267766871
1905.7292116606295 2330.901957602064
1906.4133485187394 2424.799253652541
1907.0973204849488 2019.715708907304
1907.7811276001976 2160.0648540835623
1908.4647699053967 2330.8669446709955
1909.1482474414588 2170.876073666578
1909.8315602492694 2204.143395647309
1910.5147083696957 2421.089165501489
1911.1976918436012 2300.827878806812
1911.880510711815 2217.0632967358742
1912.5631650151681 2279.4986545207144
1913.2456547944657 2293.1205576836364
1913.927980090495 2208.9758929478767
1914.6101409440362 2282.5234697435453
1915.2921373958416 2289.7042736787043
1915.9739694866603 2289.5397360392335
1916.655637257214 2636.2484849386947
1917.3371407482136 2260.6047371363575
1918.0184800003572 2408.6582980715716
1918.6996550543154 2228.7223090156376
1919.3806659507554 2399.998046735049
1920.0615127303208 2504.543847324648
1920.7421954336423 2314.6832975522293
1921.4227141013343 2395.8567283748216
1922.103068773993 2299.499597015521
1922.783259492202 2449.5788912061407
1923.4632862965227 2256.4606901397424
1924.1431492275078 2086.503816344708
1924.8228483256917 2152.2239204566995
1925.5023836315922 2295.5520566222485
1926.1817551857057 2050.905273218716
1926.8609630285227 2445.830904272848
1927.5400072005123 2322.63433972831
1928.218887742125 2239.5819679696347
1928.8976046938005 2097.504130602182
1929.5761580959588 2296.5852502936564
1930.2545479890086 2292.55334979329
1930.9327744133352 2306.4818661671297
1931.6108374093164 2334.6142143094785
1932.2887370173066 2355.2785809244665
1932.9664732776473 1987.3832198707757
1933.6440462306673 2304.970840577092
1934.3214559166754 2115.6103502939923
1934.9987023759659 2396.0273965580177
1935.675785648813 2315.171588298263
1936.3527057754836 2014.1717847082812
1937.029462796223 2390.256684642035
1937.70605675126 2122.982290911611
1938.3824876808085 2173.837976669382
1939.058755625072 2033.4435845768744
1939.7348606242267 2237.8872323893083
1940.4108027184448 2327.324996995415
1941.0865819478713 2400.720876348131
1941.7621983526478 2002.6289366416192
1942.4376519728921 2096.856438360661
1943.1129428487038 2211.3967623173016
1943.7880710201734 2322.302194444534
1944.4630365273733 2295.008086693052
1945.1378394103576 2033.828941227651
1945.8124797091714 2039.733089257512
1946.4869574638324 2045.57762488853
1947.161272714353 2134.3418377540684
1947.8354255007234 2266.672806001524
1948.5094158629272 2213.6333953015173
1949.1832438409183 2193.3714578301824
1949.8569094746435 2374.464037328445
1950.530412804037 2382.4016366879423
1951.2037538690092 2259.398209956383
1951.8769327094578 2207.9882915368894
1952.5499493652678 2271.0883578955613
1953.222803876306 2243.7604127538684
1953.895496282421 2171.518652186864
1954.5680266234522 2154.5674142562057
1955.2403949392155 2099.491840989632
1955.9126012695142 2061.832850206446
1956.5846456541403 2223.1713516978084
1957.2565281328643 2050.8061011333375
1957.9282487454457 2323.830512363279
1958.5998075316202 2303.017368975031
1959.27120453112 2239.2129460952165
1959.9424397836501 2102.9097997164868
1960.613513328908 2246.728483240359
1961.2844252065697 2356.429777787392
1961.9551754563017 2263.032893990051
1962.6257641177453 2166.451906071535
1963.29619123054 2059.7980764491103
1963.966456834296 2064.053098303212
1964.6365609686181 1932.4064031691566
1965.306503673086 2239.7649016028486
1965.976284987275 2113.8532884837164
1966.645904950734 2079.4337750592636
1967.315363603002 2046.8810513776139
1967.9846609836077 2133.5966515945884
1968.6537971320486 2233.109679309674
1969.3227720878222 1999.8353700179086
1969.9915858904042 2033.060557648832
1970.660238579252 2198.747342559232
1971.3287301938108 2111.6465965182883
1971.997060773514 1879.2965348098387
1972.665230357772 2146.6394643579274
1973.3332389859843 2077.8961972747115
1974.0010866975335 2102.3938927897625
1974.6687735317864 2228.2145164800836
1975.3362995280932 2358.2240993455816
1976.003664725793 2231.995161101663
1976.6708691642052 1893.6083666755744
1977.3379128826364 2124.7491738888684
1978.004795920373 2157.9116788687206
1978.6715183166925 2364.370441254778
1979.3380801108524 1986.9332142877035
1980.0044813420973 2161.668552323224
1980.6707220496555 2058.2908977151023
1981.3368022727373 1989.8843019102853
1982.0027220505417 2308.3808078384236
1982.66848142225 2018.3028415183478
1983.3340804270283 2022.2422244254878
1983.999519104027 2207.711929071046
1984.6647974923835 2271.1603022116356
1985.329915631215 2294.533244135023
1985.99487355963 2057.4694711233233
1986.6596713167146 2248.585243577082
1987.3243089415428 2161.9424390076233
1987.9887864731754 2349.3060736959937
1988.6531039506553 2031.4448827888075
1989.3172614130071 2398.753519043855
1989.9812588992481 2103.6831715533763
1990.645096448372 2027.6569033155934
1991.3087740993633 2052.784589567226
1991.9722918911848 2087.107135760688
1992.635649862792 2084.9977029147403
1993.2988480531185 2194.6215057985423
1993.9618865010852 2344.1723096011415
1994.6247652455968 2089.178077918746
1995.287484325545 1939.6819902146394
1995.9500437798033 2113.203057302348
1996.6124436472292 1921.7163412559598
1997.2746839666706 2141.7474624692813
1997.936764776954 2090.105242507969
1998.598686116895 2093.643435789364
1999.2604480252903 2291.023789216425
1999.9220505409212 1973.2130269269906
2000.5834937025593 1857.1245478720248
2001.2447775489582 1952.6760363554665
2001.9059021188514 2044.1390447260037
2002.5668674509616 1920.1020553370859
2003.2276735839987 2114.535378079177
2003.8883205566508 2301.8973790997748
2004.5488084075987 2101.971992460206
2005.2091371755014 1983.4735310601216
2005.8693068990033 2031.4833453598137
2006.5293176167397 2086.9697300247535
2007.1891693673224 2085.73236106039
2007.848862189354 1875.1038921256318
2008.5083961214223 2063.0355740261753
2009.1677712020955 2007.1767365288713
2009.8269874699254 1864.908839809561
2010.4860449634598 1836.0224225853115
2011.1449437212177 1807.1685179322176
2011.8036837817108 2065.782272067746
2012.4622651834325 2180.78235018119
2013.1206879648653 2247.986213870252
2013.7789521644736 2298.6500461342184
2014.4370578207036 1948.844188325114
2015.0950049719922 1980.2373642708194
2015.7527936567585 2077.0672233662963
2016.4104239134067 2107.5696988670234
2017.067895780323 2407.817740372756
2017.725209295886 2429.202414182291
2018.3823644984514 2450.587511494851
2019.0393614263648 2030.1247246952403
2019.6962001179545 1936.0814871864811
2020.3528806115355 2068.63102515214
2021.0094029454067 1884.80604016004
2021.6657671578487 2013.419865021604
2022.321973287133 2015.1958130535386
2022.9780213715148 2067.4053933711116
2023.6339114492293 1990.0967291762402
2024.2896435585026 1987.8709674320846
2024.9452177375442 2016.9470956161465
2025.600634024544 2348.022315580464
2026.2558924576842 2066.9752345748557
2026.9109930751292 2143.00321714085
2027.565935915025 1906.1656956424026
2028.2207210155066 2178.5942313898568
2028.8753484146964 2144.22843784787
2029.529818150695 1839.598659275895
2030.1841302615903 2012.6768345424764
2030.8382847854573 1907.5732148137056
2031.4922817603601 1944.163867234713
2032.1461212243357 2035.3865112836843
2032.7998032154192 1764.708883950751
2033.4533277716218 2016.8185173123406
2034.1066949309443 1961.557332229629
2034.7599047313688 1958.8066819274463
2035.4129572108704 2260.771271260749
2036.0658524074006 2119.303362937587
2036.7185903589016 2111.0054517502977
2037.3711711032956 2009.030361970341
2038.023594678496 1999.7758342337154
2038.675861122394 1838.1942370164156
2039.3279704728757 1803.6936083518108
2039.9799227678031 1769.2802795095643
2040.6317180450278 1887.9479329462697
2041.2833563423865 2034.736558441682
2041.9348376977014 1965.0637139155501
2042.5861621487784 2155.638684988682
2043.2373297334088 2113.575381426571
2043.8883404893695 1987.5494664841087
2044.5391944544208 2199.4845015344245
2045.1898916663158 2063.9366010792096
2045.8404321627804 2203.177055193819
2046.4908159815368 1983.0548032255836
2047.1410431602853 1625.8115739915374
2047.7911137367173 1807.1705497925564
2048.441027748504 2077.2192946568243
2049.090785233302 1861.6514133048186
2049.7403862287592 1984.8298389214465
2050.389830772503 2199.096470948888
2051.0391189021466 1691.216928272564
2051.688250655294 1940.5463737516152
2052.337226069527 1874.2241733524727
2052.986045182417 2051.0836909312666
2053.634708031521 1722.6140383819245
2054.283214654375 1739.8281013370997
2054.931565088511 1757.1412535839488
2055.579759371436 1967.5955685074284
2056.2277975406523 1930.790257099819
2056.8756796336384 2135.80150302035
2057.5234056878617 1875.664348368534
2058.1709757407752 1772.3699035210059
2058.8183898298194 1941.7144947866625
2059.465647992416 2116.5977506185773
2060.1127502659747 2147.483489373025
2060.759696687888 1815.6881173637398
2061.4064872955405 2176.2817091927095
2062.053122126292 2125.6080867970363
2062.699601217497 1768.9415920927174
2063.345924606485 1998.504838660754
2063.992092330587 2071.7787194897305
2064.638104427102 1892.1266348509187
2065.283960933324 2289.1119653298247
2065.92966188653 2033.3874332980547
2066.5752073239855 2051.301835416312
2067.2205972829397 1881.6812071635445
2067.86583180062 1974.6305158321964
2068.5109109142522 1958.460485782955
2069.15583466104 1980.4289187763006
2069.8006030781708 2002.419812693075
2070.445216202821 2165.1323858629867
2071.089674072153 2096.5811733782425
2071.7339767233116 2018.8460746973822
2072.3781241934303 1839.5142867853476
2073.0221165196253 2035.5944066263764
2073.6659537390024 1875.6191573188112
2074.3096358886505 1987.505325621921
2074.953163005637 1878.9274055451283
2075.596535127028 1775.9862612688062
2076.2397522898664 1691.26199940634
2076.882814531182 2109.3361170946873
2077.5257218879924 2039.6209549956711
2078.1684743973 1660.104150640771
2078.8110720960885 1824.112569667491
2079.453515021336 2124.942777548561
2080.095803209997 2004.3534309356705
2080.7379366990135 1875.5156778733647
2081.37991552532 1935.1406740574644
2082.0217397258275 1892.374838096899
2082.6634093374414 1846.1356939020625
2083.3049243970418 1962.367326200482
2083.9462849415067 1843.6960320818914
2084.587491007689 1926.8963751986435
2085.2285426324324 1968.8061850349404
2085.869439852564 1987.786890114925
2086.510182704902 1687.6717000569547
2087.1507712262483 2000.511550205109
2087.791205453381 1881.7393957467516
2088.4314854230743 2010.846092928324
2089.0716111720867 1821.0277599634323
2089.7115827371617 1891.0580313228297
2090.351400155023 1802.0257035328655
2090.991063462385 1712.9265785873645
2091.6305726959527 1740.2130743810244
2092.2699278924047 2172.154650172542
2092.9091290884153 1886.217115312215
2093.548176320641 1871.9116414940113
2094.187069625721 2041.2080962072698
2094.8258090402887 1782.3550701488082
2095.464394600951 1887.4607183359028
2096.102826344313 1895.4096763440248
2096.741104306955 2131.2812061414756
2097.379228525453 1740.8671933260334
2098.017199036358 1723.9667940204872
2098.6550158762147 2048.8101574857083
2099.2926790815527 1960.1977383198275
2099.9301886888825 2035.5443561120123
2100.5675447347076 2011.6994829756015
2101.2047472555114 2230.4478751412726
2101.841796287761 1889.1831779930403
2102.47869186792 1938.6506812251112
2103.1154340324265 1837.4335150328075
2103.752022817709 1902.441513359542
2104.388458260184 1872.397206244267
2105.024740396251 2050.805406235503
2105.660869262292 1844.378381101086
2106.296844894685 2086.504720973072
2106.93266732978 1836.6883557731944
2107.5683366039284 1725.172868378061
2108.2038527534532 1781.2060699558897
2108.8392158146726 2084.590797456668
2109.4744258238843 1959.8726837048405
2110.1094828173755 1860.126635908123
2110.744386831422 1911.9222515949252
2111.3791379022787 1963.8842528581215
2112.01373606619 2075.1791266284154
2112.648181359389 1937.6473520316583
2113.28247381809 2023.7241717377856
2113.916613478492 1879.5916360830204
2114.550600376786 1988.7043402912027
2115.1844345491445 1998.3110278491154
2115.818116031729 1936.0395010805464
2116.451644860679 1989.2191807922395
2117.085021072133 1888.792076318588
2117.718244702204 1890.5764542114005
2118.3513157869984 1884.9404733246756
2118.984234362604 1656.7302886243365
2119.617000465092 1791.4220381245518
2120.249614130529 2019.3379680313187
2120.8820753949585 1756.2643645649994
2121.5143842944162 1814.122388110977
2122.14654086492 1724.9104236183916
2122.7785451424734 1920.742480759552
2123.4103971630702 1583.3884846762537
2124.042096962681 1857.4763256918366
2124.6736445772767 1798.2536902755342
2125.305040042802 1783.4146764100558
2125.936283395191 1975.0205818944669
2126.567374670365 1812.943891902672
2127.198313904233 1689.958283220325
2127.8291011326855 1732.1561164479067
2128.4597363916037 1774.2363954501477
2129.0902197168507 1820.5464994880265
2129.720551144279 1830.6805132344475
2130.3507307097225 2051.1189438458186
2130.980758449008 1832.5289892333217
2131.6106343979427 2095.4068664971414
2132.2403585923203 1951.2181646389963
2132.8699310679276 2153.117053944262
2133.499351860526 1986.8513551241467
2134.1286210058715 1972.8266049921028
2134.7577385397053 1758.872838564071
2135.3867044977487 1908.6690728320282
2136.0155189157176 2120.072067922326
2136.644181829308 2005.080190491668
2137.2726932742025 1831.1500618431037
2137.901053286074 2055.8494446141367
2138.5292619005777 1836.6829690858551
2139.1573191533535 1919.9517877054236
2139.7852250800315 2057.4800270593173
2140.4129797162295 1898.2819341178679
2141.0405830975433 1969.3486499037965
2141.6680352595613 2040.57323943834
2142.2953362378576 1684.0914714844898
2142.9224860679915 1751.426978688749
2143.549484785508 1667.1472720601912
2144.1763324259373 1968.7727476870398
2144.803029024799 1797.0498941854985
2145.429574617594 1891.2367703143198
2146.0559692398165 1979.1109501080778
2146.682212926942 1647.8054799490826
2147.308305714432 1880.2320176631044
2147.9342476377333 2021.2752859164677
2148.5600387322847 1979.1899712437437
2149.185679033506 1968.9275901766578
2149.8111685768017 1956.2245928609332
2150.4365073975678 1831.4690472833677
2151.061695531187 1843.2649639928222
2151.686733013021 1898.6924871488864
2152.311619878423 1841.8240026006417
2152.9363561627342 1809.183896042757
2153.560941901278 1854.5722020666992
2154.1853771293663 1924.2539177443073
2154.809661882293 2031.0478777437158
2155.433796195348 1974.6017770159283
2156.0577801037944 2144.0244729875476
2156.681613642895 1917.3976755068575
2157.3052968478896 1909.1226332375518
2157.928829754006 1967.723648151837
2158.552212396462 1846.228019581451
2159.1754448104566 1831.644796475865
2159.7985270311783 1555.6549148033173
2160.4214590938027 1594.0940757571739
2161.0442410334927 1572.0977303872753
2161.6668728853874 1860.151218864446
2162.289354684628 1866.9954658321326
2162.911686466332 1863.5262900054927
2163.533868265602 1979.1571103349245
2164.1559001175337 2170.0923864202273
2164.7777820572046 2066.7980071056613
2165.399514119681 1734.786258462383
2166.021096340013 1507.4718756654831
2166.6425287532384 1671.8499310689033
2167.263811394385 1836.5955315101485
2167.8849442984574 1945.1259902451106
2168.505927500455 1764.6028433418492
2169.126761035366 2005.5259165903087
2169.7474449381552 1643.3689238263505
2170.367979243778 1699.207540706801
2170.9883639871823 1824.7299436107314
2171.608599203293 1715.6974311157283
2172.2286849270276 2114.9215215063296
2172.8486211932886 2188.7970294970773
2173.4684080369625 1796.3410496508986
2174.0880454929265 1693.0626456999842
2174.7075335960417 1742.723905509641
2175.3268723811543 2062.31707649273
2175.9460618831 1977.5221715733655
2176.565102136701 1681.7281455538828
2177.1839931767627 1754.9672090349854
2177.802735038078 1828.425036297826
2178.421327755432 1760.2984595807188
2179.0397713635866 1799.928810023738
2179.658065897298 1746.1686065652834
2180.276211391305 1726.9315918580614
2180.8942078803357 1790.5081437623671
2181.5120553991 1852.8160206037585
2182.129753982299 1732.857770275164
2182.7473036646206 1769.7002011230848
2183.3647044807367 1816.0783638661371
2183.9819564653044 1733.4630368890164
2184.599059652968 2118.178225781601
2185.216014078367 2172.05065453717
2185.832819776113 2074.077226171657
2186.4494767808137 1975.7525635548507
2187.065985127063 1925.0865510052324
2187.682344849436 1757.6166530833082
2188.298555982501 1775.4538555132356
2188.9146185608097 1793.2089739944417
2189.530532618901 1747.1129077185954
2190.1462981912937 1744.4469286561766
2190.761915312507 1945.9033955669802
2191.377384017036 1852.3062983143814
2191.9927043393654 1640.0489440245742
2192.6078763139667 1524.3166939976054
2193.2228999753006 1563.3968901194041
2193.837775357808 1602.583445201914
2194.452502495922 1576.8515112608316
2195.0670814240602 1729.1364629131372
2195.6815121766285 1810.4124488511384
2196.2957947880186 2136.163731976015
2196.9099292926057 1841.5465044656764
2197.523915724758 2063.5017916023257
2198.137754118825 1804.0927696332249
2198.7514445091456 1982.5114837393053
2199.3649869300443 1766.7521068009216
2199.9783814158327 2041.0234240940815
2200.5916280008096 2203.9776548712466
2201.2047267192593 2032.2160031295448
2201.8176776054515 1926.6132704926847
2202.430480693649 1780.4986430335946
2203.0431360180955 1921.8257016320372
2203.6556436130195 2046.8622689550134
2204.268003512645 1804.282395761528
2204.8802157511727 1897.542704650837
2205.492280362796 1996.7434078307022
2206.1041973816937 1707.0739263335242
2206.715966842032 1754.4479619786066
2207.3275887779655 1609.5113496913582
2207.93906322363 1791.6003921432657
2208.550390213153 1879.5807419296245
2209.1615697806465 1675.7658793290168
2209.7726019602105 1553.1060991936681
2210.3834867859277 1623.3323373456378
2210.9942242918787 1906.635997925839
2211.6048145121167 1729.5203322290115
2212.2152574806914 2226.283744143412
2212.825553231638 1755.0147062702486
2213.435701798975 1720.5167692279967
2214.045703216707 1686.1686316509672
2214.655557518832 1576.9334807693322
2215.2652647393297 1599.6072819532928
2215.874824912169 1443.741004898773
2216.4842380713 1804.8788444267168
2217.09350425067 1767.2777814214714
2217.7026234842033 1718.2449758094667
2218.311595805819 1938.6102865531768
2218.9204212494133 1801.017542108196
2219.52909984888 2106.1284870442173
2220.137631638092 2066.1574029514395
2220.7460166509154 2025.972579361327
2221.354254921198 1941.8808424283175
2221.9623464827764 1962.3493542938509
2222.5702913694713 1717.087204568164
2223.178089615096 1871.0973197635844
2223.7857412534486 1858.448497973225
2224.39324631831 1536.0507424007003
2225.000604843457 1684.5023233629577
2225.607816862641 2077.0203523880095
2226.214882409611 1880.8275015731538
2226.8218015180973 1841.7416618855884
2227.4285742218217 1756.1786483624924
2228.0352005544864 1932.323619492831
2228.6416805497847 1611.9539164078087
2229.248014241399 1798.2281466725858
2229.8542016629945 1901.360923788327
2230.460242848223 2004.6390022339097
2231.0661378307304 2213.295605117336
2231.671886644139 1620.8000391166984
2232.277489322065 1700.2679244960327
2232.8829458981127 1832.9214254821666
2233.48825640587 1965.7552494319614
2234.0934208789095 2205.7655994064507
2234.6984393507955 2102.366721595852
2235.3033118550793 2160.6787052301747
2235.9080384252975 1927.406484276422
2236.5126190949723 1724.5121651392533
2237.1170538976166 1594.4005866714679
2237.721342866729 1393.9210020518026
2238.32548603579 1882.3694889571057
2238.9294834382763 1779.9060570815261
2239.533335107646 1904.4414680001955
2240.1370410773434 2029.1534036191522
2240.740601380803 1807.599371916403
2241.3440160514474 1792.8702407477645
2241.9472851226783 1810.4980755894933
2242.550408627896 1685.44105800811
2243.1533866004793 2050.6598219827356
2243.756219073799 1831.313696371395
2244.3589060812064 1776.854575040791
2244.961447656049 1815.3626169744082
2245.5638438316564 1883.543613551136
2246.166094641343 1771.4051399449247
2246.7682001184166 1709.447780884142
2247.3701602961664 1878.6474731678677
2247.971975207871 1847.8627896520222
2248.5736448867974 2018.9811153540595
2249.175169366197 1890.032214425517
2249.7765486793123 1692.2952220063842
2250.3777828593684 1954.2663426857312
2250.9788719395783 1908.0240629547905
2251.579815953146 1952.5772575288743
2252.1806149332606 1676.2666531469931
2252.781268913097 1811.679292808042
2253.381777925817 1706.6934615406021
2253.9821420045737 1701.7488397540455
2254.5823611825035 1882.321211352518
2255.1824354927303 1614.099347763075
2255.782364968365 1585.981629624339
2256.38214964251 1557.8744123328956
2256.9817895482483 1658.0348155661945
2257.5812847186553 1538.4743322835093
2258.180635186791 1872.5143648340284
2258.779840985704 1753.8010988214428
2259.37890214843 1729.7460475222874
2259.97781870799 2121.43272155905
2260.5765906973957 1826.3177720532499
2261.175218149645 1767.5889894938064
2261.773701097718 1756.3037559365398
2262.3720395745895 1744.9526834375058
2262.970233613216 1401.435743681805
2263.568283246548 1744.7161646035552
2264.1661885075137 1805.1012736784044
2264.763949429038 1730.5669607160758
2265.3615660440246 1709.0064418569552
2265.959038385374 1687.423645383394
2266.5563664859637 1945.4421741413378
2267.153550378669 1724.925968339371
2267.7505900963424 1730.939058335586
2268.3474856718312 1709.6651174900646
2268.9442371379664 1757.0824089382859
2269.5408445275643 1700.8901102140412
2270.1373078734377 1936.4845235208409
2270.7336272083758 1744.2827410546765
2271.32980256516 1744.59781778006
2271.925833976562 1712.6789514504076
2272.5217214753357 1972.191852760332
2273.117465094223 1748.3680327579011
2273.7130648659586 1727.0228016315764
2274.308520823257 1741.0216499519233
2274.903832998827 2070.832859100371
2275.4990014253563 1516.199559010974
2276.094026135528 2003.8089219442002
2276.6889071620117 1532.9332233003765
2277.2836445374614 1944.0004784845532
2277.878238294519 1824.8908400961532
2278.472688465812 1768.226454858451
2279.066995083962 1711.4170173502619
2279.6611581815705 1856.9004229488978
2280.255177791232 2059.2838373718396
2280.8490539455233 1801.5181363147199
2281.442786677013 2074.3366289972373
2282.0363760182554 2003.1174657932472
2282.6298220017943 1696.7035746754732
2283.223124660155 1930.8223678866605
2283.816284025859 1815.8959343148701
2284.4093001314086 1605.4547459946752
2285.002173009292 1928.8713024932072
2285.5949026919952 1696.9566471625235
2286.1874892119777 1534.2499677976289
2286.7799326016993 1765.179890312796
2287.3722328936 1631.8733553359973
2287.964390120109 1641.3430353967437
2288.556404313642 1882.1830734587197
2289.1482755066027 1753.7620842174504
2289.7400037313873 1625.0525477854833
2290.3315890203703 1768.392328041768
2290.9230314059205 1782.4351478823041
2291.5143309203904 1796.5561668576152
2292.1054875961236 1497.467144915167
2292.6965014654506 1844.1576984850592
2293.287372560684 1704.8878306759555
2293.878100914131 1763.0226115382163
2294.468686558086 1821.3383115366473
2295.059129524827 1769.2661359138892
2295.649429846617 1994.1346478035073
2296.239587555716 2061.620846917298
2296.8296026843636 1939.252745768612
2297.419475264791 2254.171608692708
2298.0092053292137 1942.864619365056
2298.598792909839 1755.691837503712
2299.1882380388597 1787.4705504632686
2299.777540748455 2062.734123939907
2300.3667010707904 2020.7662346381476
2300.9557190380256 1802.1572868319304
2301.544594682302 2088.8654114202113
2302.1333280357503 1633.8544597322762
2302.721919130485 1960.957007663817
2303.3103679986198 1992.7007736826658
2303.898674672242 2021.4573426350428
2304.486839183437 1813.7745163483276
2305.0748615642697 1626.0890173182017
2305.6627418468015 1844.8073097514887
2306.2504800630704 1709.5523069562073
2306.8380762451143 1818.2411462259329
2307.425530424949 1783.0940493068563
2308.012842634582 1747.8523916774016
2308.6000129060103 1973.7791401759237
2309.187041271214 2289.579511540724
2309.773927762164 1862.8404694581823
2310.3606724108213 1917.1606910995056
2310.9472752491274 1616.232124729971
2311.5337363090184 1867.987599600976
2312.120055622414 1839.2579960783446
2312.706233221221 1594.4453040437602
2313.2922691373424 1630.8287949141138
2313.8781634026564 1663.1809424967528
2314.463916049037 1695.5865968580752
2315.049527108342 1807.8014945426771
2315.6349966124235 2047.0221832627685
2316.2203245931123 1955.4467560353587
2316.8055110822315 1733.243351100944
2317.3905561115935 1731.8810613722865
2317.9754597129977 1682.5389103667644
2318.560221918229 1916.235069705565
2319.1448427590603 1840.5210482094383
2319.729322267256 1948.0900725168308
2320.313660474563 2056.019663394172
2320.8978574127195 2423.065096396455
2321.481913113452 1961.495435906953
2322.0658276084705 1500.4083486290763
2322.6496009294806 1911.8686518917523
2323.233233108165 2135.44393124969
2323.8167241762058 1887.1246877347653
2324.4000741652617 1812.5267145862515
2324.983283106987 2270.149725265338
2325.5663510330232 2109.7345603600525
2326.1492779749933 2080.0416447827442
2326.7320639645204 1803.9492769160843
2327.3147090332004 2003.660998578558
2327.897213212629 1740.9331623429075
2328.4795765343843 1887.335330784259
2329.0617990300307 1675.5305540872378
2329.643880731124 1965.791748026543
2330.22582166921 2060.210454868746
2330.807621875816 1949.9742504772832
2331.3892813824623 1721.0697803798357
2331.9708002206517 1663.2588301355104
2332.5521784218818 1744.714077549203
2333.133416017634 1826.4126724796429
2333.7145130393765 1845.3606310954015
2334.295469518571 1871.2026555023863
2334.876285486658 1984.107166405433
2335.456960975076 1953.0096236917805
2336.037496015242 1921.8763971580931
2336.6178906385667 1746.101279184959
2337.198144876451 1926.3281160678325
2337.778258760278 1755.3415085617623
2338.3582323214214 1879.3340302372428
2338.938065591243 2003.5675569455911
2339.517758601087 2150.3967497797885
2340.0973113822965 2021.7631623651596
2340.676723966193 1701.3170924758774
2341.255996384094 1689.2453331607726
2341.835128667295 1924.304851898365
2342.4141208470883 1713.4449537695018
2342.992972954751 1763.6894733259492
2343.5716850215467 1857.3615428375088
2344.1502570787306 1265.6703542730534
2344.7286891575386 1654.2148562259695
2345.3069812892045 2158.0964100884826
2345.885133504944 2050.1974435798593
2346.4631458359618 1651.2042800425957
2347.04101831345 1762.066899832927
2347.6187509685915 1881.719669491052
2348.196343832553 1664.7955295818945
2348.7737969364935 1547.1089883271216
2349.351110311558 1680.826823029231
2349.9282839888765 1556.091704614309
2350.5053179995757 1711.103588001401
2351.0822123747585 1575.868734789094
2351.658967145526 1585.0294045033247
2352.2355823429643 1594.2981338371512
2352.812057998144 1909.904723715228
2353.3883941421263 1644.764713512653
2353.9645908059647 1911.9738388115197
2354.540648020693 1933.373593758771
2355.116565817336 1722.2518947537308
2355.6923442269126 1708.275058134915
2356.2679832804224 1512.3464445410139
2356.8434830088518 1517.5048861032435
2357.41884344318 1881.8889029117938
2357.994064614377 1747.338091804379
