317.89969571804795 15122.246933198363
318.977263876126 15119.646578925565
320.05455438786703 14989.296085420356
321.1315673423287 14965.967593195359
322.2083028285215 15050.10702337357
323.2847609354267 15006.78058911172
324.3609417519747 14961.925597170746
325.43684536705587 14829.012810224463
326.5124718695279 14773.08859813349
327.58782134820103 14870.660718674917
328.66289389184385 14774.133479616163
329.7376895891921 14585.291434931845
330.8122085289342 14697.182117980943
331.88645079971866 14680.2454222606
332.9604164901575 14561.746353237937
334.03410568881554 14495.708429772178
335.1075184842266 14679.93104901352
336.18065496487543 14545.64107248095
337.2535152192122 14517.137469295136
338.32609933564163 14521.402113026043
339.39840740253203 14398.86714367892
340.4704395082099 14460.397071615032
341.5421957409617 14363.214694073054
342.6136761890357 14485.715372690178
343.6848809406365 14298.113713860996
344.75581008392874 14300.3961055866
345.82646370703696 14172.612159168939
346.8968418980512 14242.04499497262
347.96694474501055 14228.43456275707
349.0367723359268 14147.73950875892
350.106324758759 14157.428760457773
351.1756021014353 14034.522528923688
352.2446044518383 14042.671352079755
353.31333189781435 14161.580311698412
354.38178452716966 14074.993507150244
355.449962427665 14086.514463916857
356.51786568702846 13966.341787817128
357.58549439294256 14089.101688894598
358.6528486330535 14088.849873046722
359.71992849496564 13990.744012382649
360.7867340662433 14034.44652843324
361.8532654344144 14005.489547749798
362.9195226869597 14061.8421285379
363.9855059113288 13831.554896127094
365.05121519492604 13838.503992439355
366.11665062511565 14006.378471754691
367.1818122892273 13948.887570109135
368.2467002745434 13888.155821406583
369.31131466831175 13887.556399118006
370.375655557742 13969.866374161977
371.4397230299983 13877.950326333219
372.5035171722102 13954.045375939202
373.5670380714637 13935.256242585732
374.6302858148101 14017.800493200199
375.6932604892554 13972.703318841905
376.7559621817709 13949.791089442657
377.81839097928605 13837.514271273103
378.8805469686886 13832.576485359377
379.94243023683157 13811.921575908204
381.0040408705263 13819.948381208369
382.0653789565458 13806.156697056178
383.1264445816196 13813.58613469539
384.1872378324406 13794.093480536603
385.2477587956637 13805.265396490659
386.3080075579037 13769.178706095558
387.3679842057336 13607.31070786049
388.4276888256918 13739.947602765376
389.48712150426945 13697.188881992965
390.54628232792857 13633.589321157426
391.6051713830857 13599.121247372463
392.66378875611736 13635.53211251187
393.7221345333637 13602.46040731623
394.7802088011249 13512.376214093398
395.838011645661 13483.651485946515
396.89554315319765 13448.212752596297
397.9528034099112 13385.055643407231
399.00979250194723 13285.36621506273
400.06651051541485 13269.565580230663
401.1229575363741 13315.236299062302
402.17913365085224 13273.822993703234
403.23503894483656 13241.327734675773
404.2906735042761 13206.31853916372
405.3460374150818 13176.934315025312
406.401130763119 13230.846218263654
407.455953634224 13075.160197961348
408.5105061141876 13099.706173786622
409.56478828876243 12950.722868361228
410.6188002436629 12985.72175535342
411.6725420645689 12954.157782528308
412.72601383711117 13003.210081869203
413.77921564689314 13041.508509825124
414.8321475794728 12844.4536612265
415.88480972036814 12900.341224585127
416.93720215506437 12982.29503270533
417.9893249690049 12818.212594467708
419.04117824759123 12685.19829539608
420.09276207619223 12732.337488772806
421.144076540133 12746.003407841878
422.1951217247042 12651.97045634415
423.24589771515275 12730.255344450157
424.2964045966928 12683.317378605814
425.34664245449494 12650.05420753695
426.3966113736933 12675.00414070821
427.4463114393875 12540.743537705035
428.49574273662984 12623.633340859804
429.5449053504417 12546.696585032938
430.5937993658026 12570.920848565907
431.6424248676558 12419.280655583534
432.6907819409007 12452.867042863585
433.73887067040596 12503.592824582154
434.7866911409965 12501.074863222933
435.8342434374608 12430.510468182405
436.88152764455117 12368.433319651052
437.9285438469724 12387.075360865852
438.9752921294057 12290.728725925594
440.02177257648145 12365.914336721497
441.06798527279716 12201.206153696454
442.1139303029122 12302.492225586684
443.1596077513459 12334.882540178798
444.2050177025794 12271.292959692903
445.25016024105753 12268.606583616585
446.2950354511886 12199.691152440153
447.33964341733736 12238.506022665098
448.383984223834 12254.191760810652
449.4280579549686 12191.571434999967
450.471864694995 12136.126506731445
451.5154045281306 12201.979198200857
452.5586775385509 12116.348694956941
453.60168381039693 12125.783465991983
454.64442342776783 12209.82561949518
455.6868964747264 12079.646705261122
456.7291030353008 11982.183623082032
457.77104319347563 12074.902387736423
458.8127170332027 12015.455466608068
459.854124638392 12021.805614682311
460.895266092919 12080.20953475212
461.93614148061897 12004.932268251861
462.97675088529104 12132.332848912316
464.01709439069236 12023.336933643313
465.0571720805492 11960.175347206165
466.0969840385442 12028.960660928271
467.1365303483253 12161.873895710301
468.17581109350067 11949.021115215666
469.2148263576437 11942.688207322224
470.2535762242878 11956.673851321018
471.29206077693016 12072.90259823057
472.33028009902773 12023.460077388718
473.3682342740012 12048.987791081992
474.40592338523857 12056.49173842697
475.4433475160804 12027.169355874643
476.4805067498364 12045.448219770133
477.51740116978 12053.197541540645
478.5540308591426 12066.219039878079
479.59039590112116 12237.064306899792
480.6264963788726 12107.853896309338
481.6623323755193 12284.75160785095
482.6979039741436 12276.112171091512
483.7332112577915 12427.887897675264
484.76825430947247 12500.147390678678
485.80303321215797 12469.342283036718
486.837548048783 12486.98700040596
487.8717989022425 12756.160341245579
488.90578585539697 12765.485036029844
489.9395089910686 12917.817496025957
490.97296839203955 12784.351304778906
492.00616414106116 12703.600358646687
493.0390963208429 12716.310959729266
494.0717650140559 12818.435366414828
495.10417030333883 12674.238503904391
496.1363122712901 12737.59019970539
497.16819100046814 12561.217892102772
498.1998065734024 12386.79129926482
499.2311590725767 12334.54053766768
500.26224858044407 12329.19781620378
501.2930751794156 12188.109897859942
502.3236389518679 12205.28002972934
503.35393998014115 11917.204688556074
504.38397834653733 11927.903125629953
505.4137541333221 11952.689312142451
506.4432674227228 11811.7607705873
507.4725182969323 11722.572866141094
508.5015068381035 11699.207324594043
509.53023312835467 11790.669203661888
510.55869724976765 11641.841594449055
511.58689928438434 11577.144126129753
512.6148393142121 11598.73790227302
513.6425174212218 11683.421934312904
514.6699336873462 11621.499303188724
515.6970881944835 11580.746282853015
516.7239810244901 11639.843088030337
517.7506122591931 11564.798113895564
518.7769819803761 11578.725918497086
519.8030902697901 11601.016041633618
520.8289372091476 11587.07493491354
521.8545228801249 11711.58491732419
522.8798473643619 11642.490385226625
523.9049107434621 11598.390864433884
524.9297130989908 11610.398010232977
525.9542545124805 11574.91638973804
526.9785350654201 11527.865217153128
528.0025548392696 11608.499945782763
529.0263139154504 11606.194785163038
530.0498123753423 11573.6571101916
531.073050300296 11539.697942850533
532.0960277716204 11426.103412452627
533.1187448705896 11430.91782647929
534.1412016784416 11422.976816272356
535.1633982763833 11447.781643844242
536.1853347455726 11288.241632653062
537.2070111671401 11377.222123301142
538.2284276221817 11254.606356045357
539.2495841917516 11261.340301532804
540.2704809568677 11191.887892769058
541.2911179985167 11226.335449383205
542.3114953976419 11115.451719803668
543.3316132351592 11066.556084066771
544.3514715919409 11037.194762306255
545.3710705488247 11049.936926127328
546.3904101866156 10918.145095994118
547.4094905860784 11004.275147830886
548.4283118279418 10912.261104601337
549.4468739929034 10990.697199366308
550.4651771616191 10856.244165854958
551.4832214147063 10799.648932017528
552.501006832761 10904.65206917624
553.5185334963226 10847.822330542214
554.5358014859103 10803.673352594798
555.5528108820035 10885.05227813926
556.5695617650363 10654.252761354912
557.5860542154242 10758.997533840253
558.6022883135283 10728.625656719274
559.6182641396881 10737.13101377088
560.6339817741991 10758.045563708478
561.6494412973225 10779.159284729754
562.6646427892883 10777.087495812748
563.6795863302796 10708.342945666976
564.694272000459 10750.980197047897
565.7086998799423 10866.445650098112
566.7228700488104 10791.420424606058
567.7367825871115 10716.212896951674
568.7504375748576 10719.27084316771
569.7638350920224 10820.961021930725
570.7769752185486 10703.67964077897
571.7898580343353 10765.467189861343
572.802483619258 10608.74227869001
573.8148520531431 10819.219396136912
574.8269634157932 10804.525793036957
575.8388177869692 10677.29371368914
576.8504152463938 10699.361048116529
577.8617558737587 10894.597949262674
578.8728397487175 10747.135227943578
579.883666950891 10845.985956321096
580.8942375598654 10871.436213996656
581.9045516551851 10982.706610782201
582.9146093163617 11080.582344554594
583.924410622878 10941.293386917097
584.9339556541727 11019.308445611827
585.9432444896538 11236.22421899217
586.9522772086875 11074.566535269374
587.9610538906127 11060.96116839306
588.9695746147318 11125.775654122048
589.9778394603054 11080.820115050317
590.985848506567 11036.262162715635
591.9936018327098 10950.751655405677
593.0010995178891 10813.190819938969
594.0083416412344 10935.139585213732
595.0153282818283 10728.410545238637
596.0220595187293 10696.058557816074
597.0285354309508 10556.788323429098
598.0347560974806 10714.763939805509
599.0407215972609 10547.635800508835
600.0464320092051 10479.60805053289
601.0518874121954 10540.362020736524
602.0570878850685 10443.882216834147
603.062033506636 10545.233712943078
604.0667243556636 10458.340597582555
605.0711605108936 10346.365071239697
606.0753420510264 10598.929246539612
607.0792690547278 10397.175250169148
608.082941600629 10390.184419201936
609.0863597673306 10348.638313568794
610.0895236333909 10484.939426006424
611.0924332773357 10586.00702881139
612.0950887776617 10530.483438349715
613.0974902128219 10512.271604493691
614.0996376612384 10810.881503782583
615.1015312013005 10649.056943411319
616.1031709113595 10727.863369500375
617.1045568697336 10612.566458220263
618.1056891547069 10747.786028993913
619.1065678445229 10846.619915911735
620.1071930173985 10994.485276583806
621.1075647515099 10953.410771705578
622.1076831250048 11050.7364882742
623.1075482159849 11207.46395155611
624.1071601025305 11218.15079449708
625.1065188626781 11349.259675216117
626.105624574433 11635.291602751753
627.1044773157682 11673.615564138485
628.1030771646128 11674.632024503913
629.1014241988742 11838.252956191618
630.0995184964158 12026.371042771138
631.0973601350688 11943.064371648416
632.0949491926294 12227.158396967403
633.0922857468631 11898.011174135794
634.089369875499 12007.676964915801
635.0862016562278 12117.257235603927
636.0827811667077 11861.148555720367
637.0791084845641 11858.349101207936
638.0751836873878 11716.589749143868
639.0710068527369 11812.665130541862
640.0665780581294 11502.26478973255
641.0618973810506 11594.533930529506
642.0569648989604 11413.04136869872
643.0517806892676 11240.11748345628
644.0463448293649 11186.871761420389
645.040657396592 10969.008322536125
646.0347184682723 10851.067424578001
647.0285281216875 10825.020129457047
648.0220864340772 10718.949343863125
649.0153934826558 10608.768337285539
650.0084493446047 10586.110904361823
651.0012540970674 10519.107547942189
651.9938078171526 10365.439763923143
652.9861105819346 10257.875693812297
653.9781624684565 10342.329810783933
654.9699635537254 10203.94965939366
655.9615139147136 10280.173398189461
656.9528136283589 10052.86080343393
657.9438627715699 10227.524398868623
658.9346614212154 10211.271632891174
659.925209654135 9979.585909565176
660.9155075471263 10044.159940461115
661.9055551769616 10080.650909793538
662.895352620375 10126.304946409602
663.8848999540678 9921.710431849659
664.8741972547068 9877.364145819374
665.863244598926 9807.969296089643
666.8520420633213 9921.982501140055
667.8405897244611 9774.924932420881
668.8288876588758 9720.375131815883
669.8169359430613 9817.008035570532
670.8047346534822 9731.510309679452
671.7922838665672 9626.114970163846
672.7795836587156 9689.61376500542
673.766634106285 9837.498595830328
674.7534352856092 9677.445026327658
675.7399872729766 9710.534353483326
676.7262901446538 9704.41067411199
677.712343976862 9672.658794259749
678.6981488457986 9693.28386473127
679.6837048276229 9658.203529870514
680.6690119984596 9669.739068292845
681.6540704344043 9608.84897670702
682.6388802115107 9639.623350627877
683.6234414058108 9663.50966395641
684.6077540932874 9479.447826124002
685.591818349907 9524.377116852016
686.575634251587 9502.754157797748
687.5592018742263 9502.851756272166
688.5425212936734 9410.630098117084
689.5255925857564 9370.118695255625
690.5084158262707 9435.194587886193
691.4909910909646 9476.357124226735
692.4733184555644 9359.156291378631
693.4553979957618 9456.738802049933
694.4372297872123 9405.765492745162
695.4188139055404 9325.693318186257
696.4001504263324 9281.210736788327
697.3812394251509 9369.785706798304
698.3620809775111 9276.417154091485
699.3426751589104 9339.452655085563
700.3230220448004 9222.820125055081
701.3031217106054 9260.028164946196
702.2829742317172 9401.981579094949
703.2625796834873 9144.86680955227
704.2419381412474 9120.194151887179
705.22104968028 9173.779966824495
706.1999143758458 9187.812706940673
707.178532303169 9102.332245845897
708.1569035374378 9124.579640114196
709.1350281538107 9114.256741876827
710.1129062274158 9052.013967897077
711.0905378333373 9227.924913345454
712.0679230466376 9097.174589312486
713.0450619423427 9121.850628221748
714.0219545954424 9180.689699881172
714.9986010808989 9059.589914075787
715.9750014736292 9065.82418319117
716.9511558485392 9133.878829388032
717.9270642804786 9153.1853969806
718.9027268442787 9188.153358285603
719.8781436147328 9104.653294546155
720.8533146666014 9054.002625031333
721.828240074612 9083.163668896817
722.8029199134635 9047.670442087932
723.7773542578125 9080.742326094645
724.751543182294 9136.905090779062
725.7254867615029 9151.052492099552
726.6991850700015 9006.074952988642
727.6726381823228 8999.675924293131
728.6458461729599 9042.92663056292
729.6188091163858 8947.421795201815
730.5915270870246 9058.736623461045
731.5640001592856 8848.300245441402
732.536228407529 8945.832717952286
733.5082119060917 8963.953742298409
734.4799507292755 8867.050271190892
735.4514449513481 8798.190448737858
736.4226946465496 8876.189391341515
737.3936998890786 8942.565115822143
738.3644607531078 8760.368985892475
739.3349773127793 8841.680426429004
740.3052496421951 8847.290697559642
741.27527781543 8727.268594823156
742.2450619065221 8749.19806246345
743.2146019894826 8801.041615126904
744.183898138288 8828.633295958245
745.1529504268801 8757.627531693957
746.1217589291682 8721.753627481485
747.0903237190341 8652.102408306455
748.058644870318 8747.674941618387
749.0267224568397 8678.310592950662
749.994556552374 8572.271779756
750.9621472306771 8711.571406136709
751.9294945654583 8707.686302985114
752.8965986304011 8683.796393826688
753.8634594991636 8634.496797585896
754.8300772453586 8717.013447312982
755.7964519425768 8709.606009065163
756.762583664371 8699.066557708868
757.7284724842611 8712.758982064217
758.6941184757416 8623.650232533855
759.6595217122667 8643.18500319087
760.6246822672638 8737.835062114778
761.5896002141235 8600.371749581536
762.5542756262093 8589.16355249078
763.5187085768503 8711.792547550951
764.4828991393406 8589.895934023665
765.4468473869474 8588.610241739118
766.4105533929032 8585.618108711757
767.3740172304078 8534.444250391884
768.3372389726283 8710.938280044356
769.3002186926988 8508.073281011293
770.2629564637282 8508.432689989651
771.2254523587872 8603.973765240402
772.1877064509154 8447.974319016215
773.1497188131179 8359.668575835265
774.1114895183728 8285.875439246718
775.0730186396268 8359.874542979125
776.0343062497905 8356.040373444497
776.9953524217381 8285.86116301623
777.9561572283274 8319.32033894931
778.9167207423689 8252.305328436138
779.8770430366476 8239.432831465165
780.8371241839159 8242.92505381032
781.7969642568951 8195.089981753774
782.7565633282757 8509.301238452126
783.7159214707099 8190.621561042957
784.6750387568281 8248.788369519454
785.6339152592227 8241.753732965177
786.5925510504512 8241.781534005097
787.5509462030477 8224.133095947871
788.5091007895098 8238.29353763031
789.4670148823006 8166.663660532153
790.4246885538596 8206.702169148495
791.3821218765861 8245.781283238564
792.3393149228505 8183.041134495969
793.2962677649975 8287.17095392682
794.2529804753303 8268.241053380001
795.20945312613 8355.461268853349
796.1656857896378 8141.9865502140965
797.1216785380675 8178.341144345679
798.0774314435985 8322.648713415027
799.0329445783846 8436.130929159759
799.9882180145414 8368.816437534704
800.9432518241574 8325.18470807077
801.89804607929 8480.127983575472
802.852600851962 8504.250107534437
803.8069162141637 8378.031668606629
804.760992237856 8463.37417511053
805.714828994971 8596.373443310169
806.6684265574077 8603.74829374064
807.6217849970271 8515.399569568724
808.574904385674 8461.57041284964
809.527784795142 8505.849342077347
810.4804262972102 8560.131836794722
811.4328289636178 8343.71967181486
812.3849928660748 8226.893954947449
813.3369180762638 8306.193814742259
814.2886046658241 8332.858450930278
815.2400527063783 8177.753555345575
816.1912622695108 8102.222206611308
817.1422334267718 8216.768495930737
818.0929662496856 8051.756099827983
819.0434608097457 7945.885592916758
819.9937171784059 7976.311527981617
820.9437354271013 7872.508417257256
821.8935156272255 7977.825908864947
822.8430578501484 7810.588102533204
823.7923621672016 7662.586390181341
824.7414286496896 7791.95870824864
825.6902573688876 7780.40567208165
826.6388483960363 7742.467931494502
827.5872018023492 7637.73563359557
828.5353176590033 7802.196778399519
829.4831960371503 7636.554239040631
830.4308370079016 7617.572570426579
831.3782406423525 7740.997882991523
832.3254070115545 7690.326149335645
833.2723361865319 7571.031572560083
834.2190282382799 7592.211416986366
835.1654832377644 7684.893754287661
836.1117012559116 7545.820560533919
837.0576823636256 7728.413577941354
838.003426631778 7525.366633248332
838.9489341312074 7403.131093973199
839.8942049327197 7584.002691041533
840.8392391070975 7632.078740330416
841.7840367250865 7547.479586533099
842.7285978573982 7511.292710130106
843.672922574724 7547.162384962401
844.6170109477152 7530.558268794002
845.560863046996 7518.271896646186
846.5044789431595 7510.666979027356
847.4478587067697 7514.277697756164
848.3910024083561 7585.558849222749
849.333910118421 7493.063811963902
850.2765819074339 7478.347480493341
851.2190178458332 7519.209545244426
852.161218004032 7643.87582559221
853.1031824524016 7551.100260633102
854.0449112612987 7438.144079940973
854.9864045010327 7583.083985001361
855.9276622418947 7423.152984411261
856.8686845541379 7420.830488476304
857.8094715079915 7347.213096126475
858.7500231736467 7561.715835441091
859.690339621271 7484.389964485526
860.6304209209939 7439.426852400778
861.5702671429244 7400.7234633327
862.5098783571284 7469.742790519835
863.4492546336569 7439.0867134298705
864.3883960425155 7355.13631719411
865.3273026536863 7408.475588377487
866.2659745371238 7378.529536606494
867.2044117627465 7588.197178738965
868.1426144004472 7404.678761038001
869.0805825200823 7491.2488922744615
870.0183161914847 7499.4433224864115
870.9558154844526 7617.531147969913
871.8930804687552 7544.717003312634
872.8301112141307 7460.656309602146
873.7669077902865 7632.402386405437
874.7034702669062 7683.204832031198
875.6397987136315 7655.623977469697
876.5758932000863 7662.2877003794765
877.5117537958522 7738.3221242971995
878.4473805704911 7648.936739999687
879.3827735935283 7579.4932814059475
880.3179329344603 7794.731256008154
881.2528586627541 7741.445575077487
882.1875508478479 7819.974389868468
883.1220095591489 7655.071170186
884.0562348660296 7668.732669198687
884.9902268378391 7766.125939145297
885.9239855438955 7703.150423553774
886.8575110534839 7576.121271292648
887.7908034358588 7652.056317871031
888.7238627602474 7645.852972775715
889.6566890958475 7569.048223394138
890.5892825118208 7452.013942103027
891.5216430773125 7529.3792681885725
892.4537708614189 7449.414652134903
893.3856659332196 7462.707473589168
894.3173283617652 7300.196295618412
895.2487582160684 7448.275919448795
896.179955565116 7311.585586512828
897.110920477864 7242.290848840084
898.0416530232451 7234.008926765408
898.9721532701478 7168.784357960331
899.9024212874428 7307.447378553139
900.8324571439662 7161.90025692692
901.7622609085302 7146.2646184989735
902.6918326499072 6960.093102120179
903.6211724368477 7086.102766283181
904.5502803380696 7151.053780826577
905.4791564222614 7201.1669468105565
906.4078007580792 7039.358679393532
907.3362134141571 7111.591878273884
908.2643944590909 7175.865945544628
909.1923439614493 6995.9322641264325
910.1200619897754 7027.220532467198
911.0475486125779 7162.036105161924
911.9748038983344 7025.038971169318
912.9018279155007 6991.026449647466
913.8286207324982 6900.521700380652
914.7551824177117 6906.470620958409
915.6815130395116 6931.614087420497
916.6076126662283 6838.6313424720765
917.533481366163 6917.313434436983
918.4591192075914 6861.186089981258
919.3845262587565 6994.32102576802
920.3097025878706 6907.84927531674
921.2346482631237 6955.589030340886
922.1593633526682 6887.785723132445
923.0838479246304 6983.511396603399
924.0081020471061 6972.55708793487
924.9321257881656 6822.553624710965
925.8559192158464 6876.33724730088
926.7794823981512 6798.3565479347235
927.7028154030686 6777.259949431937
928.6259182985414 6732.416331342017
929.5487911524906 6897.070667403497
930.4714340328119 6883.966486402304
931.3938470073608 6704.832572052905
932.3160301439748 6787.307412609689
933.2379835104548 6728.310553776678
934.1597071745709 6841.056797395397
935.0812012040769 6788.617979240551
936.002465666681 6760.292206198601
936.9235006300696 6808.923063771659
937.8443061619055 6730.491597086916
938.7648823298077 6630.273385217023
939.6852292013809 6740.513114807816
940.6053468441951 6848.918220094945
941.5252353257874 6588.998288482617
942.4448947136698 6668.591351153528
943.364325075323 6678.899255236989
944.2835264782043 6783.236226292688
945.2024989897309 6693.91170096182
946.1212426773054 6647.919255570239
947.0397576082851 6711.798811853538
947.9580438500125 6742.734202575538
948.8761014697939 6803.030837322757
949.7939305349064 6731.485626424258
950.7115311125999 6591.261026584449
951.6289032700952 6575.3145722296495
952.5460470745875 6720.7566184435655
953.4629625932339 6579.038269909222
954.3796498931715 6763.99474114694
955.2961090415029 6643.154408490658
956.2123401053068 6722.093340178889
957.1283431516276 6638.677288893899
958.0441182474842 6657.430637560074
958.9596654598663 6721.016427489085
959.8749848557309 6578.755393889214
960.7900765020167 6552.284373550807
961.7049404656209 6583.136335112829
962.6195768134185 6553.113053241639
963.5339856122537 6644.7090301655435
964.4481669289453 6592.218789636821
965.3621208302793 6633.661468914588
966.2758473830145 6556.668958911813
967.1893466538822 6694.528045307238
968.1026187095813 6507.629628679344
969.0156636167867 6602.840434150775
969.9284814421426 6553.529285113708
970.8410722522622 6598.432013420868
971.753436113735 6520.961614713559
972.6655730931161 6551.538494361919
973.5774832569368 6648.137140821853
974.4891666716958 6583.561410774603
975.4006234038698 6498.345646165234
976.3118535198955 6445.253471822338
977.2228570861935 6647.66724139172
978.1336341691494 6661.603977121238
979.0441848351202 6528.37334348498
979.9545091504333 6601.227139165615
980.864607181391 6716.718733103879
981.7744789942699 6688.365756884564
982.6841246553086 6552.0789710727095
983.5935442307236 6614.762972216359
984.5027377867027 6753.627735854383
985.4117053894024 6670.723085793383
986.3204471049557 6588.786903291961
987.2289629994648 6706.543592781568
988.1372531390007 6783.625676623106
989.0453175896091 6590.879580461665
989.9531564173067 6594.712048653685
990.860769688079 6561.557542139291
991.7681574678918 6641.962352657826
992.6753198226706 6742.545664782422
993.582256818323 6623.975144294799
994.4889685207218 6719.242491845514
995.3954549957143 6782.709472022175
996.301716309119 6825.603099361606
997.2077525267232 6703.475343143681
998.1135637142943 6746.97679229596
999.0191499375615 6777.295885550285
999.924511262232 6791.576352062411
1000.8296477539861 6742.589298151089
1001.7345594784656 6697.197160380432
1002.6392465012996 6751.5575901977845
1003.5437088880753 6806.937950952769
1004.4479467043584 6626.9612542566465
1005.3519600156869 6555.789114831254
1006.2557488875718 6634.863973520211
1007.1593133854858 6693.078329836519
1008.0626535748888 6623.52281203921
1008.9657695212009 6491.14550175295
1009.8686612898182 6703.128494333228
1010.7713289461135 6634.305245925714
1011.6737725554212 6599.564634888999
1012.5759921830577 6618.967495325551
1013.4779878943027 6611.59131656922
1014.379759754418 6594.778516729779
1015.2813078286254 6449.557774582889
1016.18263218213 6417.572231829352
1017.0837328801026 6534.075332523449
1017.9846099876886 6667.441781528338
1018.8852635700023 6432.561014250946
1019.7856936921362 6288.14416646558
1020.6859004191447 6479.220185031871
1021.5858838160675 6447.547762385735
1022.4856439479063 6341.176507294041
1023.3851808796389 6345.21070300545
1024.2844946762143 6463.417007122539
1025.183585402554 6440.610576648447
1026.082453123554 6184.602406704068
1026.9810979040776 6342.289071656859
1027.8795198089647 6184.529363173813
1028.777718903024 6343.548685314284
1029.6756952510368 6210.620966224327
1030.5734489177648 6198.628346988258
1031.4709799679313 6234.769776229964
1032.3682884662358 6371.999067422282
1033.2653744773506 6154.330092429793
1034.1622380659192 6136.875203586822
1035.058879296559 6212.253483422597
1035.9552982338591 6245.48028505693
1036.8514949423825 6223.237869195518
1037.7474694866614 6109.42028409854
1038.6432219312028 6143.35927199822
1039.5387523404825 6279.357723360639
1040.4340607789582 6215.485614289435
1041.3291473110476 6219.601497629055
1042.2240120011465 6342.752255465146
1043.1186549136273 6409.392613724176
1044.0130761128294 6218.272630397538
1044.9072756630649 6366.372467805189
1045.8012536286205 6360.670204858988
1046.6950100737577 6384.277948049271
1047.588545062701 6373.617812372074
1048.481858659663 6379.413329690222
1049.3749509288118 6488.880655768715
1050.2678219343034 6256.383483862197
1051.1604717402515 6348.980958795581
1052.0529004107575 6250.704537768501
1052.9451080098825 6400.782607321359
1053.8370946016694 6389.301335363622
1054.7288602501267 6482.987691178404
1055.6204050192446 6353.534392492529
1056.511728972977 6469.2753566655
1057.402832175254 6369.9292521511825
1058.2937146899785 6298.659417525343
1059.1843765810263 6337.296822667866
1060.0748179122456 6464.096538017575
1060.9650387474576 6395.42415256822
1061.855039150456 6434.754556486112
1062.7448191850071 6399.424651231382
1063.6343789148505 6372.871979603707
1064.5237184037014 6388.702227550755
1065.412837715241 6222.342492719485
1066.3017369131267 6251.834719406611
1067.190416060992 6250.738487795197
1068.0788752224398 6214.003472609024
1068.9671144610438 6244.806541505286
1069.8551338403558 6269.704911952216
1070.7429334239023 6385.415391890316
1071.6305132751695 6193.831910405356
1072.517873457633 6240.296985441264
1073.4050140347335 6173.41696488355
1074.2919350698776 6161.176095833277
1075.1786366264623 6139.090747338994
1076.0651187678395 6234.945844900723
1076.95138155735 6047.605953940199
1077.8374250582929 6038.776986571747
1078.7232493339507 6142.970529781273
1079.608854447577 6125.181495523755
1080.4942404623907 6038.602213461212
1081.3794074415982 6099.189256108826
1082.2643554483657 6062.511816462506
1083.149084545841 6034.176930206335
1084.033594797138 5904.697724967491
1084.9178862653516 5893.9880939450095
1085.8019590135427 6047.648157528367
1086.6858131047484 5836.780597182727
1087.5694486019802 5898.754309792786
1088.4528655682225 5853.605540552912
1089.3360640664287 6081.9037009052045
1090.2190441595321 5864.1252475141455
1091.1018059104317 5897.556098655428
1091.98434938201 5873.153933983625
1092.866674637111 5906.203187992195
1093.748781738559 5862.545491958636
1094.6306707491512 5761.84708633866
1095.5123417316554 5847.839143032454
1096.3937947488157 5785.061573009276
1097.2750298633455 5812.28589426042
1098.156047137938 5751.785600722365
1099.0368466352556 5901.424953699525
1099.9174284179317 5845.621543628323
1100.7977925485757 5701.85665574152
1101.6779390897755 5728.318620536307
1102.5578681040806 5808.965454784254
1103.4375796540226 5810.9015153342025
1104.3170738021054 5729.8307758951105
1105.1963506108077 5625.736043976042
1106.0754101425773 5671.56560394573
1106.9542524598382 5809.441065572237
1107.8328776249855 5596.794465689576
1108.7112857003904 5649.04401473291
1109.5894767483987 5544.905165482931
1110.4674508313292 5741.087621382226
1111.3452080114657 5655.438671597871
1112.2227483510815 5826.643193306062
1113.1000719124077 5790.802973394455
1113.9771787576592 5922.564490707245
1114.854068949022 5757.776127667532
1115.7307425486542 5809.18345277892
1116.6071996186893 5967.362498679264
1117.483440221229 6011.567302212937
1118.3594644183577 5841.8087855980375
1119.235272272128 5917.289382238048
1120.1108638445658 6083.391054129868
1120.9862391976712 6243.426310710527
1121.8613983934229 6104.160617149793
1122.7363414937627 6084.706758183429
1123.6110685606182 6131.02398663158
1124.485579655884 6470.361870807336
1125.359874841426 6284.957345024826
1126.2339541790916 6231.919210475158
1127.1078177306936 6474.200297412025
1127.9814655580267 6238.966640501853
1128.854897722851 6294.352306351555
1129.7281142869106 6401.5609923094435
1130.6011153119125 6460.3979767127
1131.473900859548 6528.209286407249
1132.3464709914697 6439.1569206017975
1133.2188257693178 6323.73968918168
1134.0909652546961 6366.421469518501
1134.96288950919 6348.705592871086
1135.8345985943506 6436.237680180338
1136.7060925717087 6165.240523611221
1137.57737150277 6242.343735170774
1138.4484354490069 6301.322191542454
1139.3192844718778 6185.335494978301
1140.1899186327992 6096.5242431356655
1141.060337993178 6179.490982185162
1141.930542614382 6063.9293628099
1142.8005325577597 6045.665832909436
1143.670307884635 5789.722530352435
1144.5398686563003 6050.501031551374
1145.409214934025 5901.156770235788
1146.2783467790541 5650.572425622672
1147.1472642526023 5832.483466027527
1148.0159674158622 5812.37039140854
1148.8844563300026 5671.104813778375
1149.7527310561618 5541.064255676383
1150.6207916554504 5531.025714267339
1151.4886381889592 5487.992280425702
1152.3562707177498 5714.891729056761
1153.2236893028585 5520.665491318248
1154.090894005296 5440.03179251264
1154.9578848860474 5439.330564513088
1155.8246620060709 5421.487100322609
1156.6912254262988 5348.736734352785
1157.5575752076438 5426.869774290184
1158.42371141098 5550.705964248631
1159.2896340971656 5434.722434467181
1160.1553433270346 5452.605770006547
1161.0208391613887 5399.593279186665
1161.8861216610057 5504.684388176856
1162.75119088664 5482.628418721162
1163.6160468990201 5237.394419099354
1164.4806897588442 5247.765823285796
1165.3451195267917 5519.940621492945
1166.2093362635114 5452.945766601041
1167.0733400296285 5313.339313084103
1167.9371308857444 5281.994404754684
1168.8007088924278 5282.204557206971
1169.6640741102328 5446.904344627879
1170.5272265996773 5252.558814526694
1171.390166421259 5085.245351455696
1172.252893635452 5373.755178061097
1173.1154083026995 5448.730543564083
1173.977710483421 5365.524404229483
1174.8398002380145 5206.850580212648
1175.7016776268483 5349.793735562609
1176.563342710264 5288.031145613228
1177.4247955485826 5170.390654785113
1178.2860362020947 5319.868676844484
1179.147064731069 5167.591305042487
1180.0078811957483 5396.166248071531
1180.8684856563486 5229.694903601235
1181.7288781730604 5290.128754625232
1182.589058806052 5293.420742411619
1183.4490276154593 5407.0987876624495
1184.3087846614017 5343.23752291758
1185.1683300039676 5308.599476763369
1186.027663703222 5506.705062187635
1186.8867858192025 5409.902807863979
1187.7456964119228 5345.63983133554
1188.6043955413716 5470.509692883041
1189.4628832675116 5533.3047638609605
1190.3211596502842 5547.946716239856
1191.179224749596 5586.461971105167
1192.0370786253388 5450.6431837198625
1192.8947213373758 5601.944920066541
1193.7521529455407 5669.395913473303
1194.6093735096438 5456.057361705033
1195.466383089477 5490.4377130343155
1196.3231817447977 5659.664563681943
1197.1797695353398 5748.998635022118
1198.0361465208189 5493.982987961747
1198.8923127609214 5510.042218247812
1199.7482683153048 5552.122426211523
1200.6040132436028 5689.256770016061
1201.459547605431 5499.341052679112
1202.3148714603722 5397.561413251488
1203.1699848679855 5498.118241816725
1204.0248878878065 5619.8837846699025
1204.8795805793507 5354.078507112585
1205.7340630020935 5542.082884239712
1206.5883352155033 5577.598335187945
1207.4423972790064 5588.611971216232
1208.2962492520237 5402.924980059371
1209.1498911939307 5477.525662687059
1210.0033231640937 5515.215845667202
1210.8565452218427 5402.010808382702
1211.7095574264913 5259.2937468849495
1212.5623598373222 5299.203543747328
1213.4149525135963 5219.199176169459
1214.2673355145507 5357.06162943627
1215.1195088993936 5188.848812488335
1215.9714727273113 5177.692975833543
1216.8232270574663 5340.646703781297
1217.6747719489904 5041.291676682423
1218.5261074609934 5092.6636147283325
1219.3772336525653 5097.209518630189
1220.2281505827668 5185.026821253096
1221.0788583106296 5243.560895016128
1221.9293568951707 5102.175228856119
1222.7796463953746 5019.131629570145
1223.629726870202 5165.804743370687
1224.4795983785934 5248.302857256816
1225.3292609794553 5114.948325226083
1226.1787147316809 4977.680934922208
1227.0279596941327 5138.244662154847
1227.8769959256424 5147.202238759703
1228.7258234850306 5152.718689988735
1229.5744424310833 5022.485193662876
1230.422852822563 5156.060421484547
1231.2710547182105 5256.152088786723
1232.119048176739 5159.070950867638
1232.9668332568417 4921.629814141853
1233.8144100171812 5165.005176459702
1234.6617785163999 5152.38769395004
1235.508938813111 4889.834851989155
1236.3558909659114 4963.332722253666
1237.2026350333617 5025.06886690459
1238.049171074008 5202.675911960075
1238.8954991463652 4983.757207292825
1239.741619308932 4977.038073700378
1240.587531620169 5220.52906233003
1241.4332361385277 5040.130609297004
1242.2787329224248 4901.563013979997
1243.1240220302534 4921.93030743138
1243.9691035203869 4956.345583357293
1244.813977451171 5040.802028262842
1245.6586438809263 4994.906817902111
1246.5031028679496 4738.84574671023
1247.3473544705157 5063.557731010245
1248.1913987468706 5052.380238243504
1249.0352357552383 4794.031727026107
1249.8788655538228 4819.411070876244
1250.7222882007918 4964.866385132893
1251.565503754302 4942.436820632685
1252.4085122724755 4763.7192962674435
1253.2513138134182 5003.619573262165
1254.0939084352049 4894.38722054595
1254.9362961958905 4889.474043481136
1255.7784771535007 4873.741545447201
1256.6204513660432 4981.135663252356
1257.4622188915 5111.863169191529
1258.3037797878242 4877.026593897693
1259.1451341129468 4906.622699583222
1259.9862819247755 4944.729528773051
1260.8272232811978 4892.8278284112075
1261.6679582400666 5190.951003855493
1262.5084868592203 4808.890986487939
1263.34880919647 4792.572121309285
1264.1889253095997 4846.495754569145
1265.0288352563712 5022.582883240414
1265.8685390945266 4899.107035760495
1266.7080368817751 4924.147231506625
1267.5473286758115 5021.050168536973
1268.386414534294 5011.6935671235915
1269.2252945148703 4592.503232868226
1270.0639686751547 4797.848671115449
1270.9024370727402 4881.750956662881
1271.7406997651997 4747.926116645184
1272.5787568100714 4752.123115215102
1273.4166082648808 4798.656924704903
1274.2542541871244 4726.3732581938775
1275.091694634275 4978.461260607721
1275.9289296637817 4659.241013632759
1276.7659593330663 4804.500182718425
1277.6027836995308 4692.57735602361
1278.4394028205552 4887.46225945631
1279.2758167534867 4681.949923883063
1280.112025555658 4760.534897576979
1280.9480292843746 4763.976629201783
1281.7838279969128 4682.3755020513445
1282.6194217505326 4713.410598459468
1283.4548106024686 4605.8127730866245
1284.289994609926 4644.166683142497
1285.1249738300921 4804.530399873301
1285.959748320127 4624.646500270365
1286.7943181371702 4723.416049861414
1287.6286833383328 4649.844181366155
1288.4628439807038 4685.302182052044
1289.2968001213521 4581.193810861443
1290.1305518173194 4658.776968040284
1290.9640991256183 4651.517784531964
1291.7974421032523 4430.922567952903
1292.630580807183 4545.755584313439
1293.463515294361 4691.268304265914
1294.29624562171 4784.784909561497
1295.12877184613 4530.275075974797
1295.961094024493 4564.559109854078
1296.79321221365 4749.100835582734
1297.6251264704333 4704.016263116588
1298.4568368516466 4923.172420359412
1299.2883434140658 4629.454584608497
1300.1196462144526 4616.394501284981
1300.9507453095375 4657.452867622687
1301.7816407560313 4767.686185767018
1302.6123326106172 4707.073331372437
1303.4428209299622 4518.920300501122
1304.2731057707024 4703.115868418997
1305.1031871894502 4474.663835526012
1305.933065242798 4771.41306021309
1306.7627399873181 4711.364539003713
1307.5922114795467 4979.212963998879
1308.4214797760123 4981.129484387913
1309.2505449332057 4724.89395659937
1310.0794070076026 4847.688465410353
1310.9080660556538 4871.68759694815
1311.736522133786 4845.360445933524
1312.5647752983987 4719.8520193297245
1313.3928256058734 4649.891863564902
1314.2206731125661 4806.279010232969
1315.048317874809 4774.474832316471
1315.8757599489109 4688.70644653337
1316.7029993911547 4831.334729974225
1317.5300362578055 4821.253405823363
1318.356870605101 4638.441559874388
1319.183502489257 4649.060765245508
1320.0099319664623 4738.717500922455
1320.836159092889 4799.790521389382
1321.66218392468 4859.583477205828
1322.4880065179532 4631.012873092432
1323.3136269288134 4723.031374378663
1324.1390452133292 4905.782719430239
1324.9642614275563 4867.674239705937
1325.7892756275214 4765.3400559549145
1326.6140878692295 4640.327892343774
1327.4386982086617 5078.070486122644
1328.2631067017755 4888.978865677056
1329.0873134045069 4751.963132185518
1329.911318372764 4710.088525689579
1330.735121662441 4732.38145420473
1331.558723329399 4607.0254869377295
1332.3821234294774 4630.421407271586
1333.2053220185007 4674.7580330478695
1334.0283191522612 4686.779578313244
1334.851114886529 4839.465929245808
1335.6737092770582 4671.92411734706
1336.4961023795695 4758.655378352424
1337.3182942497697 4751.016533181791
1338.1402849433325 4721.884930256398
1338.962074515921 4598.095294901819
1339.7836630231632 4581.939826373703
1340.6050505206676 5039.309152663307
1341.426237064028 4921.396405190854
1342.2472227088037 5011.491544626859
1343.0680075105338 4580.632752453914
1343.888591524741 4605.406370714845
1344.7089748069138 4958.985728347383
1345.5291574125276 4629.12552422353
1346.3491393970307 4572.545771875828
1347.168920815846 4712.029823412418
1347.9885017243778 4800.791173148715
1348.8078821780036 4630.796931952528
1349.6270622320844 4747.072868692181
1350.4460419419447 4561.565329190713
1351.2648213629054 4852.350975394681
1352.0834005502438 4471.126626650869
1352.90177955923 4631.368968435279
1353.7199584451064 5070.673539757765
1354.5379372630887 4729.750301113703
1355.355716068374 4592.863803407207
1356.1732949161305 4555.331279641917
1356.9906738615155 4540.930677168213
1357.8078529596478 4726.898914745321
1358.6248322656375 4596.4654611286505
1359.441611834567 4534.71040396719
1360.2581917214866 4901.893347941037
1361.0745719814367 4567.875874320642
1361.890752669433 4498.134756438989
1362.7067338404577 4476.163045693478
1363.5225155494845 4742.191345974106
1364.3380978514506 4851.685514997018
1365.1534808012839 4434.635726393065
1365.9686644538815 4398.7860525080305
1366.783648864117 4771.621361285897
1367.5984340868417 4734.685892131029
1368.413020176893 4730.431879817778
1369.2274071890715 4581.604179985943
1370.0415951781652 4761.734982673349
1370.8555841989346 4433.182554297613
1371.6693743061223 4404.5534338248
1372.48296555444 4400.752057642721
1373.2963579985844 4649.265799226004
1374.1095516932255 4670.502732122081
1374.9225466930166 4371.354607134595
1375.7353430525782 4606.388601888033
1376.5479408265164 4482.544639760568
1377.36034006941 4658.725298855095
1378.1725408358216 4652.403818485389
1378.9845431802805 4370.20283452522
1379.796347157304 4823.808943957529
1380.6079528213813 4773.1580183301
1381.4193602269788 4414.452149906286
1382.230569428546 4423.499341948324
1383.0415804805016 4809.546094075504
1383.852393437246 4762.474509796082
1384.6630083531563 4627.303638486338
1385.4734252825892 4593.468123795602
1386.2836442798798 4573.521748908358
1387.0936653993322 4647.589057910358
1387.9034886952395 4478.967778751377
1388.713114221864 4681.544160116563
1389.5225420334482 4655.319798136029
1390.331772184214 4529.284455661431
1391.1408047283585 4383.1150854527095
1391.9496397200564 4362.413494176087
1392.758277213461 4671.881573704002
1393.5667172627054 4648.446915464012
1394.3749599218918 4293.847503397864
1395.1830052451114 4348.95380349333
1395.9908532864265 4340.806165874835
1396.7985040998774 4733.770563584357
1397.6059577394808 4280.592579697923
1398.4132142592352 4490.972769509903
1399.2202737131156 4366.579626754554
1400.027136155073 4431.253324408397
1400.8338016390353 4407.977498581649
1401.6402702189134 4310.267950060123
1402.446541948586 4434.743864625888
1403.2526168819204 4245.5686708451685
1404.058495072757 4297.1922417477035
1404.8641765749107 4280.133396190924
1405.6696614421799 4337.781561714252
1406.4749497283356 4630.428835252788
1407.280041487129 4282.059019794166
1408.084936772295 4034.981360912683
1408.8896356375335 4292.325284886155
1409.6941381365323 4362.438844676236
1410.498444322955 4080.0714445582707
1411.3025542504402 4207.18412772067
1412.106467972606 4238.635380254059
1412.9101855430508 4321.870760449196
1413.7137070153458 4073.903518674033
1414.5170324430437 4082.395837770927
1415.320161879672 4231.839419817517
1416.1230953787435 4373.181573501601
1416.925832993742 4055.5316693865025
1417.7283747781275 3919.384127013388
1418.5307207853439 4173.682427644129
1419.3328710688093 4150.648936170038
1420.134825681922 3874.6024898412807
1420.9365846780584 3990.0394061552242
1421.7381481105713 4311.708191345937
1422.539516032788 4132.853131776017
1423.3406884980232 3919.363812710914
1424.1416655595604 3856.3541636606496
1424.942447270665 3984.901256956121
1425.7430336845828 4078.0140033695957
1426.5434248545298 3797.1585737301357
1427.3436208337116 4052.200478516482
1428.143621675301 4173.4227230667
1428.9434274324558 4210.8388670525865
1429.7430381583108 3846.8610060913043
1430.5424539059713 3969.3563812927423
1431.3416747285337 4392.78035418644
1432.1407006790632 4058.3238706344077
1432.9395318106053 4026.101675874617
1433.7381681761835 3844.9482226436253
1434.5366098288014 3961.8295912915323
1435.3348568214424 4109.88941133235
1436.1329092070573 3890.0139124057678
1436.9307670385879 3914.131149557338
1437.7284303689503 4060.634099102814
1438.5258992510335 4187.615086325232
1439.3231737377118 4013.5670085276047
1440.1202538818306 3897.2715946047347
1440.9171397362225 3939.6003459372005
1441.7138313536925 3975.8873487805795
1442.5103287870243 3783.7204298813463
1443.3066320889775 3781.7590405623478
1444.1027413122956 4081.4374321438745
1444.8986565096966 3898.2813129396504
1445.694377733882 3930.447325625083
1446.4899050375207 3787.076888952476
1447.2852384732687 3695.431662878845
1448.0803780937622 4101.898140847076
1448.8753239516063 3825.484292707142
1449.6700760993954 3757.2642125518514
1450.464634589689 3669.81968200755
1451.2589994750397 4096.057316963975
1452.0531708079689 3715.6916389998783
1452.8471486409799 3674.5514470787516
1453.6409330265524 4033.4350038708117
1454.4345240171442 3806.904298142289
1455.2279216651987 3851.214160892603
1456.0211260231263 3841.7961078678113
1456.8141371433194 3955.7430923106085
1457.6069550781594 3896.6468283575805
1458.3995798799897 3683.8461434344113
1459.1920116011424 3789.934646717006
1459.98425029393 3760.861703203529
1460.7762960106338 3657.306258664876
1461.5681488035225 3792.584030646028
1462.3598087248392 3838.9134024084174
1463.1512758268036 3927.7523857629944
1463.942550161617 3758.463039865768
1464.7336317814625 3684.5716856935423
1465.524520738496 3766.405088434066
1466.3152170848552 3641.6189477357466
1467.1057208726506 3892.99406798981
1467.8960321539817 3607.820387251844
1468.6861509809169 3639.8804115528023
1469.4760774055085 3648.971832078503
1470.265811479785 3830.6732212836105
1471.055353255755 3540.618264088306
1471.844702785409 3748.5504570792464
1472.6338601207044 3688.6106849850257
1473.4228253135934 4230.807297534482
1474.2115984159936 3608.914047143147
1475.0001794798063 3432.469334920753
1475.7885685569145 3887.9969733971257
1476.576765699172 3737.226784255494
1477.3647709584238 3737.6127516334004
1478.1525843864802 3902.3181506177666
1478.9402060351367 3864.2945362386736
1479.7276359561693 3766.418174624432
1480.514874201328 3641.0636708360094
1481.3019208223468 3564.4079886051054
1482.0887758709323 3498.8076436090932
1482.8754393987747 3786.5962318876836
1483.6619114575406 3437.748070396471
1484.4481920988783 3768.517945058048
1485.2342813744108 3785.967188771226
1486.0201793357446 3814.806723542134
1486.8058860344572 3720.5053642779117
1487.591401522117 3664.1484987668846
1488.3767258502594 3659.4308372892856
1489.1618590704056 3623.2704071502144
1489.9468012340494 3418.3024944652507
1490.7315523926754 3747.08006450729
1491.5161125977356 3857.246551213177
1492.3004819006637 3685.815208651108
1493.084660352877 3518.259654336649
1493.8686480057622 3705.181313746286
1494.6524449106964 3954.317960796361
1495.4360511190262 3908.8489800347393
1496.219466682087 3608.310005674322
1497.0026916511779 3688.6704659024954
1497.7857260775945 3671.6596816065066
1498.5685700125996 3752.1372122116786
1499.3512235074395 3619.6157769542237
1500.133686613337 3585.196451581607
1500.9159593814966 3528.6297237894214
1501.698041863101 4111.979330460082
1502.4799341093094 3383.843798487739
1503.2616361712662 3504.0298292341495
1504.043148100087 3717.185717532923
1504.8244699468742 3863.5406607112236
1505.6056017626997 3532.3342441521663
1506.3865435986281 3370.0517927377323
1507.1672955056893 3755.9973481756483
1507.9478575348967 3534.0611194250473
1508.7282297372512 3746.9479685642495
1509.5084121637192 3591.5949863237715
1510.2884048652577 3644.716479983593
1511.0682078927948 3564.201046027202
1511.8478212972423 3526.2497998301137
1512.6272451294917 3487.22863583105
1513.4064794404076 3694.42134581586
1514.1855242808433 3573.327807936431
1514.9643797016215 3542.527502237961
1515.743045753552 3647.896188894715
1516.5215224874191 3642.6821931177424
1517.2998099539836 3335.6984523023157
1518.077908203999 3570.7165679006766
1518.8558172881785 3519.8426399340124
1519.633537257234 3720.4045538651894
1520.4110681618404 3585.806931904894
1521.1884100526604 3685.0737513271365
1521.9655629803365 3622.589491361571
1522.7425269954856 3766.156809094891
1523.5193021487103 3719.5108894806713
1524.2958884905856 3436.236946275979
1525.0722860716687 3519.721228801102
1525.848494942502 3522.892794061997
1526.624515153595 3478.72652659701
1527.4003467554485 3633.53781523638
1528.175989798534 3675.4076007957788
1528.9514443333064 3481.6518988506964
1529.726710410203 3769.0587973529764
1530.5017880796331 3423.468831424934
1531.276677391992 3532.332387918558
1532.0513783976457 3738.118245356845
1532.825891146953 3557.0417417544472
1533.6002156902414 3691.2777979449374
1534.3743520778207 3588.9510797223184
1535.1483003599806 3531.660568399419
1535.9220605869923 3592.5646058631014
1536.6956328091019 3692.704795078674
1537.4690170765407 3529.278205142763
1538.242213439511 3750.8462127542816
1539.015221948208 3613.0381655216174
1539.78804265279 3456.462529766898
1540.560675603405 3397.2039740301907
1541.3331208501804 3874.557645574868
1542.1053784432224 3725.5648706060892
1542.8774484326168 3654.6475058362435
1543.649330868422 3637.7207626401128
1544.4210258006842 3641.932818578754
1545.1925332794308 3570.716551848001
1545.9638533546604 3531.4600478955886
1546.7349860763552 3386.129226917058
1547.5059314944829 3888.3885003966143
1548.27668965898 3551.961009744037
1549.0472606197673 3654.430163886404
1549.817644426752 3435.851481881908
1550.5878411298072 3750.046846088678
1551.3578507787988 3592.6210182269883
1552.1276734235635 3504.080161823589
1552.8973091139233 3563.373564074815
1553.6667578996767 3630.349109972176
1554.436019830604 3621.0853151603087
1555.20509495646 3648.9875364843188
1555.9739833269869 3410.0260567480923
1556.7426849919011 3384.2779838340366
1557.511200000903 3854.559219799782
1558.2795284036674 3602.4327723308284
1559.0476702498509 3530.493894195526
1559.8156255890954 3715.9663425595345
1560.5833944710157 3847.8521261398455
1561.3509769452048 3463.8119789398706
1562.1183730612447 3511.0910971115613
1562.8855828686865 3550.492988329588
1563.6526064170703 3794.0293826258176
1564.4194437559127 3724.0066659345857
1565.1860949347047 3376.9890498448485
1565.9525600029283 3727.500583267949
1566.7188390100328 3760.182129747814
1567.4849320054564 3578.299202194002
1568.250839038612 3518.22667148655
1569.0165601588997 3433.4493871957943
1569.7820954156887 3771.285120575508
1570.5474448583373 3512.0730760233555
1571.31260853618 3476.0447541339263
1572.0775864985299 3353.7331052809764
1572.8423787946813 3625.8961127563393
1573.6069854739108 3280.833322600879
1574.371406585471 3575.0764919335934
1575.1356421785986 3581.7123893401053
1575.899692302506 3485.3824910702033
1576.6635570063845 3526.343875915016
1577.4272363394157 3494.533156698294
1578.190730350747 3489.438345843155
1578.9540390895163 3508.406017105027
1579.7171626048384 3213.2420697272228
1580.480100945806 3367.5797191933984
1581.2428541614918 3477.5747485553243
1582.0054223009538 3409.223226467763
1582.767805413223 3531.6197653862787
1583.5300035473156 3393.748008506997
1584.292016752228 3675.177558456783
1585.0538450769309 3514.485881995087
1585.8154885703807 3367.9370743244335
1586.5769472815136 3393.4891212468187
1587.3382212592405 3537.1092144595377
1588.099310552463 3657.373085881605
1588.8602152100484 3199.6935796731423
1589.6209352808564 3615.4870584542196
1590.3814708137234 3590.276060688341
1591.14182185746 3357.2376501200233
1591.9019884608679 3519.3154293259927
1592.6619706727215 3337.885956901738
1593.4217685417734 3510.639152715904
1594.1813821167616 3785.0890182768076
1594.9408114464022 3324.3477373325777
1595.7000565793933 3548.1497554155185
1596.459117564409 3667.8837038630604
1597.2179944501113 3328.510135250178
1597.9766872851324 3459.6437499741332
1598.735196118092 3565.2942445639515
1599.4935209975883 3565.995149555376
1600.2516619721973 3717.3517662802747
1601.0096190904787 3470.45396221801
1601.7673924009723 3507.368790362697
1602.524981952196 3386.1748203811076
1603.2823877926476 3484.1375190007902
1604.0396099708087 3427.6563203764185
1604.7966485351371 3388.215390411926
1605.5535035340745 3431.8677141241287
1606.3101750160404 3710.884017922473
1607.0666630294363 3427.5417498962734
1607.822967622642 3264.635586702328
1608.5790888440224 3501.6736878776696
1609.3350267419137 3674.6355651320673
1610.0907813646445 3555.2781661437175
1610.8463527605145 3533.2869108906766
1611.601740977805 3553.2778501202097
1612.356946064785 3630.7499868751993
1613.1119680696902 3248.1314178903162
1613.8668070407512 3372.4710824012755
1614.6214630261748 3399.0990471282616
1615.375936074137 3378.157505502709
1616.1302262328118 3509.399551920588
1616.8843335503425 3631.2318251823067
1617.638258074854 3332.925246220509
1618.391999854457 3507.5947227140414
1619.1455589372363 3632.035308893794
1619.8989353712623 3501.519513756802
1620.65212920458 3334.299333891652
1621.4051404852235 3391.212795810459
1622.1579692611976 3425.1436347920694
1622.9106155804966 3146.53599900401
1623.663079491087 3266.034213060193
1624.4153610409248 3386.6333975548646
1625.1674602779385 3289.5897879996073
1625.9193772500403 3243.565025823367
1626.6711120051277 3550.983894218555
1627.4226645910676 3425.826272863148
1628.174035055721 3265.5088462722806
1628.9252234469168 3451.768153016032
1629.676229812474 3237.863550459174
1630.4270542001905 3658.911959078597
1631.1776966578382 3419.8817901509055
1631.9281572331747 3411.1041858668227
1632.678435973945 3381.4666279127136
1633.4285329278573 3428.824943920422
1634.1784481426203 3179.481183298628
1634.9281816659113 3442.845297951006
1635.677733545388 3622.701880301653
1636.4271038286934 3297.16182260923
1637.176292563452 3393.929848013527
1637.9252997972635 3333.810998653077
1638.674125577716 3643.882631463706
1639.4227699523672 3752.781017394083
1640.171232968767 3159.5401446837454
1640.9195146744423 3534.6408774791257
1641.6676151168977 3505.9206181771924
1642.4155343436178 3499.6373146309174
1643.1632724020765 3420.098548060694
1643.9108293397167 3351.761740550138
1644.658205203974 3254.010971599933
1645.4054000422566 3280.9211733067286
1646.1524139019566 3307.584247859516
1646.8992468304423 3233.689135487198
1647.6458988750728 3336.3830350370163
1648.3923700831765 3381.9143411714153
1649.1386605020743 3368.95719709116
1649.8847701790564 3467.5376275359386
1650.6306991614038 3374.2816677075925
1651.3764474963682 3461.8566066442845
1652.1220152311944 3206.961261582916
1652.867402413096 3380.298933104345
1653.6126090892776 3317.4602727558404
1654.3576353069184 3547.014176795946
1655.1024811131829 3323.790387518002
1655.8471465552066 3411.3357441386297
1656.5916316801213 3577.258944833171
1657.3359365350298 3404.799917520999
1658.0800611670165 3360.6779721347184
1658.824005623148 3334.8621863971616
1659.5677699504722 3231.438840271519
1660.3113541960192 3474.858052849886
1661.054758406799 3272.480401115595
1661.7979826297997 3197.416431742882
1662.5410269119966 3142.450059687861
1663.283891300338 3533.27401443331
1664.0265758417645 3199.541415824475
1664.7690805831826 3361.418427092507
1665.5114055714948 3571.5366586029077
1666.2535508535748 3727.3376246610314
1666.9955164762814 3024.44072655388
1667.7373024864555 3283.024922170391
1668.478908930916 3367.8930183288603
1669.220335856462 3103.237744426004
1669.9615833098778 3182.017199966961
1670.7026513379296 3068.1181871816957
1671.44353998736 3200.290885001363
1672.1842493048916 3290.7571506676186
1672.9247793372379 3098.6908403407297
1673.6651301310812 3225.3820736668376
1674.4053017330934 3051.356020582096
1675.1452941899242 3268.7705617583697
1675.885107548207 2755.729450370764
1676.6247418545518 2927.5618977932254
1677.3641971555535 2989.2706084496926
1678.1034734977893 3279.0394422289037
1678.8425709278108 3065.030248841921
1679.5814894921605 3259.320048665229
1680.320229237359 3000.650312528095
1681.0587902098978 3253.8194392149367
1681.7971724562685 3103.9802509469337
1682.5353760229264 3125.362348533659
1683.2734009563173 3097.0087241970737
1684.0112473028657 2979.891157367026
1684.7489151089794 3040.986360642604
1685.4864044210462 3068.292584958689
1686.2237152854377 2868.0786460646386
1686.960847748498 3233.428444967427
1687.6978018565642 2969.6470953116163
1688.434577655944 2871.5053115700634
1689.1711751929379 3057.606877675514
1689.9075945138156 3070.595396857678
1690.6438356648396 2941.9009162026027
1691.3798986922448 2666.7129720837843
1692.1157836422499 2883.712633591612
1692.851490561059 2885.2442299292165
1693.587019494853 2949.9706118974686
1694.3223704897991 2676.1015592601916
1695.0575435920364 2704.617032059271
1695.792538847696 3238.343811499643
1696.527356302886 2782.5690418203985
1697.2619960036936 2663.282635263385
1697.9964579961907 2853.2515483900634
1698.730742326432 2426.684633753769
1699.4648490404488 2630.7510188792116
1700.1987781842563 2742.8044624129225
1700.9325298038548 2958.3795362563715
1701.6661039452174 2979.937767418837
1702.3995006543082 2749.202931364162
1703.1327199770658 2931.6676832826224
1703.865761959416 2659.6956565869023
1704.598626647261 3059.5658844375894
1705.3313140864866 2682.33295995673
1706.0638243229587 2675.8032594052165
1706.7961574025303 2922.182897513769
1707.528313371029 2671.63255118132
1708.260292274268 2552.740789150357
1708.9920941580403 2784.549834713447
1709.7237190681226 2827.1634257914857
1710.4551670502697 2771.9531451398843
1711.18643815022 2372.2224871856124
1711.9175324136959 2510.2438848569013
1712.6484498863938 2648.4788034870458
1713.379190614005 2520.3527063386914
1714.109754642188 2751.510360247007
1714.8401420165883 2587.269750161345
1715.570352782839 2840.798083251798
1716.3003869865497 2866.41837400783
1717.0302446733076 2518.206890418633
1717.7599258886876 2606.9689737011995
1718.4894306782444 3010.736763332795
1719.2187590875183 2555.5157503743817
1719.9479111620203 2843.2337460009894
1720.6768869472544 2743.1531908702927
1721.4056864887025 2952.9136079225655
1722.1343098318284 2968.208998747264
1722.8627570220742 2709.0179825114856
1723.591028104871 2537.9337748954813
1724.3191231256242 2522.7590578544723
1725.0470421297232 2624.714666502932
1725.7747851625427 2779.3030269590377
1726.5023522694337 2628.9394324229143
1727.2297434957363 2689.1432359858363
1727.9569588867635 2514.1236265685043
1728.6839984878152 2812.482940770959
1729.4108623441734 2325.855723222754
1730.1375505011038 2740.314870895913
1730.8640630038426 2544.4751516625374
1731.5903998976264 2485.5502435280896
1732.316561227657 2730.4030460759254
1733.0425470391274 2581.946035787372
1733.7683573772065 2701.1382202219534
1734.4939922870508 2468.1230668631965
1735.2194518137949 2587.408567699945
1735.9447360025606 2719.0110112415396
1736.669844898439 2518.3433680010603
1737.3947785465189 2469.6784904393803
1738.1195369918605 2331.351039741299
1738.8441202795093 2497.5612282047887
1739.5685284544943 2626.3522501028347
1740.292761561821 2670.9663096808613
1741.0168196464838 2763.758812031242
1741.7407027534518 2611.3841259944734
1742.464410927687 2730.2821508920615
1743.187944214118 2636.1035688712027
1743.9113026576688 2419.860812383651
1744.634486303241 2568.4427274062723
1745.3574951957125 2552.101789366475
1746.0803293799509 2519.737568056161
1746.8029889008048 2378.819917820347
1747.5254738031017 2711.995387419124
1748.2477841316504 2417.509523916337
1748.969919931249 2487.1683346548184
1749.6918812466665 2420.046341017271
1750.4136681226646 2772.460290590676
1751.1352806039777 2597.0261209320847
1751.856718735331 2505.101867147261
1752.5779825614281 2516.378701243746
1753.2990721269507 2632.7457258399054
1754.0199874765676 2679.340344379287
1754.7407286549314 2273.179600894334
1755.4612957066693 2455.8392069800343
1756.1816886763954 2412.172369043039
1756.9019076087097 2559.6534608870547
1757.6219525481865 2507.601850120904
1758.3418235393856 2585.1160810858255
1759.061520626854 2629.59461651642
1759.7810438551096 2706.85024603786
1760.5003932686614 2446.251505637717
1761.2195689119999 2747.7230660640407
1761.938570829594 2312.033513842526
1762.657399065898 2426.349725888173
1763.376053665348 2437.2746237530814
1764.0945346723602 2376.874605073876
1764.812842131334 2643.04395265083
1765.5309760866512 2373.634535217593
1766.2489365826787 2475.0742846969956
1766.9667236637597 2531.070422809368
1767.684337374223 2261.970091709095
1768.401777758383 2163.143257932611
1769.1190448605284 2293.659776948797
1769.836138724937 2249.4677249034494
1770.5530593958665 2573.202976893118
1771.2698069175603 2707.9202294701636
1771.9863813342326 2530.519707111415
1772.702782690094 2413.8760733702775
1773.4190110293293 2484.0067121441366
1774.1350663961111 2660.885473391848
1774.8509488345844 2323.2006665706
1775.5666583888924 2516.5970722894335
1776.2821951031437 2627.0449376872575
1776.9975590214362 2452.130162433644
1777.7127501878585 2842.7162654494723
1778.4277686464684 2389.976979143318
1779.1426144413108 2795.7675836111425
1779.8572876164162 2589.625024879032
1780.571788215797 2376.855925679848
1781.2861162834415 2563.9814781754617
1782.0002718633277 2434.6150492349634
1782.7142549994132 2502.2496821036557
1783.4280657356376 2556.2245583332638
1784.141704115922 2310.0597601648424
1784.855170184177 2321.655524036856
1785.5684639842839 2554.495553720076
1786.2815855601148 2181.1736510370224
1786.9945349555237 2619.648577671872
1787.707312214343 2337.4013811762893
1788.4199173803918 2543.5281786275345
1789.132350497468 2357.6526719326866
1789.8446116093583 2243.8962102145424
1790.556700759822 2405.6025149298525
1791.2686179926077 2165.7953600429323
1791.9803633514493 2366.1936964631686
1792.6919368800554 2246.514095493281
1793.4033386221236 2471.868586816002
1794.1145686213295 2462.270144422596
1794.8256269213307 2810.1455841313773
1795.536513565774 2574.757986600157
1796.247228598284 2200.307793436017
1796.9577720624693 2336.3728389849684
1797.6681440019165 2374.9186634716366
1798.3783444602013 2384.6863464985427
1799.0883734808776 2457.7579134765756
1799.7982311074884 2584.382704683409
1800.5079173835475 2408.4374215576654
1801.2174323525633 2600.9451523147154
1801.9267760580187 2422.786560871707
1802.635948543386 2459.129286923958
1803.3449498521113 2201.0468971699643
1804.0537800276325 2354.6621061943288
1804.7624391133668 2380.125184037838
1805.47092715271 2130.590206691279
1806.1792441890484 2228.1450974302684
1806.8873902657433 2457.792762412653
1807.5953654261448 2408.883808033701
1808.3031697135812 2240.3099724151098
1809.0108031713662 2322.557622810274
1809.71826584279 2462.273399738588
1810.425557771141 2327.366913230273
1811.1326789996747 2835.2314602035985
1811.839629571632 2449.2393353997845
1812.5464095302468 2324.5439461826854
1813.2530189187182 2363.1394483372887
1813.959457780249 2331.595668418316
1814.6657261580076 2500.3819704326243
1815.371824095153 2313.490077614381
1816.0777516348262 2607.8256391903687
1816.78350882015 2124.1417841217826
1817.4890956942272 2191.299457261408
1818.1945123001533 2311.3234165871577
1818.8997586809928 2334.385212150827
1819.6048348798067 2297.153952079413
1820.3097409396287 2269.0600034952295
1821.0144769034796 2618.2884947755565
1821.7190428143622 2437.390316810898
1822.423438715261 2605.4106437280557
1823.1276646491478 2246.047863610851
1823.8317206589727 2339.9407353557444
1824.5356067876692 2457.3214377109925
1825.2393230781581 2392.3332352337684
1825.942869573335 2003.6620853501747
1826.646246316086 2206.71449448778
1827.3494533492758 2331.6656464601074
1828.052490715756 2381.8536104451377
1828.7553584583547 2296.664579829544
1829.458056619891 2467.3445503984935
1830.1605852431585 2191.1785700736955
1830.8629443709433 2247.58360950515
1831.5651340460063 2198.8234256028168
1832.2671543110919 2349.9242820807895
1832.9690052089318 2329.263968932039
1833.6706867822395 2090.1753862542864
1834.3721990737104 2475.9286512708777
1835.0735421260233 2379.1207293953225
1835.774715981841 2475.457994080271
1836.4757206838058 2227.3431932372973
1837.1765562745459 1979.1418930524592
1837.8772227966747 2033.716749970204
1838.5777202927839 2382.944580938538
1839.2780488054523 2234.8532261608175
1839.9782083772352 2099.209458496992
1840.6781990506806 2478.62631293082
1841.378020868313 2333.2454719501334
1842.0776738726418 2359.0176691019483
1842.777158106157 2258.8330882023665
1843.4764736113375 2218.744763838791
1844.1756204306403 2451.047196264394
1844.8745986065078 2428.8137576962044
1845.5734081813607 2096.3731197956713
1846.2720491976124 2151.134907718782
1846.970521697649 2294.380759932238
1847.6688257238511 2226.9208965222965
1848.3669613185684 2235.3769663712133
1849.0649285241452 2159.204656930881
1849.7627273829057 2235.9239519928487
1850.460357937156 2421.383490295361
1851.1578202291857 2334.398886640839
1851.8551143012664 2247.9495015866173
1852.5522401956569 2339.797947215487
1853.2491979545957 2473.4645894381592
1853.9459876203055 2030.6041345995272
1854.6426092349902 2103.030371365301
1855.3390628408451 2162.8820273811043
1856.0353484800362 2446.468545118855
1856.7314661947203 2306.6964924800814
1857.4274160270397 2049.2720627101153
1858.123198019115 2175.418505580613
1858.8188122130487 2210.0290483912027
1859.5142586509319 2142.4778099553
1860.209537374838 2323.5712644876976
1860.9046484268183 2157.939222711672
1861.599591848917 2498.999877640681
1862.294367683151 2176.817656740074
1862.988975971528 2140.1479898768534
1863.6834167560355 2347.000912891683
1864.3776900786452 2355.627897597378
1865.0717959813119 2244.9054914890025
1865.7657345059724 2159.3372285525497
1866.4595056945564 2296.187897677472
1867.1531095889586 2312.8251711307776
1867.846546231076 2253.5406418756447
1868.5398156627743 2497.7303332808306
1869.2329179259123 2177.7328480328274
1869.9258530623283 2457.3507461736613
1870.618621113843 2197.2259093730027
1871.3112221222636 2120.9015502623483
1872.0036561293764 2046.145610851479
1872.695923176956 2234.0356438745466
1873.3880233067594 2398.436989309494
1874.0799565605212 1975.0692395728681
1874.7717229799673 2205.6371198452453
1875.4633226068036 2455.120788803389
1876.1547554827175 2193.279703207421
1876.8460216493859 2165.9246471411093
1877.5371211484617 2120.848525882001
1878.2280540215852 2400.2997912040514
1878.9188203103804 1955.16839999045
1879.6094200564548 2292.4598569423515
1880.299853301396 2230.3901173430754
1880.9901200867826 2421.954702736585
1881.6802204541673 2215.988995178371
1882.3701544450942 2283.3646495636685
1883.059922101087 2164.9568880526763
1883.7495234636517 2614.950105831422
1884.4389585742792 2201.791350625448
1885.1282274744517 2113.2735983025964
1885.8173302056166 2599.730072177051
1886.506266809225 2220.4835235454984
1887.195037326701 2005.033780637673
1887.8836417994517 2254.815412463341
1888.5720802688702 2516.627608209949
1889.260352776333 2325.23381528884
1889.9484593632042 2325.233745473663
1890.63640007082 2223.1210655578934
1891.3241749405151 2160.348312269248
1892.0117840135954 2190.858304586347
1892.6992273313572 2164.8357540882325
1893.3865049350788 2150.443429614644
1894.0736168660223 2174.6775068300117
1894.7605631654333 2198.8718441557326
1895.4473438745408 2042.7566411893083
1896.133959034556 2400.350471536032
1896.820408686679 2160.016029532843
1897.506692872088 2375.2876859981598
1898.192811631945 2252.8813884386527
1898.8787650073991 2241.544922727799
1899.5645530395832 2297.2028362921174
1900.2501757696118 2424.561415517847
1900.9356332385796 2458.5202883016836
1901.620925487574 2492.7249906047514
1902.3060525576602 2233.6516083811703
1902.9910144898859 2369.3374361450724
1903.6758113252872 2112.6669959178685
1904.3604431048789 2220.5192362672688
1905.0449098696663 2129.114775338851
1905.7292116606295 2231.816532573022
1906.4133485187394 2275.3788830261474
1907.0973204849488 1828.994301333325
1907.7811276001976 2069.807146159721
1908.4647699053967 2270.7473079345355
1909.1482474414588 1942.881643773882
1909.8315602492694 2072.311284999551
1910.5147083696957 2355.2865286305127
1911.1976918436012 2210.1441014819084
1911.880510711815 2049.010715525928
1912.5631650151681 2321.2841872358267
1913.2456547944657 2256.603881382644
1913.927980090495 2155.833667943364
1914.6101409440362 1979.2482971786255
1915.2921373958416 2218.9392571789167
1915.9739694866603 2138.317014113994
1916.655637257214 2442.3667303397606
1917.3371407482136 2207.2670303615355
1918.0184800003572 2363.6171694596337
1918.6996550543154 2177.159677935445
1919.3806659507554 2154.53118368033
1920.0615127303208 2391.6528662278106
1920.7421954336423 2445.9823827156856
1921.4227141013343 2320.9372030165805
1922.103068773993 2143.654502653314
1922.783259492202 2437.834772913505
1923.4632862965227 2036.218864548233
1924.1431492275078 2052.3933061932785
1924.8228483256917 1967.110179375442
1925.5023836315922 2134.552722415635
1926.1817551857057 2292.0647122916225
1926.8609630285227 2002.4718732402648
1927.5400072005123 2218.2738544140943
1928.218887742125 2096.7605863651156
1928.8976046938005 1780.323149285298
1929.5761580959588 2175.980681534455
1930.2545479890086 2183.0796299398144
1930.9327744133352 1951.602357257257
1931.6108374093164 2267.2237735246454
1932.2887370173066 2411.209455862055
1932.9664732776473 2306.972501780179
1933.6440462306673 2202.412295713341
1934.3214559166754 1930.7093256264077
1934.9987023759659 2278.1095194018444
1935.675785648813 2270.062770627566
1936.3527057754836 1905.4898272174755
1937.029462796223 2404.849868183145
1937.70605675126 2037.8230807192351
1938.3824876808085 2073.3652245684316
1939.058755625072 1891.9090069645868
1939.7348606242267 2034.2208436919507
1940.4108027184448 2137.741041891951
1941.0865819478713 2358.0780247494404
1941.7621983526478 1934.1067749543624
1942.4376519728921 1844.3644900605304
1943.1129428487038 2103.4068171750077
1943.7880710201734 2264.108153559696
1944.4630365273733 2297.2903023603467
1945.1378394103576 1832.183540273513
1945.8124797091714 1858.1051878212518
1946.4869574638324 1884.0133173834195
1947.161272714353 2121.197036764426
1947.8354255007234 2180.12678784762
1948.5094158629272 2104.7790528718997
1949.1832438409183 2188.8972872019763
1949.8569094746435 2283.8111554078596
1950.530412804037 2224.7983758468667
1951.2037538690092 2293.711429705647
1951.8769327094578 2053.0183254321537
1952.5499493652678 2112.099419719489
1953.222803876306 2106.036299329152
1953.895496282421 1984.0555423008686
1954.5680266234522 2049.7516081893305
1955.2403949392155 2142.737633066647
1955.9126012695142 1918.8472500827556
1956.5846456541403 2107.417388360842
1957.2565281328643 2007.2329555832941
1957.9282487454457 2117.0533827056415
1958.5998075316202 2277.9613222381395
1959.27120453112 2082.03442285307
1959.9424397836501 1915.247272547911
1960.613513328908 2246.1159117423517
1961.2844252065697 2389.1673353839387
1961.9551754563017 2098.4821491972807
1962.6257641177453 1924.1727726902604
1963.29619123054 2116.2006009585893
1963.966456834296 1896.2139132924071
1964.6365609686181 1858.9561359108889
1965.306503673086 2150.516526892795
1965.976284987275 1928.9796520080247
1966.645904950734 2072.9026191685325
1967.315363603002 1895.360689254856
1967.9846609836077 2084.630679360981
1968.6537971320486 2122.925578769655
1969.3227720878222 1991.3188669763265
1969.9915858904042 1929.7191258477771
1970.660238579252 2191.2133676739004
1971.3287301938108 2070.5021995351344
1971.997060773514 1773.850723647675
1972.665230357772 2007.484236756863
1973.3332389859843 1960.4254028140615
1974.0010866975335 1909.5046266471231
1974.6687735317864 2073.843348565017
1975.3362995280932 2202.7258861378455
1976.003664725793 2115.1198684500023
1976.6708691642052 1662.2909509163933
1977.3379128826364 1846.5074702746783
1978.004795920373 2143.3501155023605
1978.6715183166925 1903.4884986595691
1979.3380801108524 2297.8101070007015
1980.0044813420973 2030.3863199734617
1980.6707220496555 1777.2150791526797
1981.3368022727373 1999.247875812677
1982.0027220505417 2190.803263646377
1982.66848142225 1709.5263309561021
1983.3340804270283 1853.3725744363219
1983.999519104027 2251.193271942894
1984.6647974923835 2267.5227328987294
1985.329915631215 2375.2678675708935
1985.99487355963 2094.042796073501
1986.6596713167146 2217.7646116893998
1987.3243089415428 1935.6816683313646
1987.9887864731754 2151.0784511172733
1988.6531039506553 1908.7244984127167
1989.3172614130071 2277.9479872598804
1989.9812588992481 2138.4276460242436
1990.645096448372 1883.3707374430628
1991.3087740993633 1984.309917867878
1991.9722918911848 1924.3141727297927
1992.635649862792 2044.8003927840443
1993.2988480531185 2182.817347443419
1993.9618865010852 2359.799701491927
1994.6247652455968 2023.4242614463394
1995.287484325545 1833.1137519521658
1995.9500437798033 2059.539668749446
1996.6124436472292 1727.100846989244
1997.2746839666706 2160.5296773526807
1997.936764776954 2113.0038463215947
1998.598686116895 2079.6828243740133
1999.2604480252903 2331.41628319136
1999.9220505409212 1977.7062090578543
2000.5834937025593 1783.4847176979358
2001.2447775489582 1943.7993590481879
2001.9059021188514 1944.6008242105102
2002.5668674509616 1995.753960326371
2003.2276735839987 2057.1400172419917
2003.8883205566508 2309.5125040187177
2004.5488084075987 2017.6322148279276
2005.2091371755014 1954.9101680545969
2005.8693068990033 1887.0102357066821
2006.5293176167397 2058.3624848496584
2007.1891693673224 1823.8902576530509
2007.848862189354 1767.591969964125
2008.5083961214223 2052.000174020371
2009.1677712020955 1732.0144796901718
2009.8269874699254 1763.2729022015733
2010.4860449634598 1705.068763403718
2011.1449437212177 1646.8125662670288
2011.8036837817108 2156.067560325474
2012.4622651834325 2274.338848568947
2013.1206879648653 2173.946620128861
2013.7789521644736 1921.5898056167266
2014.4370578207036 2187.4137901738363
2015.0950049719922 1993.270005059439
2015.7527936567585 2170.277831568396
2016.4104239134067 2109.0220569993667
2017.067895780323 2469.565132523113
2017.725209295886 2461.3772805953017
2018.3823644984514 2453.1067141307713
2019.0393614263648 2036.8960115046618
2019.6962001179545 1822.6753063404678
2020.3528806115355 2230.9157514552235
2021.0094029454067 1901.2031928240206
2021.6657671578487 1929.4522803971327
2022.321973287133 1873.358753273791
2022.9780213715148 1977.8412549113236
2023.6339114492293 1887.524790633554
2024.2896435585026 1980.7534426035825
2024.9452177375442 1978.611044247271
2025.600634024544 2294.5310890412593
2026.2558924576842 2070.619384324016
2026.9109930751292 2057.961797401309
2027.565935915025 1848.0645138291525
2028.2207210155066 2290.7901045635285
2028.8753484146964 2297.92634089353
2029.529818150695 1740.9113953760075
2030.1841302615903 2238.8601279213735
2030.8382847854573 1777.993959893824
2031.4922817603601 1807.8392636806807
2032.1461212243357 2126.706109240582
2032.7998032154192 2045.291359809789
2033.4533277716218 1963.4428393020335
2034.1066949309443 1786.1742611106208
2034.7599047313688 2069.183283842308
2035.4129572108704 2222.6664526085706
2036.0658524074006 2102.0950794358687
2036.7185903589016 1995.6906165005016
2037.3711711032956 2053.5667064277322
2038.023594678496 1841.2069488581565
2038.675861122394 1801.033883072297
2039.3279704728757 2121.630476713
2039.9799227678031 1740.8964741099117
2040.6317180450278 1892.8000222111018
2041.2833563423865 1957.4197618354797
2041.9348376977014 1945.4665866628645
2042.5861621487784 2000.1983563270921
2043.2373297334088 2025.9422173965577
2043.8883404893695 1945.5683156885777
2044.5391944544208 2165.2800708716977
2045.1898916663158 2062.12006299221
2045.8404321627804 2120.8087613406874
2046.4908159815368 1901.7482268398483
2047.1410431602853 2021.6747426469851
2047.7911137367173 1707.834664239746
2048.441027748504 1725.5141146255141
2049.090785233302 1743.1463514009752
2049.7403862287592 1831.4760755212315
2050.389830772503 1764.9340616906036
2051.0391189021466 1698.3792337192651
2051.688250655294 1783.594033178822
2052.337226069527 1726.17585899516
2052.986045182417 1989.6011259940667
2053.634708031521 1998.4406680921857
2054.283214654375 2007.428924601924
2054.931565088511 1744.024575285333
2055.579759371436 1687.9523629104692
2056.2277975406523 1952.6885112139285
2056.8756796336384 1871.5567733248524
2057.5234056878617 1790.0757123416108
2058.1709757407752 1682.2122170731814
2058.8183898298194 2048.6082527482313
2059.465647992416 2022.9924842914184
2060.1127502659747 2161.5049809112234
2060.759696687888 1740.1908465009342
2061.4064872955405 2024.8450844814317
2062.053122126292 2132.833949981615
2062.699601217497 2025.585150937493
2063.345924606485 1918.414386921681
2063.992092330587 1970.107637605186
2064.638104427102 1811.97882597505
2065.283960933324 2267.9670731792935
2065.92966188653 2111.0458676505796
2066.5752073239855 2064.2267768754
2067.2205972829397 1835.5006225059533
2067.86583180062 2009.1746442183037
2068.5109109142522 1875.8298229718807
2069.15583466104 1901.17476726871
2069.8006030781708 1926.5452340725647
2070.445216202821 1992.3775373807105
2071.089674072153 2175.659806782363
2071.7339767233116 1989.623589591436
2072.3781241934303 1853.633131177467
2073.0221165196253 2057.7103518846448
2073.6659537390024 1908.0251053883298
2074.3096358886505 2073.6360318168986
2074.953163005637 1676.978261359583
2075.596535127028 1664.2944087865467
2076.2397522898664 1529.1263776838384
2076.882814531182 1956.2605046460794
2077.5257218879924 2184.48426494689
2078.1684743973 1685.7688432144805
2078.8110720960885 1704.0305986256342
2079.453515021336 2241.36423288326
2080.095803209997 2048.4493500511708
2080.7379366990135 1846.0546829717107
2081.37991552532 1829.7457107194903
2082.0217397258275 1939.9917046756423
2082.6634093374414 1957.682504238015
2083.3049243970418 1975.472336781647
2083.9462849415067 2027.4243873051837
2084.587491007689 1913.4856090326211
2085.2285426324324 2097.3901183951116
2085.869439852564 1939.6900302124166
2086.510182704902 1553.9532262420007
2087.1507712262483 2009.0480693142185
2087.791205453381 1630.7828854670856
2088.4314854230743 2171.2847844034513
2089.0716111720867 1842.350081100445
2089.7115827371617 1595.346580833089
2090.351400155023 1625.7824317420677
2090.991063462385 1656.354991452289
2091.6305726959527 1621.864901770562
2092.2699278924047 1644.5075171584358
2092.9091290884153 1667.2610122934889
2093.548176320641 1823.2829738170203
2094.187069625721 1972.6439710777292
2094.8258090402887 1570.8755713299856
2095.464394600951 1879.6955005542764
2096.102826344313 1804.3244057686995
2096.741104306955 1670.6501720951214
2097.379228525453 1536.6818835071724
2098.017199036358 1609.0307689122878
2098.6550158762147 1795.2594954907486
2099.2926790815527 1981.8785680503127
2099.9301886888825 1997.0083189056702
2100.5675447347076 1981.3994650475313
2101.2047472555114 1937.927695423584
2101.841796287761 1894.3673413259621
2102.47869186792 2036.3653776897827
2103.1154340324265 1877.0663258349045
2103.752022817709 1850.5803855983638
2104.388458260184 1846.6613212341167
2105.024740396251 2064.3578038948062
2105.660869262292 1823.3560011055113
2106.296844894685 1796.7808118691817
2106.93266732978 1770.187699305266
2107.5683366039284 1452.7180924952763
2108.2038527534532 1944.6387113353
2108.8392158146726 2229.028034421144
2109.4744258238843 1842.5851800863215
2110.1094828173755 1943.5808441397232
2110.744386831422 2296.610313399472
2111.3791379022787 1973.9852197288462
2112.01373606619 2178.285178604351
2112.648181359389 1823.219061241943
2113.28247381809 2025.3891031830656
2113.916613478492 1906.7189816068153
2114.550600376786 1981.876301126429
2115.1844345491445 2029.14892656464
2115.818116031729 1856.1981171547548
2116.451644860679 1775.3246452231815
2117.085021072133 1730.764129798569
2117.718244702204 1644.539920213015
2118.3513157869984 1873.1848813394167
2118.984234362604 1582.6224546392955
2119.617000465092 1779.6469306137242
2120.249614130529 2125.0913149493254
2120.8820753949585 1874.3544378288213
2121.5143842944162 1832.9771816162076
2122.14654086492 1533.8929917833996
2122.7785451424734 1990.0068519923157
2123.4103971630702 2101.062808888998
2124.042096962681 2212.608127239184
2124.6736445772767 1896.1314679573552
2125.305040042802 1738.1906943954168
2125.936283395191 1759.102927012707
2126.567374670365 1853.0269059453362
2127.198313904233 1768.5177523068978
2127.8291011326855 2073.266697209018
2128.4597363916037 1829.3586043841872
2129.0902197168507 1878.203484533061
2129.720551144279 2022.7616001759147
2130.3507307097225 2167.382999015438
2130.980758449008 2236.0544735407652
2131.6106343979427 2195.6074105166012
2132.2403585923203 2155.00114767333
2132.8699310679276 2122.386095087025
2133.499351860526 1866.209110317504
2134.1286210058715 1765.9331583488215
2134.7577385397053 1726.8464645439406
2135.3867044977487 1877.8752636229124
2136.0155189157176 1989.1561122728376
2136.644181829308 2004.2975980126503
2137.2726932742025 1794.0273926110935
2137.901053286074 1761.6080013611925
2138.5292619005777 1729.2103825891386
2139.1573191533535 1729.4719677662197
2139.7852250800315 2010.1707960792282
2140.4129797162295 1949.0957628768344
2141.0405830975433 1527.6564927870854
2141.6680352595613 1472.9986644398875
2142.2953362378576 1418.2528720698695
2142.9224860679915 1851.7070500531922
2143.549484785508 1709.353532112348
2144.1763324259373 1999.6275345706217
2144.803029024799 1830.467910990076
2145.429574617594 1844.7900686922508
2146.0559692398165 2036.7018174686316
2146.682212926942 1696.5481963670977
2147.308305714432 1653.1965237055588
2147.9342476377333 2042.1008836556678
2148.5600387322847 2103.1030906006954
2149.185679033506 2122.2016914126725
2149.8111685768017 1812.7229964296123
2150.4365073975678 1662.3564186625372
2151.061695531187 1768.4463852475164
2151.686733013021 1950.2696010927145
2152.311619878423 1754.068621613204
2152.9363561627342 1808.3838324085452
2153.560941901278 1702.5672774424995
2154.1853771293663 1934.995430969791
2154.809661882293 1958.364330039177
2155.433796195348 2058.572727081329
2156.0577801037944 2062.257084027846
2156.681613642895 1977.0225476926873
2157.3052968478896 1863.301760739956
2157.928829754006 1739.1785254231795
2158.552212396462 2051.3734049983623
2159.1754448104566 1832.1277190394217
2159.7985270311783 1536.8102054766114
2160.4214590938027 1496.5836449565986
2161.0442410334927 1612.5837028211959
2161.6668728853874 1913.5866758784734
2162.289354684628 1586.9744227504684
2162.911686466332 1800.6135777631723
2163.533868265602 2021.0825748240866
2164.1559001175337 1970.9775599682912
2164.7777820572046 2088.0391744010635
2165.399514119681 1780.709696201016
2166.021096340013 1510.5574631298132
2166.6425287532384 1567.6691304258113
2167.263811394385 1624.9653303237792
2167.8849442984574 2013.3474601243809
2168.505927500455 1978.9336740807335
2169.126761035366 1944.6609259969086
2169.7474449381552 1556.2867906653978
2170.367979243778 1559.6587001712112
2170.9883639871823 1902.545333763364
2171.608599203293 1788.3707553959084
2172.2286849270276 2262.602165246606
2172.8486211932886 2305.0920356861157
2173.4684080369625 1591.2849265302489
2174.0880454929265 1577.459770851137
2174.7075335960417 1624.335252304808
2175.3268723811543 1966.264631790155
2175.9460618831 1853.539071375948
2176.565102136701 1536.370082808034
2177.1839931767627 1599.4606342687287
2177.802735038078 1662.7408953126924
2178.421327755432 1791.4158970190697
2179.0397713635866 1628.475281163342
2179.658065897298 1455.7105218158297
2180.276211391305 1545.0262377415622
2180.8942078803357 1634.477312199271
2181.5120553991 1826.5301926333261
2182.129753982299 1611.3389925560082
2182.7473036646206 1845.3778942636065
2183.3647044807367 1741.321888964844
2183.9819564653044 1572.5040181821043
2184.599059652968 1921.9960392700486
2185.216014078367 2122.6494636363827
2185.832819776113 2125.901725291398
2186.4494767808137 2129.0400683787893
2187.065985127063 1962.138355256245
2187.682344849436 2086.6670126671465
2188.298555982501 1765.1142034834197
2188.9146185608097 1869.7178664093221
2189.530532618901 1701.4423016084645
2190.1462981912937 1755.8313288139677
2190.761915312507 1829.4127837283627
2191.377384017036 1954.9427051954815
2191.9927043393654 1861.3571638643837
2192.6078763139667 1548.0208972157816
2193.2228999753006 1531.1337452558819
2193.837775357808 1514.2392919610556
2194.452502495922 1541.7856589195103
2195.0670814240602 1628.2837247187679
2195.6815121766285 1713.5714515871484
2196.2957947880186 1685.0995617527356
2196.9099292926057 1656.5760605104856
2197.523915724758 1868.7134116910213
2198.137754118825 1771.5648866415072
2198.7514445091456 2078.1351637006587
2199.3649869300443 1730.0112526394773
2199.9783814158327 1812.1994585379907
2200.5916280008096 1844.1551545937539
2201.2047267192593 1876.2312845692754
2201.8176776054515 1859.183106092878
2202.430480693649 1712.9825371565105
2203.0431360180955 2000.2037268105018
2203.6556436130195 2069.6583545858834
2204.268003512645 2016.6944137665791
2204.8802157511727 1963.6761990701361
2205.492280362796 2042.0028085770507
2206.1041973816937 1767.8002221393303
2206.715966842032 1648.41519468456
2207.3275887779655 1681.64582051881
2207.93906322363 1931.315170872374
2208.550390213153 2060.2808984437106
2209.1615697806465 1731.2460676719293
2209.7726019602105 1370.3047797607378
2210.3834867859277 1489.7966047326904
2210.9942242918787 1678.4221265703095
2211.6048145121167 1624.1016137297806
2212.2152574806914 2467.063330992646
2212.825553231638 1838.9613338799732
2213.435701798975 1796.017582183174
2214.045703216707 1753.2226069298843
2214.655557518832 1292.7614449937998
2215.2652647393297 1393.1548935994917
2215.874824912169 1359.1228984495854
2216.4842380713 1728.68764892767
2217.09350425067 1764.9661034863225
2217.7026234842033 1626.1945481120943
2218.311595805819 2020.4367725091204
2218.9204212494133 1724.4468542766303
2219.52909984888 2136.6844596641267
2220.137631638092 2156.134215529646
2220.7460166509154 2175.487547213791
2221.354254921198 1909.4399884452519
2221.9623464827764 1704.553859288113
2222.5702913694713 1930.230473778351
2223.178089615096 1875.9500768486062
2223.7857412534486 1709.3120762298627
2224.39324631831 1509.2209480606612
2225.000604843457 1507.6985166739232
2225.607816862641 1674.9465875286692
2226.214882409611 1842.3751084421772
2226.8218015180973 1836.5025125212564
2227.4285742218217 1677.1781780002082
2228.0352005544864 1640.5531539424508
2228.6416805497847 1603.8095357601524
2229.248014241399 1665.4955318484576
2229.8542016629945 1519.9835599716203
2230.460242848223 1892.0666985410705
2231.0661378307304 2149.9938090766927
2231.671886644139 1846.3926093671944
2232.277489322065 1543.906836860136
2232.8829458981127 1232.3359586484225
2233.48825640587 1749.5503568206482
2234.0934208789095 2338.77567597202
2234.6984393507955 2038.8214060598063
2235.3033118550793 2067.9363296378015
2235.9080384252975 1968.7972672981093
2236.5126190949723 1460.8308701150513
2237.1170538976166 1521.8987788816994
2237.721342866729 1701.5285607554258
2238.32548603579 1478.2925052239298
2238.9294834382763 1755.5576378897706
2239.533335107646 1559.0788082108486
2240.1370410773434 1664.4503701579408
2240.740601380803 1769.9811930175795
2241.3440160514474 1647.9714320461014
2241.9472851226783 1911.0353526157814
2242.550408627896 1609.4697448340476
2243.1533866004793 1973.151379638189
2243.756219073799 1858.4005921168894
2244.3589060812064 1511.83407326762
2244.961447656049 1674.1503131475315
2245.5638438316564 1663.8630645774442
2246.166094641343 1826.7008685917413
2246.7682001184166 1788.4920390938478
2247.3701602961664 1643.5038480310109
2247.971975207871 2023.5140882016299
2248.5736448867974 2116.0823267504616
2249.175169366197 2040.7441878682282
2249.7765486793123 1682.4373721667034
2250.3777828593684 1793.993606480329
2250.9788719395783 1905.602358017674
2251.579815953146 1835.3238234761113
2252.1806149332606 1432.096726148783
2252.781268913097 1594.236715553484
2253.381777925817 1354.6535014810702
2253.9821420045737 1786.0280608300982
2254.5823611825035 1870.9149039077752
2255.1824354927303 1705.9700693479203
2255.782364968365 1584.2965065894982
2256.38214964251 1462.5039058830257
2256.9817895482483 1607.595305768365
2257.5812847186553 1769.4753572320974
2258.180635186791 1497.4668560256882
2258.779840985704 1773.913281188293
2259.37890214843 1734.8255127768527
2259.97781870799 1850.0987179406602
2260.5765906973957 1965.5932308579918
2261.175218149645 1614.230060038765
2261.773701097718 1559.0086820366546
2262.3720395745895 1503.6505472363367
2262.970233613216 1267.3533008951645
2263.568283246548 1434.8934861356895
2264.1661885075137 1617.7821236161892
2264.763949429038 1772.075548898193
2265.3615660440246 2107.120255902541
2265.959038385374 1657.62492626465
2266.5563664859637 1531.1869257349667
2267.153550378669 1958.1602140997334
2267.7505900963424 1815.2173462778476
2268.3474856718312 1570.0889598779672
2268.9442371379664 1679.887813763365
2269.5408445275643 1547.2957932335821
2270.1373078734377 1943.1696306198428
2270.7336272083758 1836.6355570513228
2271.32980256516 1610.4200713031473
2271.925833976562 1786.8308510097638
2272.5217214753357 1957.4231902110937
2273.117465094223 1678.2912379457744
2273.7130648659586 1566.1683994766072
2274.308520823257 1450.7391606112842
2274.903832998827 1529.9458349511365
2275.4990014253563 1609.2936144361697
2276.094026135528 1924.1311590054859
2276.6889071620117 2027.0789836361655
2277.2836445374614 2130.118931611821
2277.878238294519 1859.5143453563378
2278.472688465812 1679.7618985203578
2279.066995083962 1499.6813447073464
2279.6611581815705 1790.7937210409189
2280.255177791232 2100.995272204846
2280.8490539455233 1698.0305934300136
2281.442786677013 1997.1890678269806
2282.0363760182554 1922.7865910665773
2282.6298220017943 1494.800814111073
2283.223124660155 1979.7434211688037
2283.816284025859 1551.1163949751312
2284.4093001314086 1356.7787234052462
2285.002173009292 1162.0166128023716
2285.5949026919952 1664.6485819941377
2286.1874892119777 1561.498513830194
2286.7799326016993 1757.9186021987741
2287.3722328936 1396.7138529779418
2287.964390120109 1597.883284504432
2288.556404313642 1780.4221689904157
2289.1482755066027 1683.4343039236417
2289.7400037313873 1586.2129539833918
2290.3315890203703 1731.1007074002177
2290.9230314059205 1665.3372646834778
2291.5143309203904 1599.5189853651732
2292.1054875961236 1562.9399175149847
2292.6965014654506 1931.8663098360582
2293.287372560684 1925.8642830100084
2293.878100914131 1815.200065747922
2294.468686558086 1704.3579652638066
2295.059129524827 1693.5128743773166
2295.649429846617 2193.7770145996265
2296.239587555716 1977.7333123353444
2296.8296026843636 1987.721598144212
2297.419475264791 2297.895410322725
2298.0092053292137 1897.1031384872367
2298.598792909839 1847.4914107125976
2299.1882380388597 1888.9483589941324
2299.777540748455 1928.7370244675762
2300.3667010707904 1968.4557970244052
2300.9557190380256 1793.1329639133933
2301.544594682302 2249.987252385624
2302.1333280357503 2105.832322339708
2302.721919130485 1961.5596064881952
2303.3103679986198 2064.051701581939
2303.898674672242 1980.2256869721223
2304.486839183437 1650.1211473020826
2305.0748615642697 1919.2504720233603
2305.6627418468015 1609.8321262539232
2306.2504800630704 1734.3884179531499
2306.8380762451143 1516.4307030311677
2307.425530424949 1676.0335246960708
2308.012842634582 1835.989618870315
2308.6000129060103 2099.339932300573
2309.187041271214 2004.2578375228325
2309.773927762164 1908.992151484595
2310.3606724108213 1864.0334478678901
2310.9472752491274 1883.4133006357765
2311.5337363090184 1902.8803714106612
2312.120055622414 1874.1941935045481
2312.706233221221 1513.234862616424
2313.2922691373424 1482.3388889407722
2313.8781634026564 1478.4172375230057
2314.463916049037 1474.4632978550903
2315.049527108342 1810.0626596390407
2315.6349966124235 2067.3967065768
2316.2203245931123 2071.448707844843
2316.8055110822315 1540.7868147632848
2317.3905561115935 1729.1964547070697
2317.9754597129977 1900.6477203977204
2318.560221918229 2072.4976908242884
2319.1448427590603 1756.6019911281187
2319.729322267256 1333.8208957187544
2320.313660474563 1965.250295014796
2320.8978574127195 1898.7487916871753
2321.481913113452 1832.1660665064944
2322.0658276084705 1284.1426654643878
2322.6496009294806 1665.2230810922374
2323.233233108165 1766.3083807227129
2323.8167241762058 1867.6471231202231
2324.4000741652617 1940.6671626756008
2324.983283106987 2178.381959672539
2325.5663510330232 2032.99400382695
2326.1492779749933 2052.048167549645
2326.7320639645204 1743.905417772016
2327.3147090332004 1450.163485159067
2327.897213212629 1584.5751872752032
2328.4795765343843 1719.051361590876
2329.0617990300307 1453.0560980688454
2329.643880731124 1636.6270707476992
2330.22582166921 1820.5207238664061
2330.807621875816 1823.5821297960022
2331.3892813824623 1648.81557353348
2331.9708002206517 1529.8587913525666
2332.5521784218818 1679.1161399738908
2333.133416017634 1828.7502766913217
2333.7145130393765 1760.905253777415
2334.295469518571 1795.1747322093402
2334.876285486658 1976.2189200016292
2335.456960975076 2023.6556195873031
2336.037496015242 2071.233404397351
2336.6178906385667 1724.4956155772802
2337.198144876451 1916.6905858857153
2337.778258760278 1558.7192446698505
2338.3582323214214 1277.1829131185648
2338.938065591243 1833.997720267654
2339.517758601087 1996.1284552585912
2340.0973113822965 1993.1162225479152
2340.676723966193 1624.3422237078796
2341.255996384094 1676.079299132432
2341.835128667295 1866.1857248382785
2342.4141208470883 1748.6979076936962
2342.992972954751 1824.9580083963774
2343.5716850215467 1667.3019111860885
2344.1502570787306 1049.392465300522
2344.7286891575386 1578.4360303648598
2345.3069812892045 2247.4149363002916
2345.885133504944 1998.6516106483973
2346.4631458359618 1653.5984337472642
2347.04101831345 1630.3011901241427
2347.6187509685915 1936.4201891554512
2348.196343832553 1731.7406114578055
2348.7737969364935 1558.2369142004286
2349.351110311558 1595.8957800782182
2349.9282839888765 1647.63293651791
2350.5053179995757 1501.875180192375
2351.0822123747585 1485.506528962243
2351.658967145526 1534.884798075023
2352.2355823429643 1584.4358180735012
2352.812057998144 1815.7969735890197
2353.3883941421263 1492.5957065752968
2353.9645908059647 1902.0826135719358
2354.540648020693 1710.473980661675
2355.116565817336 1592.507523581518
2355.6923442269126 1670.1247212011592
2356.2679832804224 1405.2757160390954
2356.8434830088518 1664.912700714889
2357.41884344318 1668.4024171291708
2357.994064614377 1717.8854631737493
