#exp_cfg={"servo_angle": 0.0, "laser_lim": 100.0, "servo_angle_to": 18.0, "laser_wup": 0.0, "bt_dev": "EnSpectr-25AE3", "laser_wdn_max": 0.0, "frames": 10.0, "servo_used": 0, "servo_calib_use": 0, "laser_wdn_min": 0.0, "servo_pix_from": 90.0, "cooler_tout": 300.0, "servo_angle_from": 0.0, "servo_calib": "[-1.9174921013161362e-09, 3.9322238269163779e-05, -0.27385609119055809, 653.59552119713567]", "laser_autoctl": 0, "servo_pix_to": 3682.0, "laser_pw": 100.0, "cooler_on": 0, "laser_volt": 4.0, "cooler_autoctl": 0, "cooler_curr": 70.0, "cooler_startup": 10.0, "laser_fixed_pw": 0, "gain": 1.3, "offset": 2.53059635486, "servo_calib_degree": 3.0, "laser_curr": 55.0, "shutter": 8200.0, "servo_calib_step": 1.0, "laser_fixed_curr": 0, "exp": 2000.0, "ccd_volt": 4.7, "bt_addr": "00:06:66:62:5A:E3", "servo_delay": 500.0, "laser_autooff": 1}
#proc_cfg={"flat_auto_wnd": 200.0, "flat_auto_fr": 200.0, "flat_auto_shift": 5.0, "yconv": 1, "flatten": 1, "flatten_strength": 100.0, "xfrom": 300.0, "auto_max_frame": 2000.0, "auto_signal": 48000.0, "flat_auto_tol": 0.1, "autoclip": 1, "xrel_range": 0.0, "flat_auto_to": 4000.0, "intensity_adj": 1.0, "xrel": 7852.0, "rmhot": 1, "flat_auto_slit": 4.999999999999997, "auto_ini_exp": 300.0, "auto_off": 0, "xto": 2860.0, "flat_auto_ref": "", "flat_auto_rank": 1, "autobackg": 0, "xrel_adj": 0.0, "auto_black_lvl": 1, "base_wnd": 100.0, "sub_baseline": 0, "xconv": 2, "auto_max_exp": 1000.0, "auto_total_exp": 10000.0, "auto_exp": 0, "rmripple": 0, "black_lvl": 8285.0875, "shutter_clip_adj": 0.0, "auto_bckg": 0, "flat_auto_thr": 0.9, "subbackg": 1}
316.8218498245369 22815.746807587857
317.89969571804795 22580.5025069123
318.977263876126 22463.435248514135
320.05455438786703 22202.677702375735
321.1315673423287 22202.090706483865
322.2083028285215 22218.61340790042
323.2847609354267 22023.89458880132
324.3609417519747 21930.486901598888
325.43684536705587 21835.250458291284
326.5124718695279 21609.985172895882
327.58782134820103 21551.79487194292
328.66289389184385 21461.818660485613
329.7376895891921 21276.85781214174
330.8122085289342 21300.766505841893
331.88645079971866 21290.881079378334
332.9604164901575 20990.525476818282
334.03410568881554 20982.659976816492
335.1075184842266 21054.751187211463
336.18065496487543 20849.045943155805
337.2535152192122 20785.228790737947
338.32609933564163 20756.83215482462
339.39840740253203 20678.9017698021
340.4704395082099 20624.704248676044
341.5421957409617 20634.657921460777
342.6136761890357 20592.329668689283
343.6848809406365 20485.71833719507
344.75581008392874 20262.397211995827
345.82646370703696 20348.582040804675
346.8968418980512 20316.377664918196
347.96694474501055 20335.660337668636
349.0367723359268 20263.455186412953
350.106324758759 20204.571062134746
351.1756021014353 20017.664713194412
352.2446044518383 20012.861669802427
353.31333189781435 20184.968988598488
354.38178452716966 20084.386315611286
355.449962427665 20090.8948085434
356.51786568702846 20060.73054382626
357.58549439294256 20140.33916210567
358.6528486330535 20104.900566074873
359.71992849496564 20190.529317176322
360.7867340662433 20055.150846940152
361.8532654344144 20118.944358974426
362.9195226869597 20200.021893414654
363.9855059113288 20050.28074557617
365.05121519492604 20091.763839533887
366.11665062511565 20251.59340137441
367.1818122892273 20174.8753595296
368.2467002745434 20290.471064048812
369.31131466831175 20228.21202675819
370.375655557742 20292.69799652196
371.4397230299983 20251.19816174728
372.5035171722102 20222.969054912886
373.5670380714637 20285.581361003547
374.6302858148101 20370.937641322605
375.6932604892554 20274.017430236716
376.7559621817709 20348.64126327444
377.81839097928605 20209.138234444898
378.8805469686886 20346.592866622286
379.94243023683157 20329.281977730778
381.0040408705263 20255.093885125978
382.0653789565458 20089.510561680392
383.1264445816196 20189.698762779586
384.1872378324406 20138.147945920467
385.2477587956637 20182.946548374122
386.3080075579037 20012.40246239506
387.3679842057336 19913.436179805067
388.4276888256918 19984.831564776163
389.48712150426945 20014.200423125745
390.54628232792857 19914.459766083048
391.6051713830857 19853.32835242089
392.66378875611736 19880.01331809241
393.7221345333637 19955.254436486626
394.7802088011249 19691.11697924164
395.838011645661 19724.13122274734
396.89554315319765 19591.802781508602
397.9528034099112 19601.246063874958
399.00979250194723 19398.082559032664
400.06651051541485 19421.432402763392
401.1229575363741 19421.0817011861
402.17913365085224 19325.20035518452
403.23503894483656 19358.842821349208
404.2906735042761 19170.621570706542
405.3460374150818 19040.896368281545
406.401130763119 19090.418313802315
407.455953634224 19069.883816590558
408.5105061141876 18934.08468093045
409.56478828876243 18724.710389485095
410.6188002436629 18700.73914119761
411.6725420645689 18711.82978337696
412.72601383711117 18760.670559553244
413.77921564689314 18743.294096057267
414.8321475794728 18556.869123231932
415.88480972036814 18566.996973338042
416.93720215506437 18628.224123194384
417.9893249690049 18353.591377004494
419.04117824759123 18315.791464269892
420.09276207619223 18295.577705586118
421.144076540133 18293.585620465332
422.1951217247042 18215.44464050271
423.24589771515275 18259.216105770694
424.2964045966928 18082.754752316654
425.34664245449494 18118.50834497551
426.3966113736933 18065.91931331628
427.4463114393875 18013.249445779566
428.49574273662984 17917.946719422653
429.5449053504417 17870.45572334414
430.5937993658026 17912.986037638715
431.6424248676558 17789.573849935216
432.6907819409007 17724.346293225248
433.73887067040596 17826.719923429908
434.7866911409965 17706.192232525595
435.8342434374608 17720.754493375112
436.88152764455117 17645.68006597973
437.9285438469724 17581.4409256825
438.9752921294057 17507.322227105396
440.02177257648145 17592.17187047238
441.06798527279716 17415.983431626788
442.1139303029122 17496.057747904466
443.1596077513459 17411.28715534405
444.2050177025794 17439.677886656824
445.25016024105753 17425.521037601215
446.2950354511886 17339.107467941118
447.33964341733736 17410.58885723055
448.383984223834 17313.05114381409
449.4280579549686 17262.667615799226
450.471864694995 17219.62442051965
451.5154045281306 17321.18053160862
452.5586775385509 17216.89785873496
453.60168381039693 17271.871966393617
454.64442342776783 17279.64826647289
455.6868964747264 17168.714321306175
456.7291030353008 17149.003263026676
457.77104319347563 17129.507104809112
458.8127170332027 17171.384645224818
459.854124638392 17121.46632246444
460.895266092919 17230.444499172918
461.93614148061897 17212.65583647051
462.97675088529104 17317.781074711897
464.01709439069236 17229.902791113054
465.0571720805492 17136.054294282716
466.0969840385442 17191.571940951366
467.1365303483253 17342.472574708623
468.17581109350067 17208.888727734153
469.2148263576437 17120.79647051313
470.2535762242878 17230.2018481372
471.29206077693016 17386.691726385165
472.33028009902773 17464.10096810721
473.3682342740012 17480.139341564733
474.40592338523857 17517.83242576069
475.4433475160804 17599.757773455356
476.4805067498364 17609.273282438764
477.51740116978 17789.28955479698
478.5540308591426 17893.16263985744
479.59039590112116 18236.299627202716
480.6264963788726 18207.91031058391
481.6623323755193 18589.694995387123
482.6979039741436 18749.245990744163
483.7332112577915 19216.790200885
484.76825430947247 19571.497267276136
485.80303321215797 19916.05088942365
486.837548048783 20060.22868609814
487.8717989022425 20606.1263207188
488.90578585539697 20740.965141360743
489.9395089910686 21080.986239228012
490.97296839203955 21007.086182175564
492.00616414106116 21041.168854953452
493.0390963208429 21136.52312098744
494.0717650140559 21079.143203333013
495.10417030333883 20944.02985805544
496.1363122712901 20695.74818634469
497.16819100046814 20406.65440427596
498.1998065734024 20068.518765029345
499.2311590725767 19689.09767501734
500.26224858044407 19470.287407707816
501.2930751794156 19139.410408886943
502.3236389518679 18885.481330270373
503.35393998014115 18435.26607968181
504.38397834653733 18311.09938491501
505.4137541333221 18067.31355935148
506.4432674227228 17797.797636780946
507.4725182969323 17590.73069650564
508.5015068381035 17494.18328458871
509.53023312835467 17445.592555292074
510.55869724976765 17354.65332574252
511.58689928438434 17094.094111683673
512.6148393142121 17067.838500352853
513.6425174212218 17137.24301382974
514.6699336873462 17036.730375082476
515.6970881944835 17097.184926369497
516.7239810244901 16890.73423134037
517.7506122591931 16898.056347102734
518.7769819803761 16922.954659013685
519.8030902697901 16934.07182972738
520.8289372091476 16915.772950083534
521.8545228801249 17040.030402660097
522.8798473643619 16848.491300901576
523.9049107434621 16905.737800171955
524.9297130989908 16935.9496132046
525.9542545124805 16881.146728949534
526.9785350654201 16711.805064396824
528.0025548392696 16801.049075692747
529.0263139154504 16653.011767710144
530.0498123753423 16694.82621423961
531.073050300296 16557.41807950218
532.0960277716204 16471.57022796933
533.1187448705896 16392.894287681345
534.1412016784416 16373.65578486861
535.1633982763833 16321.151978541855
536.1853347455726 16186.959347421096
537.2070111671401 16061.13168878715
538.2284276221817 16056.475073171945
539.2495841917516 15958.889857428541
540.2704809568677 15756.79704417451
541.2911179985167 15788.296598168654
542.3114953976419 15670.395615126234
543.3316132351592 15618.124403483613
544.3514715919409 15501.796428558146
545.3710705488247 15503.006185273834
546.3904101866156 15360.807212071804
547.4094905860784 15584.435929666663
548.4283118279418 15316.194732759239
549.4468739929034 15388.112915099035
550.4651771616191 15271.953076395517
551.4832214147063 15240.356342904692
552.501006832761 15261.20568003096
553.5185334963226 15197.249094525061
554.5358014859103 15266.114067515397
555.5528108820035 15267.244033563955
556.5695617650363 15060.687381940608
557.5860542154242 15176.536833508531
558.6022883135283 15160.346982419931
559.6182641396881 15049.017049734375
560.6339817741991 15084.358316226568
561.6494412973225 15191.422904236035
562.6646427892883 15133.994456131599
563.6795863302796 15017.483398633689
564.694272000459 15062.282165872442
565.7086998799423 15231.652460815783
566.7228700488104 15034.94860554272
567.7367825871115 14995.557291189678
568.7504375748576 15136.318262458057
569.7638350920224 15047.74527075697
570.7769752185486 15039.982797091065
571.7898580343353 15102.231272620027
572.802483619258 15124.253347489725
573.8148520531431 15354.871408423238
574.8269634157932 15318.090261720365
575.8388177869692 15265.330896994425
576.8504152463938 15437.049634372763
577.8617558737587 15680.918604138196
578.8728397487175 15690.059607997115
579.883666950891 15781.785607600841
580.8942375598654 16014.734405487437
581.9045516551851 16299.687717918485
582.9146093163617 16557.38340321495
583.924410622878 16566.638445445093
584.9339556541727 16615.832987175203
585.9432444896538 17020.807729091855
586.9522772086875 16814.15677111766
587.9610538906127 16908.18916080338
588.9695746147318 16904.715827523694
589.9778394603054 16918.055087444754
590.985848506567 16787.580905596624
591.9936018327098 16765.34653852274
593.0010995178891 16445.092496942227
594.0083416412344 16529.742791803415
595.0153282818283 16186.556751664035
596.0220595187293 16003.707404809824
597.0285354309508 16011.077713735362
598.0347560974806 15840.31807625981
599.0407215972609 15591.594404208887
600.0464320092051 15491.394044107205
601.0518874121954 15486.565879631158
602.0570878850685 15368.038259255569
603.062033506636 15307.14466720419
604.0667243556636 15327.912845200777
605.0711605108936 15133.380241295348
606.0753420510264 15406.687934387732
607.0792690547278 15334.021830426878
608.082941600629 15193.533752823056
609.0863597673306 15164.725623003615
610.0895236333909 15306.772928842483
611.0924332773357 15445.438440696013
612.0950887776617 15467.602667522002
613.0974902128219 15571.459614487132
614.0996376612384 15889.068966028415
615.1015312013005 15859.623021921998
616.1031709113595 15971.632114695409
617.1045568697336 15988.047998306287
618.1056891547069 16379.853895254448
619.1065678445229 16619.833806937502
620.1071930173985 17062.54222649714
621.1075647515099 17244.002736253013
622.1076831250048 17513.314808071835
623.1075482159849 17870.575838341418
624.1071601025305 18095.674884294276
625.1065188626781 18457.972193978705
626.105624574433 19023.913500336104
627.1044773157682 19318.98718282646
628.1030771646128 19602.946969275028
629.1014241988742 19933.501811058766
630.0995184964158 20359.952830736165
631.0973601350688 20543.70799870974
632.0949491926294 20977.764263662008
633.0922857468631 20820.157517608335
634.089369875499 21054.96486158594
635.0862016562278 21050.564306061402
636.0827811667077 20895.4266999965
637.0791084845641 20861.061601811012
638.0751836873878 20487.368276781726
639.0710068527369 20574.09295017538
640.0665780581294 20078.708376391332
641.0618973810506 19825.783078334764
642.0569648989604 19564.12516542938
643.0517806892676 18917.928951449667
644.0463448293649 18750.05639969831
645.040657396592 18348.078859304802
646.0347184682723 17988.164187230203
647.0285281216875 17559.382564633564
648.0220864340772 17281.85847937488
649.0153934826558 16971.217107602675
650.0084493446047 16715.33304015162
651.0012540970674 16556.85191148395
651.9938078171526 16261.861390446345
652.9861105819346 16103.609032352953
653.9781624684565 15936.17705227698
654.9699635537254 15605.262565763434
655.9615139147136 15605.863680724102
656.9528136283589 15298.285253457518
657.9438627715699 15347.174846813243
658.9346614212154 15209.031365063187
659.925209654135 14846.120510669887
660.9155075471263 14893.16752029852
661.9055551769616 14835.247395297232
662.895352620375 14982.2192579306
663.8848999540678 14663.774895704812
664.8741972547068 14514.212063328136
665.863244598926 14461.695925243102
666.8520420633213 14470.844256966831
667.8405897244611 14341.987507024187
668.8288876588758 14107.770535104846
669.8169359430613 14340.053693809148
670.8047346534822 14202.08749434319
671.7922838665672 14142.7684577426
672.7795836587156 14209.393074455573
673.766634106285 14271.408188051864
674.7534352856092 14024.799937157199
675.7399872729766 14121.051482179513
676.7262901446538 14074.440373768297
677.712343976862 14127.340150987035
678.6981488457986 14150.732966933134
679.6837048276229 14076.292200276692
680.6690119984596 14180.80356498485
681.6540704344043 14038.265414444619
682.6388802115107 13927.024197180373
683.6234414058108 14029.760395013043
684.6077540932874 13924.688826536265
685.591818349907 13896.620836465672
686.575634251587 13767.522098710057
687.5592018742263 13722.8040237708
688.5425212936734 13603.061459261944
689.5255925857564 13599.493432847763
690.5084158262707 13463.280120482523
691.4909910909646 13503.548926875466
692.4733184555644 13266.490291210293
693.4553979957618 13376.124062084124
694.4372297872123 13241.324739396016
695.4188139055404 13154.75892742548
696.4001504263324 13113.176585032172
697.3812394251509 13158.129847612892
698.3620809775111 13110.802753437214
699.3426751589104 13056.958115133955
700.3230220448004 12853.79381781071
701.3031217106054 13023.52752720419
702.2829742317172 13209.914997800623
703.2625796834873 12822.376936151519
704.2419381412474 12887.814871013878
705.22104968028 12969.130640380343
706.1999143758458 12865.23267836317
707.178532303169 12886.62205401691
708.1569035374378 12860.762041041682
709.1350281538107 12907.336700699834
710.1129062274158 12880.850853165459
711.0905378333373 13132.440692784032
712.0679230466376 12969.952877319036
713.0450619423427 13091.346207022174
714.0219545954424 13169.608193160288
714.9986010808989 13075.271676666167
715.9750014736292 13133.555589172674
716.9511558485392 13285.182100196933
717.9270642804786 13314.563296929482
718.9027268442787 13499.925987996769
719.8781436147328 13446.733596850638
720.8533146666014 13466.084935378944
721.828240074612 13431.33366622841
722.8029199134635 13332.390504225705
723.7773542578125 13370.00277972443
724.751543182294 13273.527262593654
725.7254867615029 13247.793039273678
726.6991850700015 13069.051531778889
727.6726381823228 13084.124009658593
728.6458461729599 13109.593052336684
729.6188091163858 12963.195312059881
730.5915270870246 13054.339147657895
731.5640001592856 12831.865267709438
732.536228407529 12962.866554333152
733.5082119060917 12842.1163429365
734.4799507292755 12744.739907525858
735.4514449513481 12829.375531447045
736.4226946465496 12901.734952984289
737.3936998890786 12930.905520747807
738.3644607531078 12716.02518672097
739.3349773127793 12749.30480190281
740.3052496421951 12816.738856143365
741.27527781543 12660.48040501995
742.2450619065221 12633.975268635058
743.2146019894826 12609.19849988487
744.183898138288 12621.210809702241
745.1529504268801 12527.529948282392
746.1217589291682 12467.844588712518
747.0903237190341 12434.6842433729
748.058644870318 12414.54965490359
749.0267224568397 12327.752778072187
749.994556552374 12194.722673547229
750.9621472306771 12313.486113330244
751.9294945654583 12318.50834469001
752.8965986304011 12383.268818136807
753.8634594991636 12287.95848134973
754.8300772453586 12435.334994337254
755.7964519425768 12315.121854724239
756.762583664371 12395.697248266659
757.7284724842611 12378.256012351098
758.6941184757416 12303.521428889157
759.6595217122667 12287.016852076868
760.6246822672638 12322.246696470525
761.5896002141235 12128.239907251784
762.5542756262093 12254.625891264757
763.5187085768503 12205.25469540545
764.4828991393406 12261.311529898707
765.4468473869474 12259.466910442814
766.4105533929032 12082.762883787338
767.3740172304078 12043.599568887761
768.3372389726283 12191.264043458708
769.3002186926988 12007.489040089424
770.2629564637282 11940.028891704642
771.2254523587872 11920.475422366168
772.1877064509154 11752.597444477196
773.1497188131179 11616.246806474535
774.1114895183728 11459.912882816252
775.0730186396268 11516.698661624943
776.0343062497905 11496.534460306055
776.9953524217381 11407.983820093938
777.9561572283274 11385.266930858908
778.9167207423689 11394.827537166386
779.8770430366476 11307.496267639073
780.8371241839159 11285.72359586827
781.7969642568951 11338.68158347592
782.7565633282757 11596.598174657787
783.7159214707099 11328.354879789216
784.6750387568281 11372.047476828384
785.6339152592227 11306.99359586693
786.5925510504512 11281.873241128455
787.5509462030477 11339.433818691128
788.5091007895098 11347.83617739956
789.4670148823006 11347.692722210017
790.4246885538596 11313.34967419433
791.3821218765861 11245.395758024979
792.3393149228505 11219.976903428415
793.2962677649975 11362.128453617386
794.2529804753303 11430.923334428317
795.20945312613 11497.491287180548
796.1656857896378 11420.757434848398
797.1216785380675 11492.81682482768
798.0774314435985 11744.121840325903
799.0329445783846 11833.209360779834
799.9882180145414 11876.075654483218
800.9432518241574 11998.024615728176
801.89804607929 12136.928209412737
802.852600851962 12158.324670998481
803.8069162141637 12199.890708776875
804.760992237856 12440.774098426878
805.714828994971 12427.722159915516
806.6684265574077 12602.754618178074
807.6217849970271 12457.922939046206
808.574904385674 12420.713212944096
809.527784795142 12459.065755166579
810.4804262972102 12595.794564230788
811.4328289636178 12214.223549901342
812.3849928660748 12048.001341021829
813.3369180762638 11962.394833474762
814.2886046658241 11945.167489312687
815.2400527063783 11657.309624370808
816.1912622695108 11536.681840918653
817.1422334267718 11450.377722933943
818.0929662496856 11317.649037147778
819.0434608097457 11102.317905515354
819.9937171784059 10957.146335963924
820.9437354271013 10833.24270763209
821.8935156272255 10895.655441129365
822.8430578501484 10685.727612848807
823.7923621672016 10448.640574560495
824.7414286496896 10534.054861071081
825.6902573688876 10555.33708748045
826.6388483960363 10474.21095794155
827.5872018023492 10374.964075588872
828.5353176590033 10467.840488365255
829.4831960371503 10252.203958682456
830.4308370079016 10243.489841375194
831.3782406423525 10365.982167779564
832.3254070115545 10327.219570135634
833.2723361865319 10101.492312084303
834.2190282382799 10151.423270034076
835.1654832377644 10196.256481685119
836.1117012559116 10093.496703568271
837.0576823636256 10313.503915604446
838.003426631778 10024.183484422463
838.9489341312074 10007.389066460482
839.8942049327197 10168.607549508397
840.8392391070975 10162.539632390126
841.7840367250865 10053.831746790018
842.7285978573982 10016.874176951804
843.672922574724 10005.976367237572
844.6170109477152 9956.393066442512
845.560863046996 10033.81189094436
846.5044789431595 10054.529248403767
847.4478587067697 10012.808000404806
848.3910024083561 10149.404735650804
849.333910118421 10000.034237482114
850.2765819074339 9877.64294080899
851.2190178458332 10086.56616851471
852.161218004032 10070.325702591032
853.1031824524016 10040.870577005708
854.0449112612987 10034.123490139653
854.9864045010327 10040.54881340238
855.9276622418947 9964.857081153317
856.8686845541379 10019.447024144798
857.8094715079915 10001.048745987147
858.7500231736467 10136.650609320177
859.690339621271 10154.677947102546
860.6304209209939 10147.150096125613
861.5702671429244 9921.451268370442
862.5098783571284 10108.236983181774
863.4492546336569 10126.778899960864
864.3883960425155 9976.108427550098
865.3273026536863 10050.479553726183
866.2659745371238 10062.801041897164
867.2044117627465 10390.918188420013
868.1426144004472 10224.210520826138
869.0805825200823 10374.361157039666
870.0183161914847 10388.695547439198
870.9558154844526 10484.256813664108
871.8930804687552 10483.52961021478
872.8301112141307 10504.827724624713
873.7669077902865 10670.805913704535
874.7034702669062 10853.563787071655
875.6397987136315 10748.630314923998
876.5758932000863 10874.460240768674
877.5117537958522 10934.715931445047
878.4473805704911 10978.735246113793
879.3827735935283 10879.940725861054
880.3179329344603 11066.040892190316
881.2528586627541 11157.640585076653
882.1875508478479 11287.157243644922
883.1220095591489 11137.13803098015
884.0562348660296 11033.988608253301
884.9902268378391 11245.441070238026
885.9239855438955 11096.601111127691
886.8575110534839 10923.869946295756
887.7908034358588 10946.146745082133
888.7238627602474 10916.16649264485
889.6566890958475 10795.341901221454
890.5892825118208 10638.969764321868
891.5216430773125 10709.585117936345
892.4537708614189 10609.502238436613
893.3856659332196 10481.339375426101
894.3173283617652 10251.89040398576
895.2487582160684 10316.796988925138
896.179955565116 10187.530440438988
897.110920477864 10022.794193635707
898.0416530232451 9983.447079348736
898.9721532701478 9838.132583305258
899.9024212874428 9981.965756887013
900.8324571439662 9750.498693784197
901.7622609085302 9690.247586448038
902.6918326499072 9581.984435668823
903.6211724368477 9657.102909063227
904.5502803380696 9631.541580473333
905.4791564222614 9769.94017571742
906.4078007580792 9488.277031923253
907.3362134141571 9416.263646794712
908.2643944590909 9551.6501454852
909.1923439614493 9367.582406811756
910.1200619897754 9277.484617900496
911.0475486125779 9561.684950455692
911.9748038983344 9298.305314513158
912.9018279155007 9315.214532963593
913.8286207324982 9203.941663494403
914.7551824177117 9279.158968287427
915.6815130395116 9294.665744029713
916.6076126662283 9136.326679550744
917.533481366163 9207.26238616429
918.4591192075914 9205.712196852446
919.3845262587565 9236.768807408092
920.3097025878706 9179.982893315948
921.2346482631237 9184.527946253005
922.1593633526682 9126.969049242589
923.0838479246304 9168.474184755056
924.0081020471061 9346.129290963885
924.9321257881656 8993.244747831322
925.8559192158464 9126.30770140438
926.7794823981512 8992.755817609348
927.7028154030686 9016.711755975924
928.6259182985414 8965.546243424042
929.5487911524906 9162.87977839533
930.4714340328119 9084.93777685253
931.3938470073608 8918.611136217107
932.3160301439748 8986.911502262217
933.2379835104548 8911.07427827884
934.1597071745709 9071.93399224043
935.0812012040769 8987.318403740297
936.002465666681 9003.283755888831
936.9235006300696 9015.69099004854
937.8443061619055 8922.477553701878
938.7648823298077 8873.790665553792
939.6852292013809 8960.109482092634
940.6053468441951 9070.849510166945
941.5252353257874 8724.329438088904
942.4448947136698 8874.15748948738
943.364325075323 8954.866250024364
944.2835264782043 8879.725982699414
945.2024989897309 8792.246474402422
946.1212426773054 8955.231695066468
947.0397576082851 8871.392029473502
947.9580438500125 8936.97860903365
948.8761014697939 8999.219543115734
949.7939305349064 8989.403819587207
950.7115311125999 8792.646195831168
951.6289032700952 8832.361611088909
952.5460470745875 8959.144108965518
953.4629625932339 8779.797306965056
954.3796498931715 9099.508949156396
955.2961090415029 8863.467213547778
956.2123401053068 8908.453214273763
957.1283431516276 8809.821638396656
958.0441182474842 8741.74977158057
958.9596654598663 8929.552331149169
959.8749848557309 8842.820481631548
960.7900765020167 8753.632691610892
961.7049404656209 8691.894006860104
962.6195768134185 8820.553580952223
963.5339856122537 8757.815340151992
964.4481669289453 8862.871687481289
965.3621208302793 8704.307191019787
966.2758473830145 8728.06760025123
967.1893466538822 8862.52735966742
968.1026187095813 8750.401878359477
969.0156636167867 8768.030548951356
969.9284814421426 8756.91810825594
970.8410722522622 8712.530590692595
971.753436113735 8716.306783359756
972.6655730931161 8731.976521165492
973.5774832569368 8793.406856862171
974.4891666716958 8631.811563893149
975.4006234038698 8589.974641104964
976.3118535198955 8560.056153927944
977.2228570861935 8740.542526680943
978.1336341691494 8639.70517156461
979.0441848351202 8614.138444537259
979.9545091504333 8721.149725581728
980.864607181391 8796.090209066988
981.7744789942699 8695.514451535693
982.6841246553086 8759.039069072573
983.5935442307236 8754.085007034595
984.5027377867027 8875.570803994857
985.4117053894024 8822.489669485802
986.3204471049557 8704.839265571994
987.2289629994648 8854.608738238661
988.1372531390007 9056.336209226287
989.0453175896091 8819.14788068915
989.9531564173067 8893.161110963487
990.860769688079 8839.009560701888
991.7681574678918 8842.08925953117
992.6753198226706 8999.366556569728
993.582256818323 8983.803604978119
994.4889685207218 8976.13376648774
995.3954549957143 9168.109334403629
996.301716309119 9174.13500407322
997.2077525267232 9138.400648517387
998.1135637142943 9061.827924869573
999.0191499375615 9195.062344748918
999.924511262232 9182.315264479923
1000.8296477539861 9280.540642803728
1001.7345594784656 9136.599851998175
1002.6392465012996 9066.102013169513
1003.5437088880753 9274.964709526834
1004.4479467043584 9216.537667844463
1005.3519600156869 9048.558621573862
1006.2557488875718 9165.022687796894
1007.1593133854858 9156.967578761069
1008.0626535748888 9143.437153424982
1008.9657695212009 9089.356533779963
1009.8686612898182 9308.984708370273
1010.7713289461135 9232.680133901767
1011.6737725554212 9191.951901677461
1012.5759921830577 9150.532564344127
1013.4779878943027 9073.836608255624
1014.379759754418 9119.411362999259
1015.2813078286254 8967.456009769054
1016.18263218213 8769.454471597468
1017.0837328801026 8934.599868149517
1017.9846099876886 9024.815440867169
1018.8852635700023 8944.046706464665
1019.7856936921362 8624.658338190799
1020.6859004191447 8895.588751520032
1021.5858838160675 8670.989366578038
1022.4856439479063 8606.865686152809
1023.3851808796389 8557.161845070277
1024.2844946762143 8751.65220772233
1025.183585402554 8565.21489461982
1026.082453123554 8476.32932498995
1026.9810979040776 8532.612093303538
1027.8795198089647 8304.76012310988
1028.777718903024 8516.363813696658
1029.6756952510368 8325.40541322786
1030.5734489177648 8364.596029172537
1031.4709799679313 8425.118959075673
1032.3682884662358 8541.117581793498
1033.2653744773506 8268.059522146981
1034.1622380659192 8237.860948025738
1035.058879296559 8492.824296575523
1035.9552982338591 8581.655460622518
1036.8514949423825 8563.25760062928
1037.7474694866614 8560.448188426442
1038.6432219312028 8619.603954372487
1039.5387523404825 8787.64078594185
1040.4340607789582 8770.912509845359
1041.3291473110476 8855.83664654011
1042.2240120011465 9038.130803190961
1043.1186549136273 9270.944423076771
1044.0130761128294 9265.529732849764
1044.9072756630649 9367.341864891832
1045.8012536286205 9587.97260789786
1046.6950100737577 9604.932313363539
1047.588545062701 9815.101883040195
1048.481858659663 9858.789457745597
1049.3749509288118 10078.124392994028
1050.2678219343034 9905.16513466618
1051.1604717402515 10016.759690858406
1052.0529004107575 9848.120276750804
1052.9451080098825 10018.965569040354
1053.8370946016694 9956.395413768605
1054.7288602501267 10007.675481923765
1055.6204050192446 9864.498839333239
1056.511728972977 9934.809923739265
1057.402832175254 9767.080385889007
1058.2937146899785 9601.336120434727
1059.1843765810263 9466.900528649077
1060.0748179122456 9642.217631219484
1060.9650387474576 9512.726087499952
1061.855039150456 9397.998404913767
1062.7448191850071 9276.83293909453
1063.6343789148505 9205.705398797643
1064.5237184037014 9252.692462004412
1065.412837715241 8995.845020573273
1066.3017369131267 8953.20205041646
1067.190416060992 9005.271663013795
1068.0788752224398 8821.61266414635
1068.9671144610438 8766.934454325876
1069.8551338403558 8917.94367663864
1070.7429334239023 8939.600936357656
1071.6305132751695 8667.583144019298
1072.517873457633 8807.898344608078
1073.4050140347335 8629.37482731743
1074.2919350698776 8693.844397489129
1075.1786366264623 8501.211366358626
1076.0651187678395 8611.035398125543
1076.95138155735 8419.853684630003
1077.8374250582929 8321.648313094705
1078.7232493339507 8376.517022905104
1079.608854447577 8385.364631114851
1080.4942404623907 8311.892432214958
1081.3794074415982 8326.42252021941
1082.2643554483657 8310.437684092678
1083.149084545841 8329.844761677854
1084.033594797138 8042.25384962673
1084.9178862653516 8111.417797300793
1085.8019590135427 8108.24490793183
1086.6858131047484 7900.899496597929
1087.5694486019802 8058.497099489003
1088.4528655682225 7984.31589766182
1089.3360640664287 8202.339071587166
1090.2190441595321 7950.270487705986
1091.1018059104317 7963.876440886612
1091.98434938201 8045.096046888891
1092.866674637111 7983.150358162549
1093.748781738559 7997.625556268414
1094.6306707491512 7866.117289677246
1095.5123417316554 7965.5262232337245
1096.3937947488157 7820.763255934845
1097.2750298633455 7836.740297281281
1098.156047137938 7838.6919382854085
1099.0368466352556 7907.327894875647
1099.9174284179317 7936.551687444591
1100.7977925485757 7808.651010995867
1101.6779390897755 7827.22140292346
1102.5578681040806 7909.912952144419
1103.4375796540226 7819.504358781315
1104.3170738021054 7912.151228913854
1105.1963506108077 7698.765559522343
1106.0754101425773 7664.598432472725
1106.9542524598382 7827.879275359572
1107.8328776249855 7781.633341432525
1108.7112857003904 7749.69354784967
1109.5894767483987 7682.7839392247015
1110.4674508313292 7960.082583227731
1111.3452080114657 7905.085100343325
1112.2227483510815 8055.120605976855
1113.1000719124077 8086.825271558007
1113.9771787576592 8148.719957237272
1114.854068949022 8189.991788909429
1115.7307425486542 8316.512121040178
1116.6071996186893 8381.879988267638
1117.483440221229 8686.817825393755
1118.3594644183577 8450.642768480206
1119.235272272128 8657.62307646337
1120.1108638445658 8826.055100786283
1120.9862391976712 9127.501592954772
1121.8613983934229 9047.124578893974
1122.7363414937627 9103.86942308761
1123.6110685606182 9321.108267024823
1124.485579655884 9601.744935966599
1125.359874841426 9546.982027056862
1126.2339541790916 9592.271580969187
1127.1078177306936 9962.960208134476
1127.9814655580267 9789.920299329386
1128.854897722851 9883.535930799748
1129.7281142869106 9926.977621772068
1130.6011153119125 10068.399752258574
1131.473900859548 10092.742853151383
1132.3464709914697 9908.33064140936
1133.2188257693178 9936.661918998869
1134.0909652546961 9882.954530847093
1134.96288950919 9705.2695659505
1135.8345985943506 9850.640712655393
1136.7060925717087 9521.837133257608
1137.57737150277 9500.496114182028
1138.4484354490069 9552.675443973705
1139.3192844718778 9391.73961527541
1140.1899186327992 9122.360682033559
1141.060337993178 9346.682902901137
1141.930542614382 9008.748552809051
1142.8005325577597 8988.366379165753
1143.670307884635 8566.588621507024
1144.5398686563003 8654.304086098267
1145.409214934025 8691.398635314781
1146.2783467790541 8211.968761164459
1147.1472642526023 8355.773457802945
1148.0159674158622 8329.415945512827
1148.8844563300026 8194.429278253603
1149.7527310561618 7960.607970918536
1150.6207916554504 7837.984442618198
1151.4886381889592 7810.33498081023
1152.3562707177498 7967.306661658661
1153.2236893028585 7733.871951829444
1154.090894005296 7574.822142258327
1154.9578848860474 7670.022087567512
1155.8246620060709 7547.1991915966355
1156.6912254262988 7532.964723321978
1157.5575752076438 7476.613640123012
1158.42371141098 7730.929214196594
1159.2896340971656 7560.865909155356
1160.1553433270346 7492.324161765142
1161.0208391613887 7454.756805413929
1161.8861216610057 7494.816337388549
1162.75119088664 7471.794650291136
1163.6160468990201 7332.5444758456415
1164.4806897588442 7362.376338105581
1165.3451195267917 7465.762568648335
1166.2093362635114 7382.682461920696
1167.0733400296285 7327.339605118919
1167.9371308857444 7119.3288604743475
1168.8007088924278 7275.974817532342
1169.6640741102328 7369.315868973329
1170.5272265996773 7331.561582624903
1171.390166421259 6996.571397724937
1172.252893635452 7396.509681026999
1173.1154083026995 7471.773394632217
1173.977710483421 7331.489644308416
1174.8398002380145 7184.054904184624
1175.7016776268483 7351.365918032209
1176.563342710264 7335.78808127211
1177.4247955485826 7209.000433687288
1178.2860362020947 7496.44614285997
1179.147064731069 7237.777555622049
1180.0078811957483 7275.293986496574
1180.8684856563486 7243.767431981674
1181.7288781730604 7383.547524734286
1182.589058806052 7385.607579979206
1183.4490276154593 7584.885663867688
1184.3087846614017 7461.771973408579
1185.1683300039676 7566.714072269298
1186.027663703222 7725.686638685763
1186.8867858192025 7597.535318047012
1187.7456964119228 7669.240280337585
1188.6043955413716 7748.575007955145
1189.4628832675116 7893.797348732728
1190.3211596502842 7964.031867409173
1191.179224749596 8015.874466262476
1192.0370786253388 7923.647925242895
1192.8947213373758 8100.077212948034
1193.7521529455407 8382.919534297771
1194.6093735096438 7961.072055521492
1195.466383089477 8191.91766668136
1196.3231817447977 8186.559008994086
1197.1797695353398 8428.717421133942
1198.0361465208189 8196.919570134905
1198.8923127609214 8177.868359293601
1199.7482683153048 8328.971747083273
1200.6040132436028 8471.138542869072
1201.459547605431 8323.345708190518
1202.3148714603722 8257.387059405926
1203.1699848679855 8337.342942394975
1204.0248878878065 8445.038989951277
1204.8795805793507 8002.160520700949
1205.7340630020935 8335.460799201099
1206.5883352155033 8416.970609377775
1207.4423972790064 8229.603676730028
1208.2962492520237 8036.418014590432
1209.1498911939307 8024.4416117183255
1210.0033231640937 8075.016906581632
1210.8565452218427 7978.428648436207
1211.7095574264913 7686.745980653725
1212.5623598373222 7746.416919240468
1213.4149525135963 7591.763292959066
1214.2673355145507 7691.515635138327
1215.1195088993936 7573.374134638676
1215.9714727273113 7339.965538427964
1216.8232270574663 7612.546916014029
1217.6747719489904 7231.9460738571415
1218.5261074609934 7291.864837634252
1219.3772336525653 7385.963875217855
1220.2281505827668 7328.261722457394
1221.0788583106296 7496.650605079916
1221.9293568951707 7239.176243056961
1222.7796463953746 7115.217581601301
1223.629726870202 7275.526370275181
1224.4795983785934 7221.95161458106
1225.3292609794553 7249.9870404994845
1226.1787147316809 7003.090143119404
1227.0279596941327 7151.711606114742
1227.8769959256424 7167.309226684821
1228.7258234850306 7143.715110096821
1229.5744424310833 7007.630075338682
1230.422852822563 7137.385230335062
1231.2710547182105 7290.34611610931
1232.119048176739 7218.898428601157
1232.9668332568417 6918.749339874373
1233.8144100171812 7083.271780974215
1234.6617785163999 7158.468754658922
1235.508938813111 6823.0540261887145
1236.3558909659114 6889.241000170597
1237.2026350333617 7089.077741546365
1238.049171074008 7167.5155161366365
1238.8954991463652 6962.3093096299435
1239.741619308932 6931.773009965931
1240.587531620169 7301.441476100464
1241.4332361385277 7121.244854840885
1242.2787329224248 7048.845895296026
1243.1240220302534 6907.542943504898
1243.9691035203869 6979.347338024572
1244.813977451171 7116.024581765038
1245.6586438809263 7192.136533018272
1246.5031028679496 6716.431904216872
1247.3473544705157 7137.904030270297
1248.1913987468706 7053.881623232594
1249.0352357552383 6852.132875769389
1249.8788655538228 6851.161002692477
1250.7222882007918 7052.412403006607
1251.565503754302 7058.9451404516585
1252.4085122724755 6839.915296528462
1253.2513138134182 7136.936014471277
1254.0939084352049 6979.544001506207
1254.9362961958905 7038.044642001706
1255.7784771535007 7070.119029262979
1256.6204513660432 6996.601031892186
1257.4622188915 7187.912687401484
1258.3037797878242 7041.530975661539
1259.1451341129468 6946.029797074341
1259.9862819247755 7009.081276498769
1260.8272232811978 6930.761468589521
1261.6679582400666 7237.405470558406
1262.5084868592203 6825.17083249731
1263.34880919647 6834.545066190825
1264.1889253095997 6972.117994507785
1265.0288352563712 7026.03786148386
1265.8685390945266 6912.676360711982
1266.7080368817751 6992.058844696859
1267.5473286758115 7097.631417103624
1268.386414534294 6993.401241136101
1269.2252945148703 6619.997396590761
1270.0639686751547 6822.019062700356
1270.9024370727402 6843.763192428082
1271.7406997651997 6701.863617672889
1272.5787568100714 6657.220176371526
1273.4166082648808 6794.174899953536
1274.2542541871244 6831.28113965491
1275.091694634275 6912.05185322715
1275.9289296637817 6635.647522071935
1276.7659593330663 6716.472670134989
1277.6027836995308 6694.069299192405
1278.4394028205552 6929.190204546551
1279.2758167534867 6705.786513440084
1280.112025555658 6740.699719867798
1280.9480292843746 6759.0797044221345
1281.7838279969128 6634.136911763024
1282.6194217505326 6560.001592679124
1283.4548106024686 6453.125852703195
1284.289994609926 6637.850771366429
1285.1249738300921 6754.741623292936
1285.959748320127 6434.220500026615
1286.7943181371702 6590.434665465751
1287.6286833383328 6638.9891832729145
1288.4628439807038 6671.53038782393
1289.2968001213521 6510.114297466076
1290.1305518173194 6614.117722006941
1290.9640991256183 6651.463951383319
1291.7974421032523 6414.109205278593
1292.630580807183 6568.680295089305
1293.463515294361 6649.617066794363
1294.29624562171 6801.606348100108
1295.12877184613 6512.954335399111
1295.961094024493 6607.80764892007
1296.79321221365 6667.739178971676
1297.6251264704333 6796.029567276974
1298.4568368516466 7056.709043976594
1299.2883434140658 6824.419098526446
1300.1196462144526 6610.563855340488
1300.9507453095375 6784.53721519066
1301.7816407560313 6759.151851288892
1302.6123326106172 6893.39831557077
1303.4428209299622 6732.224572218513
1304.2731057707024 6997.7608032738735
1305.1031871894502 6662.759394965868
1305.933065242798 6968.55387535591
1306.7627399873181 6866.564207811316
1307.5922114795467 7192.884192658831
1308.4214797760123 7377.97599498679
1309.2505449332057 6991.537917752797
1310.0794070076026 7157.848648101785
1310.9080660556538 7163.644998359334
1311.736522133786 7210.425443111004
1312.5647752983987 7047.501052802339
1313.3928256058734 6919.39998105268
1314.2206731125661 7172.060918267055
1315.048317874809 7160.090943745912
1315.8757599489109 7029.6729459999215
1316.7029993911547 7231.0020011530605
1317.5300362578055 7386.745415175576
1318.356870605101 7040.149413777913
1319.183502489257 7127.932091026683
1320.0099319664623 7295.4258975936855
1320.836159092889 7302.369568385235
1321.66218392468 7404.815623989452
1322.4880065179532 7172.387194042871
1323.3136269288134 7265.1793795046815
1324.1390452133292 7411.667420209131
1324.9642614275563 7354.5545915671955
1325.7892756275214 7430.7229397777965
1326.6140878692295 7141.545876884729
1327.4386982086617 7752.927083222332
1328.2631067017755 7396.659659329756
1329.0873134045069 7353.151302559805
1329.911318372764 7302.527488291368
1330.735121662441 7206.425028361782
1331.558723329399 7203.5595544353055
1332.3821234294774 7235.25159610525
1333.2053220185007 7331.410152336769
1334.0283191522612 7218.314455304839
1334.851114886529 7436.164893899765
1335.6737092770582 7150.550516333678
1336.4961023795695 7131.446761838686
1337.3182942497697 7177.323287319577
1338.1402849433325 7150.900424346239
1338.962074515921 7044.314564273214
1339.7836630231632 6961.954967010696
1340.6050505206676 7394.839898463682
1341.426237064028 7319.01053535109
1342.2472227088037 7373.262708507068
1343.0680075105338 6880.658308570356
1343.888591524741 6984.307468775545
1344.7089748069138 7209.254579634687
1345.5291574125276 7126.228153112634
1346.3491393970307 6756.288597144991
1347.168920815846 7037.052861112291
1347.9885017243778 6979.04722941223
1348.8078821780036 7009.7508971912885
1349.6270622320844 7057.039545426819
1350.4460419419447 6702.477861116064
1351.2648213629054 7059.382676127364
1352.0834005502438 6700.5815319518715
1352.90177955923 6841.048931989903
1353.7199584451064 7294.515218168826
1354.5379372630887 6946.4075191161
1355.355716068374 6840.558510683137
1356.1732949161305 6775.585571555175
1356.9906738615155 6877.7926962248575
1357.8078529596478 6902.839060982611
1358.6248322656375 6930.260945704818
1359.441611834567 6798.79968227669
1360.2581917214866 7067.801141653756
1361.0745719814367 6813.285277689957
1361.890752669433 6700.997779034653
1362.7067338404577 6664.304383052321
1363.5225155494845 6989.414335319774
1364.3380978514506 7047.629922091105
1365.1534808012839 6658.446782142941
1365.9686644538815 6590.125843844144
1366.783648864117 6818.630540465548
1367.5984340868417 6971.522935913144
1368.413020176893 6814.655862749343
1369.2274071890715 6568.112849432022
1370.0415951781652 7035.975654015076
1370.8555841989346 6596.765679421975
1371.6693743061223 6612.564770200671
1372.48296555444 6616.978231631217
1373.2963579985844 6962.066769855572
1374.1095516932255 6766.136538172966
1374.9225466930166 6577.440117545675
1375.7353430525782 6704.368892374559
1376.5479408265164 6558.780833421612
1377.36034006941 6803.463191043968
1378.1725408358216 6850.2452427822545
1378.9845431802805 6500.383902507425
1379.796347157304 6906.044508404082
1380.6079528213813 6847.001113959852
1381.4193602269788 6568.2663901686
1382.230569428546 6557.1521871419445
1383.0415804805016 6936.419285093165
1383.852393437246 6842.843944140537
1384.6630083531563 6776.012194653054
1385.4734252825892 6632.2264941979565
1386.2836442798798 6673.11086197129
1387.0936653993322 6648.848630547841
1387.9034886952395 6433.410547463844
1388.713114221864 6762.970719664688
1389.5225420334482 6692.533499490523
1390.331772184214 6438.134927794957
1391.1408047283585 6448.12418533134
1391.9496397200564 6392.203502787495
1392.758277213461 6683.661103972937
1393.5667172627054 6713.426106442001
1394.3749599218918 6485.478088768808
1395.1830052451114 6332.3293111573785
1395.9908532864265 6343.278180048319
1396.7985040998774 6661.2586997813905
1397.6059577394808 6308.816340641065
1398.4132142592352 6515.056979683185
1399.2202737131156 6447.185489053737
1400.027136155073 6447.769874773061
1400.8338016390353 6430.906236706494
1401.6402702189134 6444.414155237385
1402.446541948586 6463.502473205765
1403.2526168819204 6159.231665410937
1404.058495072757 6381.010750967174
1404.8641765749107 6121.22131267818
1405.6696614421799 6352.2097130489965
1406.4749497283356 6670.859810593572
1407.280041487129 6282.501162613568
1408.084936772295 6026.416234974498
1408.8896356375335 6352.288905719875
1409.6941381365323 6282.055533207855
1410.498444322955 6038.130675393024
1411.3025542504402 6115.003593683252
1412.106467972606 6141.147592394592
1412.9101855430508 6084.581498855082
1413.7137070153458 5905.986922848911
1414.5170324430437 5997.199906665008
1415.320161879672 6062.62225831803
1416.1230953787435 6242.662170517508
1416.925832993742 5927.294293854235
1417.7283747781275 5688.417536169387
1418.5307207853439 5881.765355420417
1419.3328710688093 5943.709360617159
1420.134825681922 5617.157921309425
1420.9365846780584 5621.662274043137
1421.7381481105713 5969.852140585749
1422.539516032788 5897.635525155512
1423.3406884980232 5499.811285388396
1424.1416655595604 5527.029391595493
1424.942447270665 5627.359007020521
1425.7430336845828 5749.627802489033
1426.5434248545298 5430.958190541832
1427.3436208337116 5696.137287155032
1428.143621675301 5862.739359375534
1428.9434274324558 5798.300929566546
1429.7430381583108 5475.795727330394
1430.5424539059713 5548.931981388962
1431.3416747285337 6042.035256877481
1432.1407006790632 5626.10569319317
1432.9395318106053 5756.62678101693
1433.7381681761835 5480.929985572895
1434.5366098288014 5472.552443517378
1435.3348568214424 5633.441031511167
1436.1329092070573 5545.677340034295
1436.9307670385879 5543.0883161181055
1437.7284303689503 5689.44822000066
1438.5258992510335 5797.590143761735
1439.3231737377118 5492.3261466015865
1440.1202538818306 5552.011228454259
1440.9171397362225 5538.108713825121
1441.7138313536925 5525.496445714602
1442.5103287870243 5409.2090355517885
1443.3066320889775 5367.435898180864
1444.1027413122956 5650.04251684259
1444.8986565096966 5456.592766195831
1445.694377733882 5454.896404451832
1446.4899050375207 5241.404409647765
1447.2852384732687 5279.090754940597
1448.0803780937622 5503.211610172799
1448.8753239516063 5333.175794946005
1449.6700760993954 5185.072789367607
1450.464634589689 5194.308724869062
1451.2589994750397 5456.932797051324
1452.0531708079689 5244.777213448997
1452.8471486409799 5158.594374419344
1453.6409330265524 5560.114565418606
1454.4345240171442 5223.149688105619
1455.2279216651987 5309.50859604532
1456.0211260231263 5273.352004945565
1456.8141371433194 5451.446588017173
1457.6069550781594 5281.034780035604
1458.3995798799897 5184.08843519404
1459.1920116011424 5223.995341531842
1459.98425029393 5120.508436451908
1460.7762960106338 5149.8989919817195
1461.5681488035225 5265.908649044045
1462.3598087248392 5319.098242351169
1463.1512758268036 5414.196568936574
1463.942550161617 5199.2818797348355
1464.7336317814625 5099.524780627923
1465.524520738496 5220.822006051125
1466.3152170848552 5031.019343286647
1467.1057208726506 5254.101116107388
1467.8960321539817 5092.613083929081
1468.6861509809169 4953.559407481707
1469.4760774055085 5092.197035901497
1470.265811479785 5211.963426654956
1471.055353255755 4940.720406112365
1471.844702785409 5124.644689331311
1472.6338601207044 5063.550133310376
1473.4228253135934 5695.00294516286
1474.2115984159936 5113.805554493045
1475.0001794798063 4857.772273882423
1475.7885685569145 5169.629859986855
1476.576765699172 5171.5529735042055
1477.3647709584238 5101.755489345493
1478.1525843864802 5301.613240775027
1478.9402060351367 5316.421808450032
1479.7276359561693 5316.196663706351
1480.514874201328 5029.994128155493
1481.3019208223468 4959.373718703597
1482.0887758709323 4989.5869249847465
1482.8754393987747 5235.530587315684
1483.6619114575406 4966.646446661096
1484.4481920988783 5191.692927753891
1485.2342813744108 5290.437246544383
1486.0201793357446 5278.676556466955
1486.8058860344572 5181.707755844417
1487.591401522117 5181.4395366201325
1488.3767258502594 5165.847257825498
1489.1618590704056 5105.15463325435
1489.9468012340494 4956.458756168946
1490.7315523926754 5229.17101184601
1491.5161125977356 5258.184275744747
1492.3004819006637 5160.885638091993
1493.084660352877 5161.665831059341
1493.8686480057622 5248.8112338272795
1494.6524449106964 5511.974508247784
1495.4360511190262 5592.751529790015
1496.219466682087 5287.8107701059325
1497.0026916511779 5348.82054446801
1497.7857260775945 5195.242802583364
1498.5685700125996 5401.631277599842
1499.3512235074395 5224.567636957969
1500.133686613337 5089.263685208131
1500.9159593814966 5130.097142140142
1501.698041863101 5656.890448646739
1502.4799341093094 5012.022555649231
1503.2616361712662 5036.111555651369
1504.043148100087 5388.726620557328
1504.8244699468742 5371.089617176086
1505.6056017626997 5149.048784909466
1506.3865435986281 4872.632252709657
1507.1672955056893 5238.396679034463
1507.9478575348967 5180.473777174218
1508.7282297372512 5379.3677837968735
1509.5084121637192 5215.387022160531
1510.2884048652577 5132.558297329052
1511.0682078927948 5103.652153267351
1511.8478212972423 5051.092029939365
1512.6272451294917 5089.549840377365
1513.4064794404076 5219.845630113903
1514.1855242808433 5075.739799593275
1514.9643797016215 5088.096528657634
1515.743045753552 5181.287563358155
1516.5215224874191 5160.266788089468
1517.2998099539836 4743.17867522187
1518.077908203999 5114.7546629209555
1518.8558172881785 5147.080926104068
1519.633537257234 5282.874606227624
1520.4110681618404 5101.8155087256055
1521.1884100526604 5345.168194455998
1521.9655629803365 5150.749454594042
1522.7425269954856 5329.172865511362
1523.5193021487103 5340.069923057779
1524.2958884905856 4920.7966851533865
1525.0722860716687 5083.249830313796
1525.848494942502 5147.073418221944
1526.624515153595 5081.95469648118
1527.4003467554485 5154.325020332515
1528.175989798534 5310.3823692938095
1528.9514443333064 5101.133979149774
1529.726710410203 5448.1210612681525
1530.5017880796331 4990.285243526125
1531.276677391992 5077.349721878289
1532.0513783976457 5340.857407437027
1532.825891146953 5238.518714912689
1533.6002156902414 5243.415585968884
1534.3743520778207 5251.973750005064
1535.1483003599806 5258.092164060461
1535.9220605869923 5102.874791056909
1536.6956328091019 5236.184590496376
1537.4690170765407 5127.747303025343
1538.242213439511 5352.40077624552
1539.015221948208 5271.740035785129
1539.78804265279 5086.745616708867
1540.560675603405 4990.317088516911
1541.3331208501804 5546.084867540228
1542.1053784432224 5412.039048260432
1542.8774484326168 5384.654934158525
1543.649330868422 5229.230901268258
1544.4210258006842 5303.7042818221835
1545.1925332794308 5335.3404771442665
1545.9638533546604 5221.785578288177
1546.7349860763552 5107.187904910947
1547.5059314944829 5652.250839602021
1548.27668965898 5297.430824377308
1549.0472606197673 5472.418568760775
1549.817644426752 5266.271544035703
1550.5878411298072 5418.923876734375
1551.3578507787988 5325.927559464648
1552.1276734235635 5217.59852511222
1552.8973091139233 5359.093715262524
1553.6667578996767 5506.535783570273
1554.436019830604 5413.822071785378
1555.20509495646 5474.290497899546
1555.9739833269869 5269.767313718025
1556.7426849919011 5153.773595593
1557.511200000903 5721.558792218638
1558.2795284036674 5509.302623859039
1559.0476702498509 5471.502903365874
1559.8156255890954 5604.889802623775
1560.5833944710157 5641.530439591919
1561.3509769452048 5333.085132291141
1562.1183730612447 5400.936009246763
1562.8855828686865 5464.930450292343
1563.6526064170703 5770.190003329864
1564.4194437559127 5704.124603641125
1565.1860949347047 5263.495340129867
1565.9525600029283 5829.402845646948
1566.7188390100328 5705.684175810478
1567.4849320054564 5468.134104820843
1568.250839038612 5377.799553568786
1569.0165601588997 5365.839386573668
1569.7820954156887 5669.303269461378
1570.5474448583373 5437.223702860845
1571.31260853618 5264.386075927179
1572.0775864985299 5252.060461940217
1572.8423787946813 5486.982654303811
1573.6069854739108 5276.720904075855
1574.371406585471 5596.527058223092
1575.1356421785986 5520.544392336012
1575.899692302506 5408.833914109513
1576.6635570063845 5457.874912216478
1577.4272363394157 5315.166675619375
1578.190730350747 5289.13914420916
1578.9540390895163 5263.765736686629
1579.7171626048384 4987.8057716092835
1580.480100945806 5201.615317986618
1581.2428541614918 5217.848944802065
1582.0054223009538 5206.006313591806
1582.767805413223 5289.451376269795
1583.5300035473156 5166.604493534359
1584.292016752228 5326.271438395525
1585.0538450769309 5247.7051752135085
1585.8154885703807 5054.380982840554
1586.5769472815136 5230.921155361497
1587.3382212592405 5247.187865331345
1588.099310552463 5504.279476364904
1588.8602152100484 4861.412897293448
1589.6209352808564 5355.120329272357
1590.3814708137234 5254.832835985456
1591.14182185746 5147.82467213872
1591.9019884608679 5219.6112465348
1592.6619706727215 4862.824350427776
1593.4217685417734 5241.438319317204
1594.1813821167616 5536.743851057025
1594.9408114464022 4908.21071709128
1595.7000565793933 5177.862283318292
1596.459117564409 5266.894259015012
1597.2179944501113 5083.8183577657455
1597.9766872851324 5083.845789068635
1598.735196118092 5328.275027933241
1599.4935209975883 5435.602263540824
1600.2516619721973 5488.395096555259
1601.0096190904787 5108.354666237801
1601.7673924009723 5193.186431445893
1602.524981952196 5155.868668076328
1603.2823877926476 5126.964121870655
1604.0396099708087 5117.709911876053
1604.7966485351371 5012.903532574873
1605.5535035340745 5177.650600880288
1606.3101750160404 5376.42351007667
1607.0666630294363 5120.143630453782
1607.822967622642 4814.000859200874
1608.5790888440224 5120.734747125827
1609.3350267419137 5237.046134253795
1610.0907813646445 5163.891990667152
1610.8463527605145 5230.198017045437
1611.601740977805 5268.861087895905
1612.356946064785 5206.280305165844
1613.1119680696902 4841.576492359197
1613.8668070407512 5003.286696888667
1614.6214630261748 5077.390326192688
1615.375936074137 5062.396491054203
1616.1302262328118 5119.088186977315
1616.8843335503425 5074.365861637449
1617.638258074854 4920.727528569359
1618.391999854457 5056.858253945932
1619.1455589372363 5159.542088563967
1619.8989353712623 5099.343052886574
1620.65212920458 4673.427650930112
1621.4051404852235 4969.031111289192
1622.1579692611976 4973.094809448979
1622.9106155804966 4773.179691076612
1623.663079491087 4941.3576804684535
1624.4153610409248 4998.183711318321
1625.1674602779385 4825.8599133766165
1625.9193772500403 4742.180867734021
1626.6711120051277 5173.42821983765
1627.4226645910676 4960.180037318364
1628.174035055721 4690.450461743489
1628.9252234469168 4916.1649137233135
1629.676229812474 4764.062682990775
1630.4270542001905 5439.01947322107
1631.1776966578382 4964.678555448948
1631.9281572331747 4901.814167680079
1632.678435973945 4818.799217613206
1633.4285329278573 4887.611680773328
1634.1784481426203 4659.792130795463
1634.9281816659113 4943.348881786413
1635.677733545388 5131.141704206653
1636.4271038286934 4780.110540993373
1637.176292563452 4966.111348632659
1637.9252997972635 4873.78109848834
1638.674125577716 5064.119097043409
1639.4227699523672 5372.248685230314
1640.171232968767 4690.83866019951
1640.9195146744423 4995.46167809305
1641.6676151168977 5056.123461211794
1642.4155343436178 5090.502635026301
1643.1632724020765 5031.605670943927
1643.9108293397167 4963.798915254849
1644.658205203974 4876.731634250022
1645.4054000422566 5476.3596996396245
1646.1524139019566 5091.233894129355
1646.8992468304423 4958.018602882761
1647.6458988750728 4977.159258605951
1648.3923700831765 5087.566480469
1649.1386605020743 4942.7520352109495
1649.8847701790564 5208.758448240133
1650.6306991614038 5135.276384256254
1651.3764474963682 5166.678340157364
1652.1220152311944 4785.699693778429
1652.867402413096 5077.5763582071795
1653.6126090892776 5017.674384384325
1654.3576353069184 5418.999996025568
1655.1024811131829 5112.0696570780265
1655.8471465552066 5057.347541474929
1656.5916316801213 5289.797369765172
1657.3359365350298 5089.26198126492
1658.0800611670165 5040.864206063818
1658.824005623148 5023.465273690081
1659.5677699504722 4885.860615882765
1660.3113541960192 5109.080197871071
1661.054758406799 5007.899305022795
1661.7979826297997 4800.891402898733
1662.5410269119966 4660.732713289973
1663.283891300338 5068.254497897339
1664.0265758417645 4768.818251652878
1664.7690805831826 4845.600839285942
1665.5114055714948 5013.480886784449
1666.2535508535748 5120.482653213522
1666.9955164762814 4484.784308162598
1667.7373024864555 4736.109702437397
1668.478908930916 4761.072611719037
1669.220335856462 4417.858291009847
1669.9615833098778 4505.314946513248
1670.7026513379296 4429.227589667777
1671.44353998736 4511.75063791175
1672.1842493048916 4511.969069049984
1672.9247793372379 4438.388419482853
1673.6651301310812 4487.757473945878
1674.4053017330934 4287.780916472324
1675.1452941899242 4498.573194857652
1675.885107548207 3966.0634564921083
1676.6247418545518 4103.348157176879
1677.3641971555535 4292.381336594057
1678.1034734977893 4409.043845601657
1678.8425709278108 4226.168664609881
1679.5814894921605 4529.884932389297
1680.320229237359 4167.1478966892955
1681.0587902098978 4326.117711012835
1681.7971724562685 4177.688923100331
1682.5353760229264 4138.494376217048
1683.2734009563173 4144.650295505246
1684.0112473028657 4020.244739020909
1684.7489151089794 4092.832065018102
1685.4864044210462 4105.6692018999765
1686.2237152854377 3788.368519264341
1686.960847748498 4111.018406749119
1687.6978018565642 3884.157400464187
1688.434577655944 3857.100608170977
1689.1711751929379 3896.1357656570362
1689.9075945138156 3832.9469869279064
1690.6438356648396 3757.271469151885
1691.3798986922448 3409.3580116785283
1692.1157836422499 3714.3376081781303
1692.851490561059 3644.4016093273594
1693.587019494853 3628.7458783352727
1694.3223704897991 3489.5226400336346
1695.0575435920364 3295.1615008157314
1695.792538847696 3924.1214749707674
1696.527356302886 3530.048574050989
1697.2619960036936 3330.7136255239047
1697.9964579961907 3395.9575711940365
1698.730742326432 3034.0531547841188
1699.4648490404488 3133.0273138627067
1700.1987781842563 3379.396949341306
1700.9325298038548 3524.249150743981
1701.6661039452174 3632.6742549621567
1702.3995006543082 3261.4653755788468
1703.1327199770658 3472.908524455316
1703.865761959416 3177.076840513485
1704.598626647261 3572.1974789008973
1705.3313140864866 3086.465299597986
1706.0638243229587 3143.6303282432978
1706.7961574025303 3444.2398871987375
1707.528313371029 3166.8422029150215
1708.260292274268 2830.506606661827
1708.9920941580403 3152.69445562923
1709.7237190681226 3169.6790150384963
1710.4551670502697 3100.622766026638
1711.18643815022 2762.5407621602208
1711.9175324136959 3422.7314979795165
1712.6484498863938 3014.038654431062
1713.379190614005 2845.3471413668217
1714.109754642188 2944.6036901970647
1714.8401420165883 2985.5541195758424
1715.570352782839 3223.065754855882
1716.3003869865497 3062.9796872075167
1717.0302446733076 2915.3211011980775
1717.7599258886876 2933.6147725044493
1718.4894306782444 3245.140960877689
1719.2187590875183 2939.4942800212966
1719.9479111620203 3087.75773467266
1720.6768869472544 2883.8948532106133
1721.4056864887025 3139.450853222481
1722.1343098318284 3223.1046666581797
1722.8627570220742 2938.6331222200924
1723.591028104871 2750.4800395287207
1724.3191231256242 2742.2437447932475
1725.0470421297232 2975.954884537397
1725.7747851625427 3018.6751382844664
1726.5023522694337 3086.8050897425296
1727.2297434957363 2993.5816525819046
1727.9569588867635 2750.881141832099
1728.6839984878152 3100.635780316391
1729.4108623441734 2494.955709506573
1730.1375505011038 2966.146071448781
1730.8640630038426 2809.014056319174
1731.5903998976264 2671.6817372245087
1732.316561227657 2931.1130071110524
1733.0425470391274 2817.7492787864276
1733.7683573772065 2827.1960797487723
1734.4939922870508 2809.3364868689478
1735.2194518137949 2762.44739670524
1735.9447360025606 2897.292771548742
1736.669844898439 2798.95863574215
1737.3947785465189 2678.8431429403386
1738.1195369918605 2596.451948258859
1738.8441202795093 2736.889150345943
1739.5685284544943 2756.4771308756904
1740.292761561821 2843.274371782956
1741.0168196464838 2886.3925617744667
1741.7407027534518 2847.5069318039987
1742.464410927687 2876.833954747144
1743.187944214118 2771.2391832329404
1743.9113026576688 2582.730060945535
1744.634486303241 2729.1294758291615
1745.3574951957125 2692.1576211940783
1746.0803293799509 2770.754017971529
1746.8029889008048 2577.6848908098023
1747.5254738031017 2988.1738502821095
1748.2477841316504 2567.364525837908
1748.969919931249 2682.7649822664616
1749.6918812466665 2593.4074984292834
1750.4136681226646 2973.0959989006888
1751.1352806039777 2820.343917979275
1751.856718735331 2616.1509249255228
1752.5779825614281 2662.5019749148887
1753.2990721269507 2786.809781347695
1754.0199874765676 2869.390708211446
1754.7407286549314 2422.9161190581153
1755.4612957066693 2755.5351696133025
1756.1816886763954 2672.3330102336618
1756.9019076087097 2716.862447186025
1757.6219525481865 2758.014918228745
1758.3418235393856 2830.2087436189895
1759.061520626854 2830.963718248426
1759.7810438551096 2815.0752852733854
1760.5003932686614 2560.7962978545957
1761.2195689119999 2893.689267579207
1761.938570829594 2551.4410607612954
1762.657399065898 2632.916475721123
1763.376053665348 2508.85664743078
1764.0945346723602 2481.5221362094376
1764.812842131334 2784.7470997355604
1765.5309760866512 2419.399645982647
1766.2489365826787 2527.1852594678344
1766.9667236637597 2718.1188885788365
1767.684337374223 2332.3435912351597
1768.401777758383 2292.0811596660965
1769.1190448605284 2486.0385805523856
1769.836138724937 2459.4873593051316
1770.5530593958665 2644.676706887915
1771.2698069175603 2757.244462269514
1771.9863813342326 2616.461698381419
1772.702782690094 2470.469554313341
1773.4190110293293 2669.6886904662997
1774.1350663961111 2712.804703833477
1774.8509488345844 2472.505468247299
1775.5666583888924 2570.994335834667
1776.2821951031437 2756.5918184423617
1776.9975590214362 2587.362889511832
1777.7127501878585 2914.0304711481676
1778.4277686464684 2642.312104865036
1779.1426144413108 2948.1301302233196
1779.8572876164162 2687.5775074786493
1780.571788215797 2565.615546384659
1781.2861162834415 2625.95779879736
1782.0002718633277 2452.412016369603
1782.7142549994132 2532.1420118337514
1783.4280657356376 2690.9191110946713
1784.141704115922 2395.6679461304875
1784.855170184177 2517.132551272056
1785.5684639842839 2649.935026243272
1786.2815855601148 2364.0035347210096
1786.9945349555237 2532.3657283183275
1787.707312214343 2437.90756566578
1788.4199173803918 2747.034744304379
1789.132350497468 2408.043081030265
1789.8446116093583 2489.197874209139
1790.556700759822 2500.8004689574855
1791.2686179926077 2292.833113568356
1791.9803633514493 2528.4033385703588
1792.6919368800554 2229.4900295172233
1793.4033386221236 2644.235535317632
1794.1145686213295 2531.0255250917
1794.8256269213307 2823.3385158155897
1795.536513565774 2608.440380985391
1796.247228598284 2196.310867380729
1796.9577720624693 2385.7194627165763
1797.6681440019165 2476.075173969553
1798.3783444602013 2513.9050440973647
1799.0883734808776 2588.7464137740653
1799.7982311074884 2608.379403836227
1800.5079173835475 2396.171300431845
1801.2174323525633 2794.1579260385324
1801.9267760580187 2513.7333198622255
1802.635948543386 2489.809650630514
1803.3449498521113 2275.5745611453344
1804.0537800276325 2566.592556023772
1804.7624391133668 2403.4115484865174
1805.47092715271 2254.965681852833
1806.1792441890484 2251.461268251923
1806.8873902657433 2541.684260621282
1807.5953654261448 2365.8189199154085
1808.3031697135812 2395.7666219483526
1809.0108031713662 2472.306186960238
1809.71826584279 2544.7391501764596
1810.425557771141 2418.2118000090186
1811.1326789996747 2935.294165477498
1811.839629571632 2578.5277513691217
1812.5464095302468 2361.3380637533637
1813.2530189187182 2651.0563124839364
1813.959457780249 2341.7151243272438
1814.6657261580076 2576.4658045741407
1815.371824095153 2415.4997721119207
1816.0777516348262 2632.9998187199144
1816.78350882015 2223.73624035991
1817.4890956942272 2346.151634105218
1818.1945123001533 2298.0372431014466
1818.8997586809928 2388.9203194543975
1819.6048348798067 2345.8546422436334
1820.3097409396287 2363.8945246194444
1821.0144769034796 2612.5221477592127
1821.7190428143622 2470.2210072535795
1822.423438715261 2618.9468797795635
1823.1276646491478 2372.114155663504
1823.8317206589727 2455.1239256222966
1824.5356067876692 2414.576280102343
1825.2393230781581 2427.7347457733777
1825.942869573335 2187.011954981578
1826.646246316086 2289.2134052234824
1827.3494533492758 2409.1373044382017
1828.052490715756 2392.05246714336
1828.7553584583547 2398.574962330051
1829.458056619891 2497.7477983173612
1830.1605852431585 2272.105319846126
1830.8629443709433 2181.154641257755
1831.5651340460063 2341.321717775759
1832.2671543110919 2385.4342021785956
1832.9690052089318 2363.949638734408
1833.6706867822395 2265.820376695823
1834.3721990737104 2436.340818144625
1835.0735421260233 2579.551151230026
1835.774715981841 2404.4903875763353
1836.4757206838058 2149.5103434011116
1837.1765562745459 2401.770322911477
1837.8772227966747 2120.520113589861
1838.5777202927839 2353.2396220179185
1839.2780488054523 2298.9912673194094
1839.9782083772352 2192.607509475147
1840.6781990506806 2578.2668869247505
1841.378020868313 2374.638901284548
1842.0776738726418 2347.919451826615
1842.777158106157 2308.1646081807894
1843.4764736113375 2118.5388543077906
1844.1756204306403 2569.739617934425
1844.8745986065078 2421.12815204511
1845.5734081813607 2090.4192057945475
1846.2720491976124 2191.0679365678943
1846.970521697649 2152.587412475611
1847.6688257238511 2347.2073713872264
1848.3669613185684 2208.705560400936
1849.0649285241452 2177.437629025783
1849.7627273829057 2286.9131296942023
1850.460357937156 2486.126076333288
1851.1578202291857 2032.6061103451825
1851.8551143012664 2244.6129075597
1852.5522401956569 2415.669324663543
1853.2491979545957 2433.1038984023558
1853.9459876203055 2204.6882151682753
1854.6426092349902 2033.3440304125293
1855.3390628408451 2151.7817583748883
1856.0353484800362 2365.4785789561406
1856.7314661947203 2369.8315638582294
1857.4274160270397 2128.8732701951526
1858.123198019115 2247.300113799594
1858.8188122130487 2166.865897540321
1859.5142586509319 2373.8366153760776
1860.209537374838 2302.010066024941
1860.9046484268183 2141.566144168373
1861.599591848917 2149.2625144484314
1862.294367683151 2156.9449855079556
1862.988975971528 2115.913953177306
1863.6834167560355 2240.0990804253333
1864.3776900786452 2407.1033541848237
1865.0717959813119 2170.9592509805475
1865.7657345059724 2237.042199605517
1866.4595056945564 2210.7904519377394
1867.1531095889586 2292.8507967322817
1867.846546231076 2277.2454490346654
1868.5398156627743 2474.224083837598
1869.2329179259123 2191.848745698643
1869.9258530623283 2603.7787326977477
1870.618621113843 2206.981370994524
1871.3112221222636 2108.7247549547674
1872.0036561293764 2142.8675039787845
1872.695923176956 2300.9462941373936
1873.3880233067594 2449.564648787749
1874.0799565605212 2080.81266079516
1874.7717229799673 2178.437620676431
1875.4633226068036 2439.361288284979
1876.1547554827175 2301.9206982872183
1876.8460216493859 2222.5522925292494
1877.5371211484617 2214.642009329003
1878.2280540215852 2363.260687122734
1878.9188203103804 2127.89642695132
1879.6094200564548 2325.349288988912
1880.299853301396 2117.903671336605
1880.9901200867826 2447.7962801029325
1881.6802204541673 2212.548276996982
1882.3701544450942 2242.6011896882037
1883.059922101087 2128.610288006817
1883.7495234636517 2339.2121568169346
1884.4389585742792 2185.8746525419133
1885.1282274744517 2137.443117412495
1885.8173302056166 2199.0514325133145
1886.506266809225 2260.7454363007123
1887.195037326701 2097.1076371418662
1887.8836417994517 2353.2077638529345
1888.5720802688702 2555.185908413454
1889.260352776333 2229.60501651677
1889.9484593632042 2175.803603696527
1890.63640007082 2265.353140421985
1891.3241749405151 2047.4512080135519
1892.0117840135954 2210.7185857526056
1892.6992273313572 2208.070704954474
1893.3865049350788 2035.4668895934362
1894.0736168660223 2145.0946488738064
1894.7605631654333 2254.8187715648196
1895.4473438745408 1986.9944034862335
1896.133959034556 2368.8996634697887
1896.820408686679 2145.6907450214626
1897.506692872088 2449.4395954182637
1898.192811631945 2337.917087854393
1898.8787650073991 2325.7264459758
1899.5645530395832 2300.9339889239686
1900.2501757696118 2377.6077774283017
1900.9356332385796 2436.8942319282005
1901.620925487574 2496.464503035253
1902.3060525576602 2387.109887820565
1902.9910144898859 2322.2220267677417
1903.6758113252872 2068.230470169253
1904.3604431048789 2176.945066035919
1905.0449098696663 2222.1678029394525
1905.7292116606295 2383.352240126068
1906.4133485187394 2337.5898089171974
1907.0973204849488 1840.0787689993983
1907.7811276001976 2064.4305780070968
1908.4647699053967 2127.9488564862204
1909.1482474414588 2031.0303197856888
1909.8315602492694 2011.8452081402222
1910.5147083696957 2358.157498825582
1911.1976918436012 2283.817487115955
1911.880510711815 1971.828455435665
1912.5631650151681 2242.2024765601177
1913.2456547944657 2208.7981379602084
1913.927980090495 2036.98413653414
1914.6101409440362 2058.7296946290744
1915.2921373958416 2208.895935098196
1915.9739694866603 2027.5281750564657
1916.655637257214 2056.7998540204735
1917.3371407482136 2086.1291149749004
1918.0184800003572 2341.501859524209
1918.6996550543154 2160.590113341136
1919.3806659507554 2259.466238505328
1920.0615127303208 2288.7399163481655
1920.7421954336423 2320.7200370999744
1921.4227141013343 2329.416467126893
1922.103068773993 2191.186675355881
1922.783259492202 2405.393099610084
1923.4632862965227 2040.0582624587028
1924.1431492275078 2024.5693747045693
1924.8228483256917 2005.4376940486538
1925.5023836315922 2071.2488567572773
1926.1817551857057 1801.2288341204962
1926.8609630285227 2330.4664790265506
1927.5400072005123 2226.805002709657
1928.218887742125 2057.575358815964
1928.8976046938005 1775.7568671622423
1929.5761580959588 2223.9177744620674
1930.2545479890086 2232.0083986203067
1930.9327744133352 1904.7314787219905
1931.6108374093164 2174.194386682057
1932.2887370173066 2341.6196725186555
1932.9664732776473 2234.000991082311
1933.6440462306673 2126.053977500628
1934.3214559166754 2048.9750928419044
1934.9987023759659 2277.281610535151
1935.675785648813 2101.5854804821556
1936.3527057754836 1770.9707195271112
1937.029462796223 2257.850238854404
1937.70605675126 1995.184089841881
1938.3824876808085 2061.1182500519844
1939.058755625072 1905.360148487033
1939.7348606242267 2089.636215689769
1940.4108027184448 2074.8645508035147
1941.0865819478713 1948.7305389547269
1941.7621983526478 1822.294870630479
1942.4376519728921 1916.3169134499942
1943.1129428487038 1931.8933748901884
1943.7880710201734 2210.473645775113
1944.4630365273733 2323.3556076131345
1945.1378394103576 1828.456046278535
1945.8124797091714 1812.9690294126383
1946.4869574638324 1797.3878609358621
1947.161272714353 1994.9345905611594
1947.8354255007234 2264.2586911297276
1948.5094158629272 1986.0178779459134
1949.1832438409183 2178.3769400491674
1949.8569094746435 2140.6304353650658
1950.530412804037 2262.715224919316
1951.2037538690092 2150.274896266145
1951.8769327094578 2053.1396801432775
1952.5499493652678 2062.665884320206
1953.222803876306 2182.981898444638
1953.895496282421 1953.0347162003309
1954.5680266234522 2026.4997859375612
1955.2403949392155 2113.622860372544
1955.9126012695142 1721.9830180283993
1956.5846456541403 2161.208218531129
1957.2565281328643 1901.9006737634415
1957.9282487454457 2127.9235330538577
1958.5998075316202 2406.1749467600876
1959.27120453112 2074.3283940871124
1959.9424397836501 1970.211704836685
1960.613513328908 2239.3776252642747
1961.2844252065697 2412.8315624106563
1961.9551754563017 2086.8249375974947
1962.6257641177453 1773.0092586546045
1963.29619123054 2019.001479200424
1963.966456834296 1832.3981352553317
1964.6365609686181 1814.7875497371563
1965.306503673086 2184.123156266374
1965.976284987275 1852.2466236773412
1966.645904950734 1965.5698497189715
1967.315363603002 1871.812772928211
1967.9846609836077 1970.2945174956064
1968.6537971320486 2038.1590870888115
1969.3227720878222 2091.17177944937
1969.9915858904042 1880.456006028636
1970.660238579252 2058.936529933081
1971.3287301938108 1984.6302598856091
1971.997060773514 1707.7153086749229
1972.665230357772 1949.224581467884
1973.3332389859843 1729.816245722185
1974.0010866975335 1887.824715552093
1974.6687735317864 2131.5000498345
1975.3362995280932 2085.6988988633875
1976.003664725793 2084.441656670024
1976.6708691642052 2012.4366576297803
1977.3379128826364 1940.1668367572377
1978.004795920373 2199.2316706433503
1978.6715183166925 1929.0169499516571
1979.3380801108524 2298.4331067856974
1980.0044813420973 2038.4901614765336
1980.6707220496555 1764.3651859827155
1981.3368022727373 1859.5433531889914
1982.0027220505417 1699.1267106222524
1982.66848142225 1538.5674447922343
1983.3340804270283 1696.26997196308
1983.999519104027 2145.058697267231
1984.6647974923835 2220.485198680114
1985.329915631215 2199.6104209351497
1985.99487355963 1855.8762985457101
1986.6596713167146 2086.0535848061186
1987.3243089415428 1869.3269514997628
1987.9887864731754 2227.823919744381
1988.6531039506553 1814.0040372961241
1989.3172614130071 2199.304469703542
1989.9812588992481 2043.5436448328928
1990.645096448372 1862.2526044888887
1991.3087740993633 1922.6700562826984
1991.9722918911848 1893.0224514312472
1992.635649862792 1831.8941350255616
1993.2988480531185 2027.5863187518473
1993.9618865010852 1923.376196249255
1994.6247652455968 1819.0405417729198
1995.287484325545 1713.0494166098567
1995.9500437798033 1738.961468724389
1996.6124436472292 1765.0030121021719
1997.2746839666706 2019.599180642547
1997.936764776954 2013.8618465698626
1998.598686116895 1961.978219872106
1999.2604480252903 1900.1783237065792
1999.9220505409212 1838.1608097364508
2000.5834937025593 1729.1223299777969
2001.2447775489582 1866.7395082212338
2001.9059021188514 1931.3376460564407
2002.5668674509616 1735.031977714234
2003.2276735839987 1830.26711901141
2003.8883205566508 2170.246066941779
2004.5488084075987 1793.5441379642173
2005.2091371755014 1819.5896202410925
2005.8693068990033 1852.9937380891588
2006.5293176167397 2035.709688896529
2007.1891693673224 1712.0794039961813
2007.848862189354 1630.7704043665494
2008.5083961214223 1870.3704727483776
2009.1677712020955 1862.1219048652015
2009.8269874699254 1759.2386972517045
2010.4860449634598 2235.7894139973787
2011.1449437212177 2212.1684153844108
2011.8036837817108 2188.6016222302123
2012.4622651834325 2115.358225434507
2013.1206879648653 2062.9527512811474
2013.7789521644736 1855.0497631724634
2014.4370578207036 1646.5245826765954
2015.0950049719922 1836.4833870872571
2015.7527936567585 2075.4851479795566
2016.4104239134067 1940.1524159750334
2017.067895780323 2329.0137880780817
2017.725209295886 2316.391771450254
2018.3823644984514 2303.6782209369553
2019.0393614263648 1896.823313780357
2019.6962001179545 1729.2115957487356
2020.3528806115355 1934.9691176801996
2021.0094029454067 1637.9155789105162
2021.6657671578487 1853.7613098373945
2022.321973287133 1845.6864899614368
2022.9780213715148 1728.4272191107484
2023.6339114492293 1704.2361109108708
2024.2896435585026 1886.345518934962
2024.9452177375442 1810.8740054508235
2025.600634024544 2223.5238437360686
2026.2558924576842 2029.7239260278798
2026.9109930751292 1971.568367808993
2027.565935915025 1674.844440311327
2028.2207210155066 2158.5156470734073
2028.8753484146964 2028.4454021317765
2029.529818150695 1583.1478935001883
2030.1841302615903 1923.7850278619214
2030.8382847854573 1784.6845642047556
2031.4922817603601 1800.3188492418926
2032.1461212243357 1886.975050736043
2032.7998032154192 1638.0561200554155
2033.4533277716218 1774.7755969776827
2034.1066949309443 1555.5805442673827
2034.7599047313688 1782.314083099697
2035.4129572108704 2073.1359909662674
2036.0658524074006 2084.611463398123
2036.7185903589016 1908.7567323396638
2037.3711711032956 1878.3168804049942
2038.023594678496 1792.7668454927766
2038.675861122394 1686.2373993267108
2039.3279704728757 1613.401685400529
2039.9799227678031 1540.548345264559
2040.6317180450278 1660.0383686210014
2041.2833563423865 1849.84253136904
2041.9348376977014 1812.1783240009831
2042.5861621487784 1929.088232830161
2043.2373297334088 1738.5221579467693
2043.8883404893695 1870.95065563672
2044.5391944544208 2080.5368487807777
2045.1898916663158 2074.556362203208
2045.8404321627804 2185.8363617510545
2046.4908159815368 1726.1204241477692
2047.1410431602853 2069.9848923414065
2047.7911137367173 1994.9139724170495
2048.441027748504 1919.6598596806616
2049.090785233302 1605.2878000974506
2049.7403862287592 1771.0044634210553
2050.389830772503 1625.2665553175052
2051.0391189021466 1960.856662736614
2051.688250655294 1819.7057176257404
2052.337226069527 1671.2025532841355
2052.986045182417 1906.4519363421562
2053.634708031521 1872.9881274735828
2054.283214654375 1839.597128652263
2054.931565088511 1723.855919406816
2055.579759371436 1526.603456298998
2056.2277975406523 1708.699576665113
2056.8756796336384 1590.6288557727103
2057.5234056878617 1933.9495021587693
2058.1709757407752 1802.3752873937513
2058.8183898298194 1953.6073102419894
2059.465647992416 1925.705316414326
2060.1127502659747 1978.0925410933785
2060.759696687888 1583.9554060475111
2061.4064872955405 1947.9226455495104
2062.053122126292 1994.6924479234845
2062.699601217497 1832.4293416026344
2063.345924606485 1670.204863036517
2063.992092330587 1888.572251156632
2064.638104427102 1623.7378660134978
2065.283960933324 2098.9498480028997
2065.92966188653 1952.1797103553777
2066.5752073239855 2058.6875162500764
2067.2205972829397 1645.804990143232
2067.86583180062 1810.2971314110441
2068.5109109142522 1652.968809848037
2069.15583466104 1777.8114829651536
2069.8006030781708 1902.7721484635117
2070.445216202821 1908.2076153254543
2071.089674072153 2153.0048469422636
2071.7339767233116 1790.1979473318322
2072.3781241934303 1783.038909216871
2073.0221165196253 1891.198686617552
2073.6659537390024 1792.819818638984
2074.3096358886505 1924.085701159947
2074.953163005637 1575.3605391260924
2075.596535127028 1507.6969971756967
2076.2397522898664 1477.7524251698244
2076.882814531182 1812.062991329196
2077.5257218879924 1883.1513857902005
2078.1684743973 1487.4768329941423
2078.8110720960885 1580.2184827246515
2079.453515021336 1746.537159469317
2080.095803209997 1913.0016245595848
2080.7379366990135 1820.9050531776152
2081.37991552532 1820.6872077313699
2082.0217397258275 1781.3167686141514
2082.6634093374414 1566.908839641742
2083.3049243970418 1877.6887962914163
2083.9462849415067 1868.4813474531907
2084.587491007689 1853.6418675390803
2085.2285426324324 1866.6317464053095
2085.869439852564 1880.9049792204619
2086.510182704902 1896.9953217694456
2087.1507712262483 1913.1207444101583
2087.791205453381 1549.8338437784917
2088.4314854230743 1938.3805592900549
2089.0716111720867 1625.5006246389905
2089.7115827371617 1492.1306548153152
2090.351400155023 1540.4940553684503
2090.991063462385 1589.0217142195388
2091.6305726959527 1588.2382992207258
2092.2699278924047 1581.7027907488584
2092.9091290884153 1575.2148424035383
2093.548176320641 1759.1749104230298
2094.187069625721 1918.9914467226304
2094.8258090402887 1574.5343861884428
2095.464394600951 1711.0584125042376
2096.102826344313 1675.3969454857513
2096.741104306955 1575.0585867702325
2097.379228525453 1474.5001800850139
2098.017199036358 1452.5941559929336
2098.6550158762147 1596.220015911905
2099.2926790815527 1740.144690987283
2099.9301886888825 1962.9017112632755
2100.5675447347076 1838.4720634063422
2101.2047472555114 1807.277559515279
2101.841796287761 1776.0202983829665
2102.47869186792 1739.9591891725165
2103.1154340324265 1703.8397707560757
2103.752022817709 1685.4866522382817
2104.388458260184 1769.4536662036655
2105.024740396251 1770.2260964538914
2105.660869262292 1538.4356594633648
2106.296844894685 1931.8658905600737
2106.93266732978 1796.6385222149815
2107.5683366039284 1342.7487019000832
2108.2038527534532 1659.5678437413335
2108.8392158146726 2008.3975301898415
2109.4744258238843 1791.0747911731949
2110.1094828173755 1855.9163335108533
2110.744386831422 1836.0385791293709
2111.3791379022787 1816.1387672863289
2112.01373606619 1957.4299018242714
2112.648181359389 1760.4875676121785
2113.28247381809 1684.0781569006747
2113.916613478492 1703.1881154701896
2114.550600376786 1759.8891611694587
2115.1844345491445 1798.396374107093
2115.818116031729 1699.4048470071532
2116.451644860679 1650.032685953904
2117.085021072133 1471.2447537873902
2117.718244702204 1567.8155701812805
2118.3513157869984 1666.9276765071456
2118.984234362604 1454.4235418280603
2119.617000465092 1666.0247893079456
2120.249614130529 1654.4812689683254
2120.8820753949585 1642.922400602317
2121.5143842944162 1723.9872776957286
2122.14654086492 1563.5045294092256
2122.7785451424734 1911.5277085334637
2123.4103971630702 1920.4072309412775
2124.042096962681 1929.5186677482554
2124.6736445772767 1715.0190446878441
2125.305040042802 1722.2928440626256
2125.936283395191 1728.345866653745
2126.567374670365 1796.2297393288968
2127.198313904233 1467.4505956299536
2127.8291011326855 1415.709738661337
2128.4597363916037 1363.6923942625408
2129.0902197168507 1751.5446090298178
2129.720551144279 1870.4965118231241
2130.3507307097225 1989.4849868884303
2130.980758449008 1998.2376404502727
2131.6106343979427 1981.9605273895734
2132.2403585923203 1965.5624909122623
2132.8699310679276 1831.7679410208657
2133.499351860526 1750.2489707426842
2134.1286210058715 1894.7536062587892
2134.7577385397053 1544.5304719512978
2135.3867044977487 1936.8055482515251
2136.0155189157176 1901.7223975678633
2136.644181829308 1903.0301312277388
2137.2726932742025 1546.07302385889
2137.901053286074 1566.7533855042884
2138.5292619005777 1587.5348415577007
2139.1573191533535 1778.622984782684
2139.7852250800315 1817.9475751867074
2140.4129797162295 1820.8813033147358
2141.0405830975433 1418.217616068328
2141.6680352595613 1420.1973640720782
2142.2953362378576 1422.1970649395225
2142.9224860679915 1581.5035821719919
2143.549484785508 1652.6042910684366
2144.1763324259373 1650.4146389190005
2144.803029024799 1583.5546967799503
2145.429574617594 1554.537813845805
2146.0559692398165 1464.442151987864
2146.682212926942 1374.0841669045947
2147.308305714432 1552.9450214751798
2147.9342476377333 1868.0243224005233
2148.5600387322847 1881.8410250993861
2149.185679033506 1801.4879697194533
2149.8111685768017 1686.741017764601
2150.4365073975678 1543.9297616735862
2151.061695531187 1612.906695958235
2151.686733013021 1735.8173904841653
2152.311619878423 1699.2414892294314
2152.9363561627342 1731.7377362510713
2153.560941901278 1491.2980513315201
2154.1853771293663 1964.6548331595598
2154.809661882293 1899.479424945213
2155.433796195348 1921.2970821369358
2156.0577801037944 1792.537150701049
2156.681613642895 1955.326165630458
2157.3052968478896 1646.0947476022295
2157.928829754006 1731.6193271344769
2158.552212396462 1680.8245245158942
2159.1754448104566 1658.436570346935
2159.7985270311783 1375.9053796870462
2160.4214590938027 1433.5645070342434
2161.0442410334927 1318.5361819166658
2161.6668728853874 1390.6940919859205
2162.289354684628 1463.0412778897437
2162.911686466332 1631.282961522274
2163.533868265602 1771.3104060720493
2164.1559001175337 2002.2462023647302
2164.7777820572046 1858.6021383476752
2165.399514119681 1758.802755937004
2166.021096340013 1195.0155450670031
2166.6425287532384 1284.3818675226762
2167.263811394385 1373.969634374073
2167.8849442984574 1742.5782371906666
2168.505927500455 1401.4628502724695
2169.126761035366 1865.193766696678
2169.7474449381552 1555.1431228752913
2170.367979243778 1254.8761797517466
2170.9883639871823 1648.4576071807678
2171.608599203293 1537.869251612984
2172.2286849270276 2107.693547841622
2172.8486211932886 2196.0346253560842
2173.4684080369625 1526.8857746104302
2174.0880454929265 1512.9794226829497
2174.7075335960417 1414.4719632903823
2175.3268723811543 1769.365386281089
2175.9460618831 1583.5571802918516
2176.565102136701 1494.1051956926506
2177.1839931767627 1583.0303771696258
2177.802735038078 1672.213308588673
2178.421327755432 1559.9487554321925
2179.0397713635866 1572.657076918218
2179.658065897298 1329.0834762530292
2180.276211391305 1672.810990633318
2180.8942078803357 1491.4908588375915
2181.5120553991 1514.6161957612526
2182.129753982299 1447.9171880371434
2182.7473036646206 1696.5395044284785
2183.3647044807367 1659.509746769496
2183.9819564653044 1487.9038233967576
2184.599059652968 1796.8772713918654
2185.216014078367 1925.8877237687425
2185.832819776113 1874.2068452017108
2186.4494767808137 1822.296053764183
2187.065985127063 1794.4747113623937
2187.682344849436 1541.5238796252647
2188.298555982501 1633.071761987901
2188.9146185608097 1724.6732920972984
2189.530532618901 1643.2080343379257
2190.1462981912937 1576.569505433822
2190.761915312507 1764.2800766711503
2191.377384017036 1764.478129241997
2191.9927043393654 1706.1517841306916
2192.6078763139667 1226.223548491333
2193.2228999753006 1223.3535855260916
2193.837775357808 1220.4992543961903
2194.452502495922 1321.6405273913126
2195.0670814240602 1577.771742091707
2195.6815121766285 1539.6004565022818
2196.2957947880186 1508.8945777971217
2196.9099292926057 1478.13196462428
2197.523915724758 1725.8456767340097
2198.137754118825 1578.9791667064176
2198.7514445091456 1770.9333233923821
2199.3649869300443 1414.1779006695003
2199.9783814158327 1759.8721667919567
2200.5916280008096 1743.349523809622
2201.2047267192593 1726.8252777795835
2201.8176776054515 1611.1302391105546
2202.430480693649 1682.6089676745316
2203.0431360180955 1677.8284791252433
2203.6556436130195 1887.4636854597709
2204.268003512645 1473.205419379578
2204.8802157511727 1659.5319226246527
2205.492280362796 1825.4916212228968
2206.1041973816937 1573.3710733201651
2206.715966842032 1614.9403871586705
2207.3275887779655 1469.8056592323514
2207.93906322363 1616.561499546798
2208.550390213153 1859.1705976690268
2209.1615697806465 1690.5605962204602
2209.7726019602105 1192.7918302246132
2210.3834867859277 1329.0950823939916
2210.9942242918787 1771.790369375472
2211.6048145121167 1480.1882878053693
2212.2152574806914 2129.4772778239844
2212.825553231638 1562.025827639051
2213.435701798975 1531.6763283939695
2214.045703216707 1501.4605836531068
2214.655557518832 1341.0972492098251
2215.2652647393297 1272.8277075975768
2215.874824912169 1163.4546145639374
2216.4842380713 1599.571100844204
2217.09350425067 1657.028526052823
2217.7026234842033 1752.4300476042358
2218.311595805819 1848.0485112468166
2218.9204212494133 1654.6586516142938
2219.52909984888 2062.5281518438787
2220.137631638092 1943.0877269001353
2220.7460166509154 1823.2768385122374
2221.354254921198 1703.14483411095
2221.9623464827764 1605.7053431098516
2222.5702913694713 1615.8127278752027
2223.178089615096 1786.9828636232112
2223.7857412534486 1484.9777964783877
2224.39324631831 1281.7979262387182
2225.000604843457 1451.6475647062475
2225.607816862641 1538.035870826902
2226.214882409611 1624.4782140333086
2226.8218015180973 1752.8567830148531
2227.4285742218217 1402.574712370209
2228.0352005544864 1697.1707334323885
2228.6416805497847 1310.0688737346795
2229.248014241399 1517.9142479716982
2229.8542016629945 1196.9451563206997
2230.460242848223 1718.2231570894887
2231.0661378307304 2229.9826115234655
2231.671886644139 1576.516380917888
2232.277489322065 1427.8618484753065
2232.8829458981127 1582.874344585576
2233.48825640587 1738.0945887512512
2234.0934208789095 2092.9526753699893
2234.6984393507955 1845.2722071634835
2235.3033118550793 1916.523924692296
2235.9080384252975 1580.9638070023855
2236.5126190949723 1334.0083787366289
2237.1170538976166 1381.826016728671
2237.721342866729 1391.7277217758408
2238.32548603579 1401.6477536692894
2238.9294834382763 1544.8431229295406
2239.533335107646 1355.525537640045
2240.1370410773434 1440.9345341653736
2240.740601380803 1526.4722983895842
2241.3440160514474 1529.150735937133
2241.9472851226783 1623.0245425605829
2242.550408627896 1726.6458380347206
2243.1533866004793 1830.4695677212683
2243.756219073799 1554.9168010092083
2244.3589060812064 1332.0184927325874
2244.961447656049 1488.2669275871845
2245.5638438316564 1601.96820847468
2246.166094641343 1554.6606784931887
2246.7682001184166 1405.1181310088343
2247.3701602961664 1624.4181164399183
2247.971975207871 1692.7999748817244
2248.5736448867974 1811.782354515848
2249.175169366197 1694.534068850015
2249.7765486793123 1431.1551998382288
2250.3777828593684 1748.0152489394063
2250.9788719395783 1908.7692029354416
2251.579815953146 1576.0240988856617
2252.1806149332606 1360.6551050331877
2252.781268913097 1410.7637083077923
2253.381777925817 1217.3859308477777
2253.9821420045737 1629.2425475644482
2254.5823611825035 1859.134619169762
2255.1824354927303 1435.222749320891
2255.782364968365 1424.2098182796215
2256.38214964251 1413.2260214108924
2256.9817895482483 1390.2741464535536
2257.5812847186553 1351.5717970692172
2258.180635186791 1312.8540862917882
2258.779840985704 1542.5292018089247
2259.37890214843 1406.9178113432406
2259.97781870799 1529.4312591189266
2260.5765906973957 1652.1763323569285
2261.175218149645 1326.1869047154587
2261.773701097718 1323.5761871532507
2262.3720395745895 1320.9260635193982
2262.970233613216 1125.3280335710924
2263.568283246548 1235.2215705684334
2264.1661885075137 1357.3535782819667
2264.763949429038 1491.7504259696484
2265.3615660440246 1402.5024287565902
2265.959038385374 1754.23351245217
2266.5563664859637 1672.690896419399
2267.153550378669 1537.1220279879137
2267.7505900963424 1622.119237335646
2268.3474856718312 1469.7388438321618
2268.9442371379664 1576.3898750473606
2269.5408445275643 1584.8834708051977
2270.1373078734377 1593.4430278120647
2270.7336272083758 1459.002406754476
2271.32980256516 1425.3275166053231
2271.925833976562 1580.0869243313514
2272.5217214753357 1528.7483746585197
2273.117465094223 1477.2764320052347
2273.7130648659586 1417.2291382220062
2274.308520823257 1369.3677272175862
2274.903832998827 1715.7614199650245
2275.4990014253563 1388.9902907280982
2276.094026135528 1816.2864387082914
2276.6889071620117 1820.267686520249
2277.2836445374614 1824.1734370111303
2277.878238294519 1514.6332845803095
2278.472688465812 1388.8161038241783
2279.066995083962 1262.762106242309
2279.6611581815705 1407.9176616032123
2280.255177791232 1727.144412096924
2280.8490539455233 1523.4803100278546
2281.442786677013 1928.980518782245
2282.0363760182554 1806.2776468504144
2282.6298220017943 1403.097631636789
2283.223124660155 1428.7481318117566
2283.816284025859 1454.531375098071
2284.4093001314086 1860.967894106987
2285.002173009292 1694.9620423885813
2285.5949026919952 1528.563095375785
2286.1874892119777 1395.4588124662903
2286.7799326016993 1513.193567653212
2287.3722328936 1346.6172171372532
2287.964390120109 1094.6547662536361
2288.556404313642 1490.8858237817592
2289.1482755066027 1985.4300663617607
2289.7400037313873 1537.5155952569114
2290.3315890203703 1447.1713841029118
2290.9230314059205 1355.1167343203138
2291.5143309203904 1262.954973247191
2292.1054875961236 1390.6535581964313
2292.6965014654506 1746.7476831697284
2293.287372560684 1613.7226575157183
2293.878100914131 1552.7256478032803
2294.468686558086 1491.6483712770282
2295.059129524827 1572.8246073098637
2295.649429846617 1840.4717293921374
2296.239587555716 1770.704456205535
2296.8296026843636 1912.923986453471
2297.419475264791 1591.326762064145
2298.0092053292137 1740.6348436080557
2298.598792909839 1546.8928082442853
2299.1882380388597 1637.755756023257
2299.777540748455 2004.2480954706684
2300.3667010707904 1747.3890817448737
2300.9557190380256 1613.649208089148
2301.544594682302 1509.38860356453
2302.1333280357503 1404.992374078311
2302.721919130485 1661.2645256730962
2303.3103679986198 1961.3465631128443
2303.898674672242 1882.2753635192325
2304.486839183437 1760.6324629310966
2305.0748615642697 1638.9840916145108
2305.6627418468015 1332.500901095852
2306.2504800630704 1550.4396608944946
2306.8380762451143 1476.2027872938882
2307.425530424949 1655.9976231148462
2308.012842634582 1836.192233185701
2308.6000129060103 1924.2850637972253
2309.187041271214 1773.7666631382722
2309.773927762164 1622.933047470662
2310.3606724108213 1613.4601282582398
2310.9472752491274 1588.5153894720079
2311.5337363090184 1563.5430642790407
2312.120055622414 1630.8666430097624
2312.706233221221 1418.5234410021753
2313.2922691373424 1654.5871798698486
2313.8781634026564 1372.808682515814
2314.463916049037 1573.219385896349
2315.049527108342 1647.4643331641691
2315.6349966124235 1886.4956359400962
2316.2203245931123 1723.854937502748
2316.8055110822315 1620.2034991041196
2317.3905561115935 1516.2864953348849
2317.9754597129977 1205.3871250099428
2318.560221918229 1325.1277241226849
2319.1448427590603 1445.1690459596653
2319.729322267256 1136.5328217116723
2320.313660474563 1677.9870536677092
2320.8978574127195 1534.5766974603016
2321.481913113452 1390.8634356537223
2322.0658276084705 1427.8331724079464
2322.6496009294806 1580.2232950504063
2323.233233108165 1913.7534589785312
2323.8167241762058 1790.7840455553091
2324.4000741652617 1643.9098238107413
2324.983283106987 1908.1185401807033
2325.5663510330232 1775.8605774160333
2326.1492779749933 1356.8417367156046
2326.7320639645204 1472.7599906898554
2327.3147090332004 1293.4973318369025
2327.897213212629 1322.290486857988
2328.4795765343843 1351.0225556886594
2329.0617990300307 1407.6315890052608
2329.643880731124 1694.3418792879206
2330.22582166921 1573.6381854023894
2330.807621875816 1402.0633487634555
2331.3892813824623 1230.334463499602
2331.9708002206517 1309.5048322182606
2332.5521784218818 1501.8531047784677
2333.133416017634 1694.656798730457
2333.7145130393765 1492.2222775743494
2334.295469518571 1469.9796653508474
2334.876285486658 1645.5521585881197
2335.456960975076 1338.3254297972035
2336.037496015242 1582.5646267776326
2336.6178906385667 1401.2663313079418
2337.198144876451 1304.3861683152077
2337.778258760278 1207.2864305816897
2338.3582323214214 1009.4886375224894
2338.938065591243 1808.4225484493084
2339.517758601087 1949.8694827034203
2340.0973113822965 1521.1955824006754
2340.676723966193 1498.6381663080397
2341.255996384094 1394.8441788221419
2341.835128667295 1672.8153950286971
2342.4141208470883 1593.1956140035386
2342.992972954751 1483.975878587457
2343.5716850215467 1228.8861360084115
2344.1502570787306 973.2505003763911
2344.7286891575386 1373.6812086255295
2345.3069812892045 2007.710959629671
2345.885133504944 1830.094562032857
2346.4631458359618 1651.2042800425957
2347.04101831345 1471.964543912099
2347.6187509685915 1640.2528336816729
2348.196343832553 1424.927158039543
2348.7737969364935 1329.7871418601849
2349.351110311558 1369.0491126589325
2349.9282839888765 1469.5754090681853
2350.5053179995757 1360.4219097091568
2351.0822123747585 1406.9592362459243
2351.658967145526 1331.0217911547225
2352.2355823429643 1255.0344715675917
2352.812057998144 1719.4955696137156
2353.3883941421263 1310.1246463084233
2353.9645908059647 1738.7674946161437
2354.540648020693 1781.1065332817811
2355.116565817336 1344.2530137155009
2355.6923442269126 1659.7601787971912
2356.2679832804224 1331.3196458367395
2356.8434830088518 1249.6514058793841
2357.41884344318 1452.7036361570908
2357.994064614377 1546.2630031080507
