#exp_cfg={"servo_angle": 0.0, "laser_lim": 100.0, "servo_angle_to": 18.0, "laser_wup": 0.0, "bt_dev": "EnSpectr-25AE3", "laser_wdn_max": 0.0, "frames": 10.0, "servo_used": 0, "servo_calib_use": 0, "laser_wdn_min": 0.0, "servo_pix_from": 90.0, "cooler_tout": 300.0, "servo_angle_from": 0.0, "servo_calib": "[-1.9174921013161362e-09, 3.9322238269163779e-05, -0.27385609119055809, 653.59552119713567]", "laser_autoctl": 0, "servo_pix_to": 3682.0, "laser_pw": 100.0, "cooler_on": 0, "laser_volt": 4.0, "cooler_autoctl": 0, "cooler_curr": 70.0, "cooler_startup": 10.0, "laser_fixed_pw": 0, "gain": 1.3, "offset": 2.53059635486, "servo_calib_degree": 3.0, "laser_curr": 55.0, "shutter": 8200.0, "servo_calib_step": 1.0, "laser_fixed_curr": 0, "exp": 2000.0, "ccd_volt": 4.7, "bt_addr": "00:06:66:62:5A:E3", "servo_delay": 500.0, "laser_autooff": 1}
#proc_cfg={"flat_auto_wnd": 200.0, "flat_auto_fr": 200.0, "flat_auto_shift": 5.0, "yconv": 1, "flatten": 1, "flatten_strength": 100.0, "xfrom": 300.0, "auto_max_frame": 2000.0, "auto_signal": 48000.0, "flat_auto_tol": 0.1, "autoclip": 1, "xrel_range": 0.0, "flat_auto_to": 4000.0, "intensity_adj": 1.0, "xrel": 7852.0, "rmhot": 1, "flat_auto_slit": 4.999999999999997, "auto_ini_exp": 300.0, "auto_off": 0, "xto": 2860.0, "flat_auto_ref": "", "flat_auto_rank": 1, "autobackg": 0, "xrel_adj": 0.0, "auto_black_lvl": 1, "base_wnd": 100.0, "sub_baseline": 0, "xconv": 2, "auto_max_exp": 1000.0, "auto_total_exp": 10000.0, "auto_exp": 0, "rmripple": 0, "black_lvl": 8283.65, "shutter_clip_adj": 0.0, "auto_bckg": 0, "flat_auto_thr": 0.9, "subbackg": 1}
316.8218498245369 12608.493466403186
317.89969571804795 12401.165388988049
318.977263876126 12375.125062428748
320.05455438786703 12251.198121931051
321.1315673423287 12339.198341859128
322.2083028285215 12377.148221866799
323.2847609354267 12273.52100205552
324.3609417519747 12185.252574698516
325.43684536705587 12237.925966236582
326.5124718695279 12147.427245008153
327.58782134820103 12281.131970123219
328.66289389184385 12182.231189405155
329.7376895891921 11992.97283151021
330.8122085289342 12028.119651529534
331.88645079971866 12051.401022855698
332.9604164901575 11929.192577840224
334.03410568881554 11934.079873840414
335.1075184842266 12148.90082938009
336.18065496487543 11827.51992860998
337.2535152192122 11993.163910209167
338.32609933564163 11908.396228860252
339.39840740253203 11861.28524900193
340.4704395082099 11785.743792527543
341.5421957409617 11757.596081576981
342.6136761890357 11890.535942786562
343.6848809406365 11738.272512665772
344.75581008392874 11641.995853110227
345.82646370703696 11704.700245992433
346.8968418980512 11673.535919745775
347.96694474501055 11677.366966709833
349.0367723359268 11588.854838422276
350.106324758759 11616.504739640028
351.1756021014353 11504.801008625054
352.2446044518383 11604.474405391267
353.31333189781435 11610.656331794713
354.38178452716966 11546.025272278535
355.449962427665 11543.444342552637
356.51786568702846 11496.653653852725
357.58549439294256 11646.89358415527
358.6528486330535 11593.9935683502
359.71992849496564 11538.524827226118
360.7867340662433 11462.011860314897
361.8532654344144 11468.567359479683
362.9195226869597 11611.372243574648
363.9855059113288 11345.21994959426
365.05121519492604 11440.155513429423
366.11665062511565 11511.553895324743
367.1818122892273 11455.760314954894
368.2467002745434 11408.145890994285
369.31131466831175 11420.440608367242
370.375655557742 11367.719422435845
371.4397230299983 11430.005502365626
372.5035171722102 11368.843658370302
373.5670380714637 11357.565646953397
374.6302858148101 11491.861491417407
375.6932604892554 11383.704801938997
376.7559621817709 11395.874759559652
377.81839097928605 11243.714251960102
378.8805469686886 11323.048202340937
379.94243023683157 11285.670297224713
381.0040408705263 11406.535024879104
382.0653789565458 11225.404578912134
383.1264445816196 11267.163713034284
384.1872378324406 11181.085980817663
385.2477587956637 11214.142427069168
386.3080075579037 11259.912106958987
387.3679842057336 11142.362473015435
388.4276888256918 11212.516091042007
389.48712150426945 11165.874031319505
390.54628232792857 11213.6276857291
391.6051713830857 11166.525325032791
392.66378875611736 11177.086658993861
393.7221345333637 11102.832046068528
394.7802088011249 11090.342560628333
395.838011645661 11032.77921664317
396.89554315319765 11060.562840199718
397.9528034099112 11018.285166650378
399.00979250194723 10932.328556231681
400.06651051541485 10993.124208720785
401.1229575363741 11046.847694701537
402.17913365085224 10916.301127549052
403.23503894483656 11000.496137435128
404.2906735042761 10875.134383335131
405.3460374150818 10842.189592538196
406.401130763119 10828.37140024054
407.455953634224 10902.499042096582
408.5105061141876 10902.56394248944
409.56478828876243 10668.32492629838
410.6188002436629 10754.166683147003
411.6725420645689 10762.268260223127
412.72601383711117 10826.707231832896
413.77921564689314 10822.936051030636
414.8321475794728 10727.613629822175
415.88480972036814 10728.316329093828
416.93720215506437 10781.053691596293
417.9893249690049 10724.432773522367
419.04117824759123 10587.562188387517
420.09276207619223 10582.775314026283
421.144076540133 10593.905656165814
422.1951217247042 10587.488763627198
423.24589771515275 10584.729451579453
424.2964045966928 10585.5144563739
425.34664245449494 10567.215101885913
426.3966113736933 10538.988641840075
427.4463114393875 10510.777073135225
428.49574273662984 10564.884252671094
429.5449053504417 10396.929486621459
430.5937993658026 10528.715193920747
431.6424248676558 10364.8449722448
432.6907819409007 10410.516839608006
433.73887067040596 10474.272655032079
434.7866911409965 10535.851551413223
435.8342434374608 10386.541123002333
436.88152764455117 10381.975459208907
437.9285438469724 10344.495540241121
438.9752921294057 10277.531467377416
440.02177257648145 10255.980156700774
441.06798527279716 10211.077108121051
442.1139303029122 10344.69243744523
443.1596077513459 10399.216169645058
444.2050177025794 10239.846851646911
445.25016024105753 10254.663045015708
446.2950354511886 10209.630730224158
447.33964341733736 10232.281168740643
448.383984223834 10204.53928417942
449.4280579549686 10094.30598065408
450.471864694995 10166.578054066145
451.5154045281306 10232.011467489072
452.5586775385509 10124.638363298063
453.60168381039693 10172.572183694461
454.64442342776783 10144.256374020126
455.6868964747264 10160.693884330234
456.7291030353008 10093.271865762705
457.77104319347563 10175.309381213068
458.8127170332027 10092.012240822041
459.854124638392 10113.517839086679
460.895266092919 10169.837453943
461.93614148061897 10072.052956753862
462.97675088529104 10202.728871836012
464.01709439069236 10173.461765795657
465.0571720805492 10080.789684845822
466.0969840385442 10077.249125583035
467.1365303483253 10213.828492896986
468.17581109350067 10110.560171622874
469.2148263576437 9976.991839883025
470.2535762242878 10049.584773221784
471.29206077693016 10094.832785609044
472.33028009902773 10122.063352445435
473.3682342740012 10170.516677254524
474.40592338523857 10096.330854726044
475.4433475160804 10120.421697668573
476.4805067498364 10116.377240301204
477.51740116978 10113.550260802613
478.5540308591426 10212.985633953036
479.59039590112116 10223.885523602677
480.6264963788726 10138.886520736825
481.6623323755193 10300.096802376127
482.6979039741436 10307.720084419923
483.7332112577915 10354.48136278424
484.76825430947247 10463.926840699995
485.80303321215797 10443.69064049362
486.837548048783 10500.485094461283
487.8717989022425 10594.222784838897
488.90578585539697 10713.372548225037
489.9395089910686 10715.082191147361
490.97296839203955 10675.147740128345
492.00616414106116 10641.453688264917
493.0390963208429 10667.629392124007
494.0717650140559 10680.663416652536
495.10417030333883 10653.905454451891
496.1363122712901 10715.922141661806
497.16819100046814 10628.986150198607
498.1998065734024 10508.16689467366
499.2311590725767 10460.87230508042
500.26224858044407 10429.72700340458
501.2930751794156 10324.669152771487
502.3236389518679 10353.06859000248
503.35393998014115 10179.905067407533
504.38397834653733 10139.820059345504
505.4137541333221 10200.746409852223
506.4432674227228 10061.913199593746
507.4725182969323 10006.98051453065
508.5015068381035 9955.034431177144
509.53023312835467 10041.873360605403
510.55869724976765 9880.203629350452
511.58689928438434 9800.374423795844
512.6148393142121 9814.220036425184
513.6425174212218 9868.757002839822
514.6699336873462 9870.572829286386
515.6970881944835 9881.449101487615
516.7239810244901 9806.277346666306
517.7506122591931 9819.231965525965
518.7769819803761 9796.365712969358
519.8030902697901 9833.193002330985
520.8289372091476 9896.969604187685
521.8545228801249 9999.306612530298
522.8798473643619 9858.668977361851
523.9049107434621 9949.683090714698
524.9297130989908 9957.153928031541
525.9542545124805 9926.136917842976
526.9785350654201 9954.364811030304
528.0025548392696 9949.83311883642
529.0263139154504 9937.722229090701
530.0498123753423 9964.426036427225
531.073050300296 9953.353487763608
532.0960277716204 9830.995487992164
533.1187448705896 9750.138480289996
534.1412016784416 9901.168537807102
535.1633982763833 9821.350639064567
536.1853347455726 9782.579048744461
537.2070111671401 9690.280174582698
538.2284276221817 9726.885813480787
539.2495841917516 9603.524218050752
540.2704809568677 9503.60696909174
541.2911179985167 9602.19728221027
542.3114953976419 9536.00518320347
543.3316132351592 9446.702838381852
544.3514715919409 9385.630534770604
545.3710705488247 9447.030151979452
546.3904101866156 9381.960762723491
547.4094905860784 9396.703375475696
548.4283118279418 9341.853425018428
549.4468739929034 9431.523450929371
550.4651771616191 9264.180743892224
551.4832214147063 9262.444104962613
552.501006832761 9260.773631674881
553.5185334963226 9210.35514680042
554.5358014859103 9292.44090290827
555.5528108820035 9212.928369505596
556.5695617650363 9160.140061400156
557.5860542154242 9223.694760141427
558.6022883135283 9204.800078927117
559.6182641396881 9146.252091117301
560.6339817741991 9258.199652295352
561.6494412973225 9206.924916201253
562.6646427892883 9227.87123967916
563.6795863302796 9160.868929675657
564.694272000459 9141.30559850587
565.7086998799423 9222.096796519163
566.7228700488104 9207.102809996068
567.7367825871115 9100.679250385572
568.7504375748576 9133.020122687602
569.7638350920224 9132.684000928904
570.7769752185486 9075.050279858351
571.7898580343353 9096.23582229701
572.802483619258 9078.01003407092
573.8148520531431 9196.211546951477
574.8269634157932 9169.386492036194
575.8388177869692 9097.907878910246
576.8504152463938 9101.926074306662
577.8617558737587 9245.53993934786
578.8728397487175 9159.177183806616
579.883666950891 9130.160874006637
580.8942375598654 9218.370673443664
581.9045516551851 9286.60759327529
582.9146093163617 9397.087003624676
583.924410622878 9264.710498976161
584.9339556541727 9282.533619056385
585.9432444896538 9474.217629681207
586.9522772086875 9382.752333466779
587.9610538906127 9399.214511294398
588.9695746147318 9291.264309408805
589.9778394603054 9409.514429256214
590.985848506567 9383.64348015597
591.9936018327098 9411.821408984728
593.0010995178891 9204.815977140122
594.0083416412344 9332.557961259898
595.0153282818283 9143.27003100784
596.0220595187293 9165.797092298339
597.0285354309508 9145.217929890929
598.0347560974806 9088.412790041057
599.0407215972609 9116.40322401777
600.0464320092051 8984.843993967725
601.0518874121954 9093.887293327494
602.0570878850685 9015.991450205871
603.062033506636 9014.804789227777
604.0667243556636 8991.657237621564
605.0711605108936 8870.604193385188
606.0753420510264 9130.862305506738
607.0792690547278 8985.785931910092
608.082941600629 8961.542442443886
609.0863597673306 8883.698333688368
610.0895236333909 8957.297356966812
611.0924332773357 8974.188846655501
612.0950887776617 8976.151806734782
613.0974902128219 8963.036304316034
614.0996376612384 9087.451794169947
615.1015312013005 9070.852702203638
616.1031709113595 9078.853820078872
617.1045568697336 8931.230314245735
618.1056891547069 9063.191225774077
619.1065678445229 9095.976265502091
620.1071930173985 9269.0821605699
621.1075647515099 9221.151897737125
622.1076831250048 9294.4606909019
623.1075482159849 9362.37569765326
624.1071601025305 9362.52115748474
625.1065188626781 9436.408726749853
626.105624574433 9633.995818791687
627.1044773157682 9641.190808367504
628.1030771646128 9669.817599238464
629.1014241988742 9777.295746597689
630.0995184964158 10018.520845876523
631.0973601350688 9890.464095118667
632.0949491926294 10134.436614344562
633.0922857468631 10005.913905352216
634.089369875499 10035.194707342422
635.0862016562278 10042.004151069414
636.0827811667077 9986.623080134566
637.0791084845641 10028.3632118611
638.0751836873878 9832.306058007334
639.0710068527369 9946.982054448052
640.0665780581294 9780.698879614736
641.0618973810506 9878.39208094549
642.0569648989604 9786.623070361633
643.0517806892676 9551.634392283559
644.0463448293649 9481.659294290315
645.040657396592 9380.211231965473
646.0347184682723 9288.965233559305
647.0285281216875 9188.981297321901
648.0220864340772 9172.565239486845
649.0153934826558 9069.264021042627
650.0084493446047 8992.240758565691
651.0012540970674 9007.950780659028
651.9938078171526 8819.849087266859
652.9861105819346 8759.26596673082
653.9781624684565 8864.368335666168
654.9699635537254 8748.298308128737
655.9615139147136 8702.2604308833
656.9528136283589 8622.617384302524
657.9438627715699 8739.275923879988
658.9346614212154 8646.590709007183
659.925209654135 8468.653584251575
660.9155075471263 8541.591155994976
661.9055551769616 8521.68707886375
662.895352620375 8638.691267282382
663.8848999540678 8471.59692844901
664.8741972547068 8339.770362368272
665.863244598926 8379.339096351967
666.8520420633213 8438.588493087394
667.8405897244611 8370.661043399847
668.8288876588758 8274.31864150199
669.8169359430613 8418.880554244573
670.8047346534822 8347.589566031458
671.7922838665672 8322.641010817566
672.7795836587156 8335.006092187668
673.766634106285 8482.963615126635
674.7534352856092 8344.704385561132
675.7399872729766 8323.016887575215
676.7262901446538 8312.250184288081
677.712343976862 8411.791018264139
678.6981488457986 8377.11631304407
679.6837048276229 8254.850786295025
680.6690119984596 8324.499626804958
681.6540704344043 8294.283598059495
682.6388802115107 8260.979755514958
683.6234414058108 8245.145328786533
684.6077540932874 8220.8832335451
685.591818349907 8177.401216080885
686.575634251587 8161.665806245146
687.5592018742263 8184.729742679943
688.5425212936734 8094.565819957376
689.5255925857564 8181.805415643852
690.5084158262707 8125.736714918194
691.4909910909646 8061.902621175861
692.4733184555644 8021.793799327616
693.4553979957618 8080.536093974095
694.4372297872123 8049.544217127996
695.4188139055404 8024.041908778835
696.4001504263324 7956.168331695498
697.3812394251509 8139.813504705477
698.3620809775111 7990.677759260626
699.3426751589104 7975.727650572231
700.3230220448004 7850.907544858861
701.3031217106054 8038.5908045509495
702.2829742317172 8131.889848041976
703.2625796834873 7993.225937163328
704.2419381412474 7857.056074765116
705.22104968028 7939.944361195912
706.1999143758458 7862.56667030324
707.178532303169 7885.673800453956
708.1569035374378 7912.194177776907
709.1350281538107 7938.196083501755
710.1129062274158 7865.76083737444
711.0905378333373 7978.740041747182
712.0679230466376 7873.210260808401
713.0450619423427 8010.572740596613
714.0219545954424 8012.845581976127
714.9986010808989 7843.488421431485
715.9750014736292 7894.85723916659
716.9511558485392 7966.072094849811
717.9270642804786 8084.914738453391
718.9027268442787 8050.717349962535
719.8781436147328 7988.852483655059
720.8533146666014 7982.03957693452
721.828240074612 7966.00678054001
722.8029199134635 7947.970976020515
723.7773542578125 7968.980904966362
724.751543182294 7980.117572711385
725.7254867615029 8034.305702047421
726.6991850700015 7887.408719992354
727.6726381823228 7920.588371364926
728.6458461729599 7951.226966883818
729.6188091163858 7921.3883936284765
730.5915270870246 7897.092712024731
731.5640001592856 7792.010402079728
732.536228407529 7904.713186336454
733.5082119060917 7817.323876829927
734.4799507292755 7796.566056679412
735.4514449513481 7739.56326247711
736.4226946465496 7793.393184545147
737.3936998890786 7925.3393020882195
738.3644607531078 7691.405698319357
739.3349773127793 7728.301273735878
740.3052496421951 7800.6782407679875
741.27527781543 7706.479958787944
742.2450619065221 7709.509726562875
743.2146019894826 7697.354307393092
744.183898138288 7730.160624092282
745.1529504268801 7674.922178601158
746.1217589291682 7609.683655364948
747.0903237190341 7604.121407324713
748.058644870318 7686.054963249323
749.0267224568397 7645.713989154472
749.994556552374 7520.336567863208
750.9621472306771 7610.194867586269
751.9294945654583 7650.9360038238465
752.8965986304011 7674.335543885068
753.8634594991636 7597.132000169853
754.8300772453586 7672.988204507873
755.7964519425768 7629.576252288576
756.762583664371 7648.022803742165
757.7284724842611 7609.236791752432
758.6941184757416 7562.664945738094
759.6595217122667 7567.983406200214
760.6246822672638 7637.137631732468
761.5896002141235 7469.505981115671
762.5542756262093 7597.063857260919
763.5187085768503 7668.972070978265
764.4828991393406 7585.347646335218
765.4468473869474 7607.0067007950975
766.4105533929032 7565.235699042778
767.3740172304078 7503.899742980143
768.3372389726283 7656.549762633656
769.3002186926988 7483.540896386898
770.2629564637282 7484.144790774345
771.2254523587872 7570.907494227923
772.1877064509154 7458.262544348567
773.1497188131179 7395.598220344824
774.1114895183728 7379.588716629361
775.0730186396268 7434.927157662472
776.0343062497905 7374.373261354504
776.9953524217381 7268.428278897942
777.9561572283274 7340.459367049218
778.9167207423689 7354.606794326333
779.8770430366476 7273.354447371727
780.8371241839159 7252.121330550313
781.7969642568951 7251.880159607596
782.7565633282757 7445.424711844864
783.7159214707099 7206.537561126546
784.6750387568281 7178.368961646716
785.6339152592227 7251.638135770603
786.5925510504512 7265.979023589624
787.5509462030477 7285.4496808173135
788.5091007895098 7244.22547666381
789.4670148823006 7217.164313175136
790.4246885538596 7195.791303739929
791.3821218765861 7228.181310940219
792.3393149228505 7144.483629826983
793.2962677649975 7200.888827972654
794.2529804753303 7278.837453251437
795.20945312613 7335.826310104169
796.1656857896378 7234.610095800042
797.1216785380675 7199.3510596863325
798.0774314435985 7284.150230266807
799.0329445783846 7375.021665476884
799.9882180145414 7285.9639150278845
800.9432518241574 7348.443455084671
801.89804607929 7411.747009794836
802.852600851962 7431.501306732018
803.8069162141637 7332.094698709773
804.760992237856 7435.645434367169
805.714828994971 7437.330592298882
806.6684265574077 7450.973989681918
807.6217849970271 7411.855403497345
808.574904385674 7383.3139778155255
809.527784795142 7488.059736308116
810.4804262972102 7531.333683457972
811.4328289636178 7459.638207328508
812.3849928660748 7288.793645926411
813.3369180762638 7299.232504418906
814.2886046658241 7392.7620359645225
815.2400527063783 7243.697261050613
816.1912622695108 7202.243368132231
817.1422334267718 7297.792151935233
818.0929662496856 7172.953422787602
819.0434608097457 7098.2617641862325
819.9937171784059 7073.459434802792
820.9437354271013 6992.138347122236
821.8935156272255 7117.565422228853
822.8430578501484 7018.924440150081
823.7923621672016 6881.414837593526
824.7414286496896 6963.069663061845
825.6902573688876 6946.182080691382
826.6388483960363 6962.357457497045
827.5872018023492 6844.039235769155
828.5353176590033 6937.717592602489
829.4831960371503 6859.326850439198
830.4308370079016 6833.039403248631
831.3782406423525 6954.005285720603
832.3254070115545 6884.3937965203495
833.2723361865319 6721.396869727687
834.2190282382799 6769.028113695627
835.1654832377644 6875.954552850669
836.1117012559116 6771.007104882005
837.0576823636256 6857.2793678731205
838.003426631778 6711.903080931703
838.9489341312074 6616.12963673748
839.8942049327197 6746.69548831533
840.8392391070975 6865.235710071107
841.7840367250865 6705.928579022502
842.7285978573982 6659.61539069494
843.672922574724 6824.806472597134
844.6170109477152 6649.010374341927
845.560863046996 6674.148207766906
846.5044789431595 6642.446743932215
847.4478587067697 6749.862124948707
848.3910024083561 6748.991161606102
849.333910118421 6700.002951037386
850.2765819074339 6657.090087452971
851.2190178458332 6771.452197599669
852.161218004032 6766.696343493961
853.1031824524016 6735.6820662718765
854.0449112612987 6698.97447632315
854.9864045010327 6735.3463007169685
855.9276622418947 6667.726263415682
856.8686845541379 6689.9512409832605
857.8094715079915 6585.747326639734
858.7500231736467 6768.946921001802
859.690339621271 6663.6827870299185
860.6304209209939 6721.554825648347
861.5702671429244 6586.259078994493
862.5098783571284 6698.452744910786
863.4492546336569 6698.455138031731
864.3883960425155 6602.266078395267
865.3273026536863 6570.264917285473
866.2659745371238 6622.995385171921
867.2044117627465 6661.2042903732745
868.1426144004472 6565.533821255596
869.0805825200823 6682.61951222377
870.0183161914847 6687.3495007745205
870.9558154844526 6782.217469527565
871.8930804687552 6792.663053481345
872.8301112141307 6687.351927192375
873.7669077902865 6801.722189383548
874.7034702669062 6792.832267186491
875.6397987136315 6697.797891357953
876.5758932000863 6775.061101813942
877.5117537958522 6847.748337589257
878.4473805704911 6814.4302949794555
879.3827735935283 6715.048300015878
880.3179329344603 6857.220071272635
881.2528586627541 6834.723459054543
882.1875508478479 6913.187277105861
883.1220095591489 6832.050738266922
884.0562348660296 6766.722140079713
884.9902268378391 6945.798459208508
885.9239855438955 6834.14423642342
886.8575110534839 6815.820262423501
887.7908034358588 6856.701719624352
888.7238627602474 6850.066840193426
889.6566890958475 6814.954029319863
890.5892825118208 6675.549504454839
891.5216430773125 6749.34520820465
892.4537708614189 6712.50662109445
893.3856659332196 6613.951609160098
894.3173283617652 6561.735433266067
895.2487582160684 6650.765801023915
896.179955565116 6571.524047158035
897.110920477864 6470.6913233901405
898.0416530232451 6514.01471606091
898.9721532701478 6461.395899217627
899.9024212874428 6538.1364216596485
900.8324571439662 6381.039023450634
901.7622609085302 6389.667426678375
902.6918326499072 6358.5255916646365
903.6211724368477 6345.190347462232
904.5502803380696 6341.803459666345
905.4791564222614 6462.003174842959
906.4078007580792 6307.3137399432735
907.3362134141571 6399.772671489149
908.2643944590909 6381.273358855959
909.1923439614493 6269.694431741798
910.1200619897754 6269.881948617313
911.0475486125779 6519.982950058199
911.9748038983344 6302.408411029124
912.9018279155007 6283.131207689517
913.8286207324982 6229.980760729537
914.7551824177117 6261.143535050507
915.6815130395116 6232.666258515506
916.6076126662283 6150.358016831577
917.533481366163 6212.057507843911
918.4591192075914 6296.894204368151
919.3845262587565 6303.020777118467
920.3097025878706 6228.468091647106
921.2346482631237 6227.744034782096
922.1593633526682 6200.256303343218
923.0838479246304 6353.565111998963
924.0081020471061 6240.777707948434
924.9321257881656 6134.826505789312
925.8559192158464 6181.999904509099
926.7794823981512 6145.827986535269
927.7028154030686 6137.698359220969
928.6259182985414 6059.600780775132
929.5487911524906 6216.878509168873
930.4714340328119 6188.031637110833
931.3938470073608 6072.178441025062
932.3160301439748 6076.103064531703
933.2379835104548 6109.247042314611
934.1597071745709 6176.062459387889
935.0812012040769 6141.930292210711
936.002465666681 6152.421149259733
936.9235006300696 6109.576268397983
937.8443061619055 6135.2560253029915
938.7648823298077 5970.305139625568
939.6852292013809 6070.974857537329
940.6053468441951 6151.5599288595095
941.5252353257874 5944.22370329158
942.4448947136698 6036.589122233697
943.364325075323 5978.707618684328
944.2835264782043 6085.2615906026895
945.2024989897309 5952.634826458324
946.1212426773054 5983.291005374666
947.0397576082851 6095.742039966697
947.9580438500125 6065.590608867831
948.8761014697939 6075.241727516379
949.7939305349064 6057.852220308075
950.7115311125999 5922.993314151433
951.6289032700952 5956.278327578278
952.5460470745875 6067.398843450932
953.4629625932339 5952.404953874614
954.3796498931715 6105.049004951045
955.2961090415029 6012.069470088611
956.2123401053068 6082.803176737482
957.1283431516276 6034.303267380533
958.0441182474842 5926.955036317091
958.9596654598663 6086.994106223969
959.8749848557309 5995.062249237555
960.7900765020167 5975.786048586124
961.7049404656209 5914.885116733252
962.6195768134185 5941.875840068688
963.5339856122537 5970.667750205431
964.4481669289453 5955.495381354176
965.3621208302793 5991.282856485717
966.2758473830145 5906.204304443211
967.1893466538822 6072.465613062946
968.1026187095813 5939.058764080002
969.0156636167867 5986.249435806189
969.9284814421426 5945.62060569741
970.8410722522622 5958.1239659661405
971.753436113735 5898.696614693303
972.6655730931161 5887.343995745425
973.5774832569368 5952.775508504893
974.4891666716958 5844.758414462377
975.4006234038698 5829.280398238228
976.3118535198955 5754.725733811735
977.2228570861935 5929.689339233095
978.1336341691494 5916.833136496927
979.0441848351202 5782.706075840242
979.9545091504333 5951.832299088472
980.864607181391 5991.363223724704
981.7744789942699 5937.172627109815
982.6841246553086 5926.1868979567325
983.5935442307236 5852.93104799391
984.5027377867027 5920.788519861104
985.4117053894024 5894.331308666506
986.3204471049557 5830.837146185613
987.2289629994648 5880.23403329506
988.1372531390007 6028.005609797692
989.0453175896091 5835.345276780168
989.9531564173067 5832.166886964708
990.860769688079 5788.426125975615
991.7681574678918 5961.702802852565
992.6753198226706 5936.411495109924
993.582256818323 5781.9148748316165
994.4889685207218 5871.391983762007
995.3954549957143 6028.323930176985
996.301716309119 5920.54595840593
997.2077525267232 5925.530054467386
998.1135637142943 5955.800578564445
999.0191499375615 5945.724057843525
999.924511262232 5995.326271272852
1000.8296477539861 6025.381076276685
1001.7345594784656 5932.368007522216
1002.6392465012996 5950.110559749711
1003.5437088880753 6033.383017070045
1004.4479467043584 5899.2955369154215
1005.3519600156869 5763.301444314996
1006.2557488875718 5882.532359880699
1007.1593133854858 5947.079561119372
1008.0626535748888 5884.567824017124
1008.9657695212009 5767.899287553786
1009.8686612898182 5952.546552490396
1010.7713289461135 5942.533054472103
1011.6737725554212 5869.8675524552955
1012.5759921830577 5863.22186619159
1013.4779878943027 5930.1253119784615
1014.379759754418 5951.359390066034
1015.2813078286254 5799.050190432206
1016.18263218213 5684.335671008528
1017.0837328801026 5798.718353654741
1017.9846099876886 5916.032075754934
1018.8852635700023 5788.674393220455
1019.7856936921362 5662.078130809525
1020.6859004191447 5863.665870696972
1021.5858838160675 5657.961423563442
1022.4856439479063 5655.991036901926
1023.3851808796389 5659.809260849258
1024.2844946762143 5728.611461156806
1025.183585402554 5676.663414735395
1026.082453123554 5539.093528749248
1026.9810979040776 5676.259461740322
1027.8795198089647 5584.218022902498
1028.777718903024 5646.777920670853
1029.6756952510368 5526.393100594551
1030.5734489177648 5463.14566558387
1031.4709799679313 5639.2812945431415
1032.3682884662358 5714.770518873501
1033.2653744773506 5428.840673173786
1034.1622380659192 5501.646025637729
1035.058879296559 5603.642670050247
1035.9552982338591 5680.842321504535
1036.8514949423825 5565.579572479615
1037.7474694866614 5536.108956448976
1038.6432219312028 5639.514263375505
1039.5387523404825 5755.177849196984
1040.4340607789582 5683.816915916915
1041.3291473110476 5713.066965529677
1042.2240120011465 5868.664121338073
1043.1186549136273 5899.478204561365
1044.0130761128294 5780.115039853065
1044.9072756630649 5932.758487174031
1045.8012536286205 6039.054321801497
1046.6950100737577 6074.57672798342
1047.588545062701 6111.726871441169
1048.481858659663 6184.899658412742
1049.3749509288118 6239.511450621065
1050.2678219343034 6107.821195548222
1051.1604717402515 6148.57250612461
1052.0529004107575 6099.576175244279
1052.9451080098825 6224.96499903081
1053.8370946016694 6172.625753331713
1054.7288602501267 6103.161634694205
1055.6204050192446 6078.80528328475
1056.511728972977 6192.7957913528335
1057.402832175254 6098.258288638787
1058.2937146899785 5933.89861237378
1059.1843765810263 5886.287682171829
1060.0748179122456 6089.247786121772
1060.9650387474576 5945.836968725881
1061.855039150456 5888.718448579427
1062.7448191850071 5801.690134198496
1063.6343789148505 5790.693841989593
1064.5237184037014 5735.816548185487
1065.412837715241 5679.89005459939
1066.3017369131267 5644.1105784444035
1067.190416060992 5616.088349298558
1068.0788752224398 5492.773055255449
1068.9671144610438 5440.4746256305525
1069.8551338403558 5571.821866157572
1070.7429334239023 5663.732076628604
1071.6305132751695 5489.812732768416
1072.517873457633 5547.318618800143
1073.4050140347335 5426.247878102801
1074.2919350698776 5509.603071326606
1075.1786366264623 5422.355695895834
1076.0651187678395 5449.854533502058
1076.95138155735 5409.866016669484
1077.8374250582929 5317.44411146304
1078.7232493339507 5437.5824395065165
1079.608854447577 5352.775775809796
1080.4942404623907 5305.074570283572
1081.3794074415982 5411.578697617463
1082.2643554483657 5328.756539060557
1083.149084545841 5261.997750529551
1084.033594797138 5233.941963910899
1084.9178862653516 5209.808380278677
1085.8019590135427 5285.829690418289
1086.6858131047484 5196.9982452668655
1087.5694486019802 5253.399269997349
1088.4528655682225 5171.29665994266
1089.3360640664287 5348.076713113477
1090.2190441595321 5154.15032201631
1091.1018059104317 5300.71684643614
1091.98434938201 5207.861742252959
1092.866674637111 5245.584499249935
1093.748781738559 5262.535849107992
1094.6306707491512 5045.518129986132
1095.5123417316554 5194.48496980794
1096.3937947488157 5135.521276279055
1097.2750298633455 5073.262482016998
1098.156047137938 5086.417029143919
1099.0368466352556 5109.858206686266
1099.9174284179317 5223.237737520694
1100.7977925485757 5040.274716316359
1101.6779390897755 5046.504217347275
1102.5578681040806 5140.278766998904
1103.4375796540226 5098.833813380626
1104.3170738021054 5029.30855160559
1105.1963506108077 5057.3279438298005
1106.0754101425773 4949.493880642158
1106.9542524598382 4990.570848802138
1107.8328776249855 4981.646870934988
1108.7112857003904 4928.190651057159
1109.5894767483987 4968.535215207076
1110.4674508313292 4974.445829143851
1111.3452080114657 4913.274055262504
1112.2227483510815 5062.282437312289
1113.1000719124077 4988.850627268916
1113.9771787576592 5109.546741564396
1114.854068949022 5032.253950516727
1115.7307425486542 5096.904636540527
1116.6071996186893 5152.0646301027355
1117.483440221229 5161.9509838972035
1118.3594644183577 5070.715719691949
1119.235272272128 5108.998477290704
1120.1108638445658 5218.662522871491
1120.9862391976712 5446.491320785904
1121.8613983934229 5263.3101250362115
1122.7363414937627 5242.762449272437
1123.6110685606182 5318.70060204743
1124.485579655884 5462.716792544292
1125.359874841426 5324.100361740735
1126.2339541790916 5392.383258287002
1127.1078177306936 5567.494997618007
1127.9814655580267 5414.0654611216905
1128.854897722851 5501.590851595425
1129.7281142869106 5518.491912366437
1130.6011153119125 5512.490228688182
1131.473900859548 5641.868392921049
1132.3464709914697 5472.1934638137445
1133.2188257693178 5462.784374649449
1134.0909652546961 5451.68564461301
1134.96288950919 5419.489514839315
1135.8345985943506 5498.292713277509
1136.7060925717087 5294.131576345562
1137.57737150277 5460.60452343281
1138.4484354490069 5414.184857835949
1139.3192844718778 5331.758936077017
1140.1899186327992 5230.624149165635
1141.060337993178 5334.228971571263
1141.930542614382 5255.253731169405
1142.8005325577597 5189.02604468289
1143.670307884635 5112.4336405965605
1144.5398686563003 5307.273714166489
1145.409214934025 5041.814008273045
1146.2783467790541 4923.312713995247
1147.1472642526023 5002.846961496218
1148.0159674158622 5068.797337637975
1148.8844563300026 4901.034950480331
1149.7527310561618 4876.819312381936
1150.6207916554504 4791.737922224693
1151.4886381889592 4732.448813283301
1152.3562707177498 4942.694963223307
1153.2236893028585 4770.429157669283
1154.090894005296 4768.258899404637
1154.9578848860474 4813.874019775432
1155.8246620060709 4744.713851769338
1156.6912254262988 4680.52649595471
1157.5575752076438 4642.209260416289
1158.42371141098 4771.994020401801
1159.2896340971656 4726.655405646729
1160.1553433270346 4719.388111859569
1161.0208391613887 4685.915644596065
1161.8861216610057 4762.750868835014
1162.75119088664 4772.120420330723
1163.6160468990201 4658.310433370485
1164.4806897588442 4574.055500364613
1165.3451195267917 4709.872699129293
1166.2093362635114 4736.787133760621
1167.0733400296285 4622.211367497384
1167.9371308857444 4506.468911285772
1168.8007088924278 4609.099594613089
1169.6640741102328 4670.395910962598
1170.5272265996773 4542.561583638497
1171.390166421259 4375.5466004423415
1172.252893635452 4615.215502144055
1173.1154083026995 4680.966767516135
1173.977710483421 4523.712092090349
1174.8398002380145 4449.884931681908
1175.7016776268483 4525.049078950159
1176.563342710264 4556.008795170093
1177.4247955485826 4442.37766956879
1178.2860362020947 4609.758990111609
1179.147064731069 4553.2041655148805
1180.0078811957483 4696.378839103532
1180.8684856563486 4527.949747732669
1181.7288781730604 4548.547367513554
1182.589058806052 4608.316080309085
1183.4490276154593 4725.330007186636
1184.3087846614017 4643.402072306296
1185.1683300039676 4622.574415059063
1186.027663703222 4750.0612790407295
1186.8867858192025 4624.570054058252
1187.7456964119228 4644.680545704951
1188.6043955413716 4645.2901969346085
1189.4628832675116 4732.069613152982
1190.3211596502842 4750.135093687764
1191.179224749596 4770.586609890285
1192.0370786253388 4649.25990886042
1192.8947213373758 4821.240763054552
1193.7521529455407 4879.004077341662
1194.6093735096438 4721.580158891671
1195.466383089477 4736.97139694675
1196.3231817447977 4794.068806883528
1197.1797695353398 4870.410001075547
1198.0361465208189 4699.558752537251
1198.8923127609214 4672.578140433354
1199.7482683153048 4692.808432245406
1200.6040132436028 4837.314124628359
1201.459547605431 4769.567920131477
1202.3148714603722 4661.146196437185
1203.1699848679855 4758.635739835385
1204.0248878878065 4791.264414980914
1204.8795805793507 4695.096640779689
1205.7340630020935 4737.942097528385
1206.5883352155033 4803.681182398056
1207.4423972790064 4672.784650707201
1208.2962492520237 4660.476550874288
1209.1498911939307 4654.32256367292
1210.0033231640937 4768.428421197935
1210.8565452218427 4674.62022407214
1211.7095574264913 4603.567332779221
1212.5623598373222 4495.3219185296775
1213.4149525135963 4511.658572276441
1214.2673355145507 4568.2449348697755
1215.1195088993936 4441.460696863581
1215.9714727273113 4505.0289554077335
1216.8232270574663 4549.750599211508
1217.6747719489904 4338.274371036644
1218.5261074609934 4309.901366251234
1219.3772336525653 4327.323040385306
1220.2281505827668 4452.378045805286
1221.0788583106296 4519.8184553186975
1221.9293568951707 4289.907285494895
1222.7796463953746 4250.532915301781
1223.629726870202 4369.568814923546
1224.4795983785934 4372.874535428293
1225.3292609794553 4388.725252564749
1226.1787147316809 4268.22467398369
1227.0279596941327 4406.628197027944
1227.8769959256424 4425.120358214519
1228.7258234850306 4397.5278124377
1229.5744424310833 4221.829568608393
1230.422852822563 4354.747194281299
1231.2710547182105 4465.41762676474
1232.119048176739 4297.751140801862
1232.9668332568417 4218.173535648007
1233.8144100171812 4341.65563010533
1234.6617785163999 4289.048313258145
1235.508938813111 4141.605626891762
1236.3558909659114 4169.384399614775
1237.2026350333617 4316.434452352758
1238.049171074008 4389.7352750957225
1238.8954991463652 4265.478496544817
1239.741619308932 4219.704850428276
1240.587531620169 4407.101494668843
1241.4332361385277 4306.153525428084
1242.2787329224248 4175.830031836335
1243.1240220302534 4136.262300536499
1243.9691035203869 4056.34599468168
1244.813977451171 4211.021119015186
1245.6586438809263 4147.498650647302
1246.5031028679496 3955.288694954876
1247.3473544705157 4213.543208274421
1248.1913987468706 4194.598090081008
1249.0352357552383 4020.314089758312
1249.8788655538228 4096.250285593767
1250.7222882007918 4126.705786624716
1251.565503754302 4137.015848918389
1252.4085122724755 4103.488151175023
1253.2513138134182 4277.495398722116
1254.0939084352049 4192.876018609064
1254.9362961958905 4160.577275117801
1255.7784771535007 4119.210874786269
1256.6204513660432 4195.714632239595
1257.4622188915 4324.119767970351
1258.3037797878242 4172.07117495174
1259.1451341129468 4065.2797392468033
1259.9862819247755 4139.661214268734
1260.8272232811978 4068.435808743092
1261.6679582400666 4337.725282742189
1262.5084868592203 4067.6768369690276
1263.34880919647 4050.4427826290425
1264.1889253095997 4195.4146694765495
1265.0288352563712 4275.2557818954065
1265.8685390945266 4102.360071762238
1266.7080368817751 4228.269779900148
1267.5473286758115 4251.9140161387095
1268.386414534294 4158.1692752456975
1269.2252945148703 3908.4829042309384
1270.0639686751547 4043.2004124721525
1270.9024370727402 4004.57559153467
1271.7406997651997 3957.369079636719
1272.5787568100714 4022.464881056004
1273.4166082648808 4089.1988300937473
1274.2542541871244 4098.293480973423
1275.091694634275 4221.918721153152
1275.9289296637817 3973.1939364210943
1276.7659593330663 3987.295385307326
1277.6027836995308 3965.88005332815
1278.4394028205552 4136.3243825814225
1279.2758167534867 3962.0574741736186
1280.112025555658 4074.389271660612
1280.9480292843746 4013.136277912905
1281.7838279969128 3887.12911649531
1282.6194217505326 3947.0920484639855
1283.4548106024686 3831.9778314572586
1284.289994609926 3880.819171885585
1285.1249738300921 3989.276169027509
1285.959748320127 3841.3111044210527
1286.7943181371702 3899.752916944689
1287.6286833383328 3921.204078731912
1288.4628439807038 3991.6671202027073
1289.2968001213521 3881.4801549671915
1290.1305518173194 3984.366167502172
1290.9640991256183 4029.468440609785
1291.7974421032523 3736.048709320422
1292.630580807183 3863.0146520684493
1293.463515294361 3944.8805174602944
1294.29624562171 4015.5349063051844
1295.12877184613 3932.4381891159524
1295.961094024493 3911.377356153627
1296.79321221365 3978.217703987399
1297.6251264704333 3985.835223517187
1298.4568368516466 4206.806298149269
1299.2883434140658 4034.8056813500343
1300.1196462144526 3819.352862758179
1300.9507453095375 4000.638557620623
1301.7816407560313 3973.6152590079378
1302.6123326106172 3943.081153792597
1303.4428209299622 3870.6845544690177
1304.2731057707024 4099.604506179201
1305.1031871894502 3822.2002609379333
1305.933065242798 4059.9273320228303
1306.7627399873181 3922.269769669388
1307.5922114795467 4187.901614433419
1308.4214797760123 4394.854758345458
1309.2505449332057 3936.2060687540484
1310.0794070076026 4053.8274947974887
1310.9080660556538 4154.466835828333
1311.736522133786 4186.842428045563
1312.5647752983987 3998.010037897469
1313.3928256058734 3877.723430040617
1314.2206731125661 4037.074289170478
1315.048317874809 4051.058106821775
1315.8757599489109 3950.652693364003
1316.7029993911547 3994.8845056837445
1317.5300362578055 4041.7368271891173
1318.356870605101 3921.995934852369
1319.183502489257 3877.46664282039
1320.0099319664623 3932.6191244283755
1320.836159092889 3959.1095488149476
1321.66218392468 4135.2657892189045
1322.4880065179532 3911.133295414459
1323.3136269288134 3988.7931302439174
1324.1390452133292 4147.995410805386
1324.9642614275563 4100.017707908404
1325.7892756275214 4018.344244038507
1326.6140878692295 3916.589496027408
1327.4386982086617 4276.149077641216
1328.2631067017755 4032.250146050001
1329.0873134045069 4066.715557385476
1329.911318372764 4001.3078773876987
1330.735121662441 3979.0904794462003
1331.558723329399 4022.198894175791
1332.3821234294774 3912.016503693251
1333.2053220185007 3887.7335738963
1334.0283191522612 3916.7264361630814
1334.851114886529 3959.111005135926
1335.6737092770582 3912.748886669854
1336.4961023795695 3946.579620322764
1337.3182942497697 3941.486950237448
1338.1402849433325 3962.2265928857246
1338.962074515921 3874.9668466377325
1339.7836630231632 3780.967617655066
1340.6050505206676 4162.9397957637975
1341.426237064028 4117.64306091941
1342.2472227088037 4160.105873813438
1343.0680075105338 3759.601237739293
1343.888591524741 3832.368603264293
1344.7089748069138 4123.734652380623
1345.5291574125276 3844.526331033684
1346.3491393970307 3689.332026567122
1347.168920815846 3880.552387355441
1347.9885017243778 4003.997273749249
1348.8078821780036 3895.7750654498464
1349.6270622320844 3953.255476151114
1350.4460419419447 3872.3157650833978
1351.2648213629054 4001.6570294430376
1352.0834005502438 3697.4926780846167
1352.90177955923 3831.0943355842755
1353.7199584451064 4317.832561949965
1354.5379372630887 3855.6579401895287
1355.355716068374 3761.9951190542133
1356.1732949161305 3851.972772407001
1356.9906738615155 3838.5366095023514
1357.8078529596478 3891.7805693007917
1358.6248322656375 3882.8165763340576
1359.441611834567 3707.988599148533
1360.2581917214866 3995.5055213406185
1361.0745719814367 3653.7481775890883
1361.890752669433 3708.463307668894
1362.7067338404577 3714.719386129749
1363.5225155494845 3964.7175006509488
1364.3380978514506 3891.252842976479
1365.1534808012839 3690.116024513359
1365.9686644538815 3563.134772546523
1366.783648864117 3933.149295088172
1367.5984340868417 3840.408234524645
1368.413020176893 3823.78483274576
1369.2274071890715 3684.898267417564
1370.0415951781652 3833.585285348493
1370.8555841989346 3534.1868879676463
1371.6693743061223 3590.104493328662
1372.48296555444 3563.4718813532186
1373.2963579985844 3813.109535229362
1374.1095516932255 3662.8468710495604
1374.9225466930166 3586.5132810851624
1375.7353430525782 3692.018580798346
1376.5479408265164 3610.3466423367186
1377.36034006941 3743.294906233722
1378.1725408358216 3746.583229650806
1378.9845431802805 3479.8816505411296
1379.796347157304 3876.2469813270413
1380.6079528213813 3735.6342510508084
1381.4193602269788 3538.069561143391
1382.230569428546 3542.845837081838
1383.0415804805016 3840.960441404141
1383.852393437246 3764.880455512231
1384.6630083531563 3693.011038783837
1385.4734252825892 3543.132527120643
1386.2836442798798 3688.1386794537584
1387.0936653993322 3648.2365711945627
1387.9034886952395 3567.3272079510743
1388.713114221864 3715.059387412938
1389.5225420334482 3749.221923727525
1390.331772184214 3534.374371736664
1391.1408047283585 3470.234279917446
1391.9496397200564 3526.798065784607
1392.758277213461 3664.845111100479
1393.5667172627054 3699.8359231051645
1394.3749599218918 3489.59704971492
1395.1830052451114 3375.837613712094
1395.9908532864265 3474.3473818330676
1396.7985040998774 3758.334919189002
1397.6059577394808 3486.5356421239194
1398.4132142592352 3559.747953044902
1399.2202737131156 3443.6587777136688
1400.027136155073 3562.6276355182245
1400.8338016390353 3433.8255432274846
1401.6402702189134 3465.6414929169937
1402.446541948586 3493.5249005203573
1403.2526168819204 3418.1423482240666
1404.058495072757 3503.2547408995897
1404.8641765749107 3402.2157118528944
1405.6696614421799 3542.279454520999
1406.4749497283356 3738.212873595328
1407.280041487129 3409.691137796687
1408.084936772295 3257.3341306414663
1408.8896356375335 3526.5254570834286
1409.6941381365323 3546.1589950218986
1410.498444322955 3339.699333350086
1411.3025542504402 3422.8263778718947
1412.106467972606 3438.167681266042
1412.9101855430508 3531.598960806029
1413.7137070153458 3276.2447044693363
1414.5170324430437 3332.9048948890895
1415.320161879672 3406.703191830909
1416.1230953787435 3640.4187761862327
1416.925832993742 3319.883503735892
1417.7283747781275 3291.8864032075953
1418.5307207853439 3490.3732526818067
1419.3328710688093 3383.7800412297643
1420.134825681922 3165.7657955814
1420.9365846780584 3258.396519083591
1421.7381481105713 3517.237221646813
1422.539516032788 3348.1236392154706
1423.3406884980232 3224.9605672414737
1424.1416655595604 3199.5827032556526
1424.942447270665 3373.0796515632524
1425.7430336845828 3354.5218150073333
1426.5434248545298 3133.1766584608768
1427.3436208337116 3323.2270970327677
1428.143621675301 3386.047157578077
1428.9434274324558 3456.806640075826
1429.7430381583108 3080.2643229213663
1430.5424539059713 3233.9447678956594
1431.3416747285337 3694.229839527193
1432.1407006790632 3411.896002055945
1432.9395318106053 3239.3233816818893
1433.7381681761835 3083.2587336319557
1434.5366098288014 3209.5013202724936
1435.3348568214424 3408.7675773162423
1436.1329092070573 3129.963681071579
1436.9307670385879 3095.0539901281404
1437.7284303689503 3397.1336466984676
1438.5258992510335 3453.1565578336936
1439.3231737377118 3215.366302046953
1440.1202538818306 3247.6848958293203
1440.9171397362225 3247.216767257042
1441.7138313536925 3282.161617044141
1442.5103287870243 3149.067934033298
1443.3066320889775 3124.6930778969845
1444.1027413122956 3372.7759254803213
1444.8986565096966 3171.681862094761
1445.694377733882 3177.313504764133
1446.4899050375207 3040.638649466682
1447.2852384732687 3050.987626298941
1448.0803780937622 3332.256095799398
1448.8753239516063 3100.5925408920834
1449.6700760993954 3059.9698743501694
1450.464634589689 3004.2184829540897
1451.2589994750397 3379.827910856723
1452.0531708079689 2944.7347208366396
1452.8471486409799 3085.932292124665
1453.6409330265524 3348.547484402755
1454.4345240171442 3106.5095983019405
1455.2279216651987 3091.9282319389995
1456.0211260231263 3090.6505630236234
1456.8141371433194 3199.4230498046445
1457.6069550781594 3193.660522439564
1458.3995798799897 2985.5524720005615
1459.1920116011424 3091.6923877286813
1459.98425029393 2930.2568605284623
1460.7762960106338 2969.057183022281
1461.5681488035225 2942.7232792636632
1462.3598087248392 3139.199580921594
1463.1512758268036 3232.2170718604234
1463.942550161617 3131.232934093773
1464.7336317814625 2881.95815080354
1465.524520738496 2998.854925485383
1466.3152170848552 2943.0497739205653
1467.1057208726506 3094.6138027399275
1467.8960321539817 2893.712069908849
1468.6861509809169 2826.446808010499
1469.4760774055085 2893.6222584636243
1470.265811479785 3100.1233657791004
1471.055353255755 2869.502490836938
1471.844702785409 2877.214654003093
1472.6338601207044 2919.5376117056167
1473.4228253135934 2876.3107927861315
1474.2115984159936 2833.203206522091
1475.0001794798063 2745.5936051264316
1475.7885685569145 2943.7654628051455
1476.576765699172 2971.7503183757467
1477.3647709584238 2945.0823953842564
1478.1525843864802 3132.194030554635
1478.9402060351367 3108.9746440016625
1479.7276359561693 3078.4675435215267
1480.514874201328 2892.5168472113173
1481.3019208223468 2824.331313624822
1482.0887758709323 2849.3566844425427
1482.8754393987747 3089.542723706234
1483.6619114575406 2667.0150293565393
1484.4481920988783 2970.1686297559536
1485.2342813744108 3052.307691612773
1486.0201793357446 3094.9417541062166
1486.8058860344572 2890.544480492495
1487.591401522117 2830.10180781501
1488.3767258502594 2903.7743757590424
1489.1618590704056 2964.510841981382
1489.9468012340494 2732.353890628444
1490.7315523926754 2980.387734398553
1491.5161125977356 3074.5796224891865
1492.3004819006637 2910.988260310548
1493.084660352877 2767.387260471713
1493.8686480057622 2921.069779727449
1494.6524449106964 3119.041508296141
1495.4360511190262 3192.4685320097815
1496.219466682087 2893.307179904498
1497.0026916511779 2978.036595376825
1497.7857260775945 2893.649453605103
1498.5685700125996 3003.5943075781015
1499.3512235074395 2837.118500811319
1500.133686613337 2825.0019841304197
1500.9159593814966 2874.056043299202
1501.698041863101 3278.8787573140085
1502.4799341093094 2681.000174197271
1503.2616361712662 2779.6522203820273
1504.043148100087 3028.292090390926
1504.8244699468742 3002.6158376754393
1505.6056017626997 2889.780341088276
1506.3865435986281 2699.1452855289094
1507.1672955056893 3031.313196479673
1507.9478575348967 2766.341667685848
1508.7282297372512 2977.8191009409898
1509.5084121637192 2937.274501163275
1510.2884048652577 2883.1525796348756
1511.0682078927948 2852.906881354214
1511.8478212972423 2844.7541590120754
1512.6272451294917 2793.7596827432853
1513.4064794404076 2892.451681889643
1514.1855242808433 2900.4444476643725
1514.9643797016215 2873.632100456344
1515.743045753552 2980.5679728526293
1516.5215224874191 2970.215687006255
1517.2998099539836 2577.0957555192435
1518.077908203999 2815.979540388052
1518.8558172881785 2847.5336892952873
1519.633537257234 2942.7523004049085
1520.4110681618404 2855.7991788788886
1521.1884100526604 2888.541427924746
1521.9655629803365 2844.374736824081
1522.7425269954856 3017.910949300195
1523.5193021487103 3029.451339720007
1524.2958884905856 2729.7212964945224
1525.0722860716687 2855.599024183276
1525.848494942502 2798.772221601019
1526.624515153595 2856.016403740233
1527.4003467554485 2862.3149113440095
1528.175989798534 3027.850607800895
1528.9514443333064 2850.263850305543
1529.726710410203 3063.978862858826
1530.5017880796331 2703.13374611707
1531.276677391992 2775.159071801977
1532.0513783976457 3007.613099724581
1532.825891146953 2869.305083183072
1533.6002156902414 2935.2041134379733
1534.3743520778207 3046.2614160095854
1535.1483003599806 2805.6349072165385
1535.9220605869923 2830.8358860583803
1536.6956328091019 2853.0966707174634
1537.4690170765407 2913.3475830794373
1538.242213439511 2936.6612881592073
1539.015221948208 2903.0579191125894
1539.78804265279 2730.3612558412897
1540.560675603405 2746.323451396078
1541.3331208501804 3056.4447151237096
1542.1053784432224 2997.1042046110206
1542.8774484326168 2874.5984707181597
1543.649330868422 2867.7571183388145
1544.4210258006842 2923.8694633148134
1545.1925332794308 2749.8079154238662
1545.9638533546604 2771.168817252241
1546.7349860763552 2734.0023167151057
1547.5059314944829 3123.693602973616
1548.27668965898 2877.9859292809624
1549.0472606197673 2906.4620453256393
1549.817644426752 2715.3936903528474
1550.5878411298072 2961.693423534754
1551.3578507787988 2917.3174972528836
1552.1276734235635 2752.0119575277777
1552.8973091139233 2787.3065997040476
1553.6667578996767 2897.0610638061426
1554.436019830604 2888.381364231161
1555.20509495646 2878.990891262943
1555.9739833269869 2717.749087595607
1556.7426849919011 2707.2642339982963
1557.511200000903 3230.867568461707
1558.2795284036674 2927.652180171132
1559.0476702498509 2896.4985646908294
1559.8156255890954 3031.4743932430765
1560.5833944710157 3051.2127000471833
1561.3509769452048 2685.0209405963037
1562.1183730612447 2839.7333260337227
1562.8855828686865 2884.2611170383916
1563.6526064170703 3156.443944900578
1564.4194437559127 2999.700577368302
1565.1860949347047 2743.806095845215
1565.9525600029283 3156.8861455251154
1566.7188390100328 3068.1007736321258
1567.4849320054564 2786.940339106898
1568.250839038612 2849.1504742830375
1569.0165601588997 2883.07296982476
1569.7820954156887 3068.985510892434
1570.5474448583373 2854.204215824292
1571.31260853618 2743.7785620971376
1572.0775864985299 2765.03372191952
1572.8423787946813 2958.877353356548
1573.6069854739108 2756.313905133166
1574.371406585471 2877.9537028453983
1575.1356421785986 2985.2510897041784
1575.899692302506 2885.7020719671086
1576.6635570063845 2908.4948904448156
1577.4272363394157 2788.4699597900185
1578.190730350747 2901.116714198576
1578.9540390895163 2764.742291280895
1579.7171626048384 2637.0148281895104
1580.480100945806 2747.025144112523
1581.2428541614918 2807.445756409471
1582.0054223009538 2874.7876996912264
1582.767805413223 2861.567362101317
1583.5300035473156 2750.643399667424
1584.292016752228 2945.340283029181
1585.0538450769309 2895.432258628086
1585.8154885703807 2678.4745506113672
1586.5769472815136 2710.173358103285
1587.3382212592405 2771.45310217465
1588.099310552463 2985.6776040393165
1588.8602152100484 2530.1905826470215
1589.6209352808564 2948.1748008636923
1590.3814708137234 2968.5211872310747
1591.14182185746 2506.9040244007474
1591.9019884608679 2919.1166809062534
1592.6619706727215 2642.4913346286385
1593.4217685417734 2868.167358537855
1594.1813821167616 3079.5899896816236
1594.9408114464022 2667.8885196039655
1595.7000565793933 2815.3855263582363
1596.459117564409 2995.430790600103
1597.2179944501113 2728.992537955871
1597.9766872851324 2823.3622498504665
1598.735196118092 2885.5544337753645
1599.4935209975883 2859.915278900566
1600.2516619721973 3047.1522518367374
1601.0096190904787 2776.4626726775023
1601.7673924009723 2816.7503932636073
1602.524981952196 2839.152110500944
1603.2823877926476 2713.187035638931
1604.0396099708087 2780.5637290364684
1604.7966485351371 2693.3537653198905
1605.5535035340745 2781.188028440826
1606.3101750160404 2975.076900336906
1607.0666630294363 2801.398351280059
1607.822967622642 2491.2050639753584
1608.5790888440224 2860.772731563987
1609.3350267419137 3001.3124030901186
1610.0907813646445 2826.130748099899
1610.8463527605145 2848.676242083451
1611.601740977805 2889.8436982576213
1612.356946064785 2839.8881678745374
1613.1119680696902 2540.73825040622
1613.8668070407512 2568.369191449666
1614.6214630261748 2709.3266093417624
1615.375936074137 2814.18844279341
1616.1302262328118 2786.2929782170404
1616.8843335503425 2765.678454430273
1617.638258074854 2742.2701788022923
1618.391999854457 2614.744039388607
1619.1455589372363 2802.0656205498467
1619.8989353712623 2788.15296493343
1620.65212920458 2495.6749494584424
1621.4051404852235 2719.524522668889
1622.1579692611976 2756.3604489789495
1622.9106155804966 2554.627550134817
1623.663079491087 2656.7299593773705
1624.4153610409248 2797.6371794418196
1625.1674602779385 2620.9691738479687
1625.9193772500403 2575.6218822125716
1626.6711120051277 2914.226294544384
1627.4226645910676 2680.231397913166
1628.174035055721 2442.1763104741617
1628.9252234469168 2705.248665518156
1629.676229812474 2538.436866173887
1630.4270542001905 2632.0312579848774
1631.1776966578382 2725.8223676892426
1631.9281572331747 2617.42617441375
1632.678435973945 2756.537567523512
1633.4285329278573 2707.510905057371
1634.1784481426203 2586.9908331003166
1634.9281816659113 2637.9972185133793
1635.677733545388 2853.395012999027
1636.4271038286934 2656.256720764004
1637.176292563452 2701.997548873148
1637.9252997972635 2693.9438107076567
1638.674125577716 2770.183667825882
1639.4227699523672 2991.9196552446106
1640.171232968767 2428.0758646962877
1640.9195146744423 2723.526410162377
1641.6676151168977 2799.0703602093463
1642.4155343436178 2752.9282884560303
1643.1632724020765 2684.4404290671655
1643.9108293397167 2747.7534713691716
1644.658205203974 2563.4869594563584
1645.4054000422566 3001.245554622684
1646.1524139019566 2692.9324931550436
1646.8992468304423 2601.5442432111126
1647.6458988750728 2700.546658132601
1648.3923700831765 2691.9629027080155
1649.1386605020743 2470.749953815276
1649.8847701790564 2783.1193904889346
1650.6306991614038 2638.941662719393
1651.3764474963682 2721.1394652348836
1652.1220152311944 2550.1565460989545
1652.867402413096 2677.859200187775
1653.6126090892776 2567.192329358535
1654.3576353069184 2948.848678832842
1655.1024811131829 2725.0466431610116
1655.8471465552066 2749.3555754461404
1656.5916316801213 2806.594882212487
1657.3359365350298 2629.0894878247336
1658.0800611670165 2618.9572322099166
1658.824005623148 2694.982909775087
1659.5677699504722 2517.206450869182
1660.3113541960192 2703.5777584960897
1661.054758406799 2602.6457344333076
1661.7979826297997 2557.616826149626
1662.5410269119966 2568.6840328311555
1663.283891300338 2877.7470550245553
1664.0265758417645 2486.782985613311
1664.7690805831826 2546.129099768569
1665.5114055714948 2862.8510796508144
1666.2535508535748 2983.250414904781
1666.9955164762814 2485.125896048313
1667.7373024864555 2622.6970340108683
1668.478908930916 2833.375117025294
1669.220335856462 2412.105442080909
1669.9615833098778 2546.5731219701256
1670.7026513379296 2451.47242999844
1671.44353998736 2612.4242700904642
1672.1842493048916 2738.8042527849393
1672.9247793372379 2491.458060219632
1673.6651301310812 2640.4603740036127
1674.4053017330934 2462.32095164803
1675.1452941899242 2688.4348359567434
1675.885107548207 2217.7088489202806
1676.6247418545518 2464.165889727544
1677.3641971555535 2489.573111974946
1678.1034734977893 2572.9772511365
1678.8425709278108 2398.567134805824
1679.5814894921605 2657.721723550917
1680.320229237359 2361.2205086496415
1681.0587902098978 2617.555549812837
1681.7971724562685 2479.547866584104
1682.5353760229264 2556.742110576589
1683.2734009563173 2528.7589239490153
1684.0112473028657 2393.9765004548217
1684.7489151089794 2562.255350557316
1685.4864044210462 2618.8590301823588
1686.2237152854377 2265.0786982199443
1686.960847748498 2630.690073998249
1687.6978018565642 2280.9814676957344
1688.434577655944 2302.5303225434445
1689.1711751929379 2386.575245672569
1689.9075945138156 2541.9584265024687
1690.6438356648396 2311.7757952172356
1691.3798986922448 2082.569784188567
1692.1157836422499 2374.046098905843
1692.851490561059 2289.2187259289103
1693.587019494853 2352.7959967007782
1694.3223704897991 2139.823553815846
1695.0575435920364 2078.993875177233
1695.792538847696 2478.0370035823353
1696.527356302886 2339.6976928219565
1697.2619960036936 2225.318165473679
1697.9964579961907 2222.745435489541
1698.730742326432 1830.9769298340009
1699.4648490404488 1950.5413561428643
1700.1987781842563 2096.644319093914
1700.9325298038548 2470.8815350428677
1701.6661039452174 2437.1517667184066
1702.3995006543082 2203.1412551542917
1703.1327199770658 2344.1226188825876
1703.865761959416 2151.085980394207
1704.598626647261 2409.3776858655597
1705.3313140864866 2123.6036713586955
1706.0638243229587 2262.4378538652504
1706.7961574025303 2344.78694537411
1707.528313371029 2234.6692945062587
1708.260292274268 1903.466652404953
1708.9920941580403 2192.4236244851627
1709.7237190681226 2154.751242690775
1710.4551670502697 2097.63926913257
1711.18643815022 1855.9786696207843
1711.9175324136959 2343.0362947327885
1712.6484498863938 2129.420880784154
1713.379190614005 1932.7201151858317
1714.109754642188 2230.269715847946
1714.8401420165883 2047.0460805253376
1715.570352782839 2240.629474114094
1716.3003869865497 2158.5464796429387
1717.0302446733076 2054.0069143715236
1717.7599258886876 2088.6692276115355
1718.4894306782444 2267.3685769682775
1719.2187590875183 2019.1314464389693
1719.9479111620203 2154.6515776724173
1720.6768869472544 2054.734754113968
1721.4056864887025 2415.1565869137034
1722.1343098318284 2348.3001114262493
1722.8627570220742 1985.059917480858
1723.591028104871 2032.56163000263
1724.3191231256242 1917.7908888702539
1725.0470421297232 2061.386262224215
1725.7747851625427 2184.7290380617114
1726.5023522694337 2185.3320787176713
1727.2297434957363 2162.4261672477896
1727.9569588867635 1898.9592032045407
1728.6839984878152 2153.2755860568677
1729.4108623441734 1756.82908226156
1730.1375505011038 2130.155394433493
1730.8640630038426 2071.355679017975
1731.5903998976264 1920.4913285609243
1732.316561227657 2100.404665316209
1733.0425470391274 1920.1527236258996
1733.7683573772065 2136.4388472400765
1734.4939922870508 1908.8198558629545
1735.2194518137949 2020.6003226618857
1735.9447360025606 2080.7470797199435
1736.669844898439 2012.8071021265782
1737.3947785465189 1903.3697242631654
1738.1195369918605 1882.9133307887466
1738.8441202795093 1901.247764714163
1739.5685284544943 2084.6751655924645
1740.292761561821 2048.5620353859267
1741.0168196464838 2055.9581650940595
1741.7407027534518 2007.37911502816
1742.464410927687 2011.6607320539424
1743.187944214118 1984.5465808183562
1743.9113026576688 1843.868004343495
1744.634486303241 1991.2478591173585
1745.3574951957125 1812.1705844982687
1746.0803293799509 2060.085943115314
1746.8029889008048 1899.4734756629568
1747.5254738031017 2135.780112807085
1748.2477841316504 1770.4697844539467
1748.969919931249 1970.0687529318889
1749.6918812466665 1870.7148207515995
1750.4136681226646 2234.9637126361868
1751.1352806039777 2064.4059086687753
1751.856718735331 1872.60716819448
1752.5779825614281 1897.1752608200175
1753.2990721269507 1966.965443063496
1754.0199874765676 2120.234166500296
1754.7407286549314 1820.9986971486014
1755.4612957066693 1929.8352452284776
1756.1816886763954 1962.1871999743046
1756.9019076087097 2037.365930581806
1757.6219525481865 2154.6670709974164
1758.3418235393856 2018.2720330275874
1759.061520626854 2013.8868064320977
1759.7810438551096 2015.6301425041759
1760.5003932686614 1825.2697941967672
1761.2195689119999 2157.0451968701955
1761.938570829594 1837.1905648842217
1762.657399065898 1968.5173404508198
1763.376053665348 1980.7305646454547
1764.0945346723602 1784.0193195279476
1764.812842131334 2107.1582482523295
1765.5309760866512 1893.9866485219184
1766.2489365826787 1922.4910843623638
1766.9667236637597 2016.6131902568104
1767.684337374223 1674.3563056944731
1768.401777758383 1622.3450930757292
1769.1190448605284 1809.2509385690678
1769.836138724937 1702.7334432679527
1770.5530593958665 2017.1254617671643
1771.2698069175603 2079.755779764958
1771.9863813342326 1939.8051301220385
1772.702782690094 1808.2064737168726
1773.4190110293293 1953.3943242256541
1774.1350663961111 2144.134668295751
1774.8509488345844 1783.6787396032628
1775.5666583888924 1915.9814147051366
1776.2821951031437 2067.55623101824
1776.9975590214362 1876.2666317159951
1777.7127501878585 2068.8121047290565
1778.4277686464684 2024.686601784569
1779.1426144413108 2165.7319248884037
1779.8572876164162 2017.6005730140205
1780.571788215797 1895.8249624430005
1781.2861162834415 1920.1610129792607
1782.0002718633277 1857.7218349129694
1782.7142549994132 1917.537596019502
1783.4280657356376 1998.3553841251155
1784.141704115922 1736.3639132254561
1784.855170184177 1949.3207320986683
1785.5684639842839 2026.7506186195853
1786.2815855601148 1716.1146627717558
1786.9945349555237 1965.7351796471442
1787.707312214343 1742.916915316245
1788.4199173803918 2119.5477253470813
1789.132350497468 1883.810464855154
1789.8446116093583 1758.215153927349
1790.556700759822 1905.5846592767107
1791.2686179926077 1657.89862487143
1791.9803633514493 1821.0654359353334
1792.6919368800554 1658.3682952006668
1793.4033386221236 1905.1191205615312
1794.1145686213295 1918.6122570070888
1794.8256269213307 2094.9148265070376
1795.536513565774 2060.256852913241
1796.247228598284 1648.3732993141389
1796.9577720624693 1785.5065268708975
1797.6681440019165 1822.6657343319973
1798.3783444602013 1874.6477083628592
1799.0883734808776 2025.4341240029692
1799.7982311074884 1936.6263127450068
1800.5079173835475 1737.872287238118
1801.2174323525633 1985.9756111750808
1801.9267760580187 1820.5868803141705
1802.635948543386 1969.7413304936267
1803.3449498521113 1824.6356789087852
1804.0537800276325 1910.1666898243777
1804.7624391133668 1797.9143253442903
1805.47092715271 1688.0268485706297
1806.1792441890484 1729.7489926891626
1806.8873902657433 1961.5470705988118
1807.5953654261448 1846.7054191641823
1808.3031697135812 1695.1732444760587
1809.0108031713662 1913.3730486669847
1809.71826584279 1882.2573555176198
1810.425557771141 1846.867182759647
1811.1326789996747 2248.6515953123235
1811.839629571632 1904.8423832259155
1812.5464095302468 1762.3652687961276
1813.2530189187182 1938.3551868011177
1813.959457780249 1775.5993770097652
1814.6657261580076 1968.3691521385492
1815.371824095153 1757.030848520582
1816.0777516348262 1923.2655331867204
1816.78350882015 1614.8305748074972
1817.4890956942272 1689.2584531320676
1818.1945123001533 1731.1779436342945
1818.8997586809928 1795.7856063340846
1819.6048348798067 1815.2265847876715
1820.3097409396287 1742.4402400590516
1821.0144769034796 2027.6572962924406
1821.7190428143622 1921.1722880132722
1822.423438715261 2104.097715541391
1823.1276646491478 1760.5194423872504
1823.8317206589727 1871.0706021421715
1824.5356067876692 1929.5185149535785
1825.2393230781581 1798.858950980001
1825.942869573335 1574.81251921804
1826.646246316086 1679.4045777790084
1827.3494533492758 1945.516208763324
1828.052490715756 1846.729062346145
1828.7553584583547 1674.737802825674
1829.458056619891 1873.8500066812187
1830.1605852431585 1685.0443658727759
1830.8629443709433 1618.2980980965906
1831.5651340460063 1634.9914912732906
1832.2671543110919 1836.4002595387756
1832.9690052089318 1788.4732599616677
1833.6706867822395 1609.8153478305403
1834.3721990737104 2001.9831130833747
1835.0735421260233 1938.585861793955
1835.774715981841 1923.634615638716
1836.4757206838058 1708.2986851120393
1837.1765562745459 1492.8275479788022
1837.8772227966747 1487.8755252505155
1838.5777202927839 1770.3729639142155
1839.2780488054523 1743.7863436462412
1839.9782083772352 1594.0789914942882
1840.6781990506806 1638.867567951835
1841.378020868313 1683.6911776024276
1842.0776738726418 1763.2158009082275
1842.777158106157 1742.255432060701
1843.4764736113375 1698.8522914662467
1844.1756204306403 1817.2815992432413
1844.8745986065078 1844.9783481303225
1845.5734081813607 1560.1419742580988
1846.2720491976124 1614.2034100633055
1846.970521697649 1665.179540383093
1847.6688257238511 1669.0964221149861
1848.3669613185684 1671.1201570688547
1849.0649285241452 1610.1116896113358
1849.7627273829057 1626.9105071222464
1850.460357937156 1852.435123973708
1851.1578202291857 1459.5443722668272
1851.8551143012664 1789.7059832123855
1852.5522401956569 1813.5949684463073
1853.2491979545957 1918.8010660967952
1853.9459876203055 1489.5654537719197
1854.6426092349902 1523.8367106643252
1855.3390628408451 1728.1933377056425
1856.0353484800362 1906.2298826792837
1856.7314661947203 1690.077295353502
1857.4274160270397 1513.3950058077917
1858.123198019115 1566.4785959541
1858.8188122130487 1568.5856825508426
1859.5142586509319 1686.7431859876992
1860.209537374838 1643.8517742560143
1860.9046484268183 1646.849780898167
1861.599591848917 1942.3825011297765
1862.294367683151 1654.5356223637111
1862.988975971528 1600.0984590320052
1863.6834167560355 1767.4146299523031
1864.3776900786452 1731.2295209156214
1865.0717959813119 1593.9280943766485
1865.7657345059724 1679.6479857900874
1866.4595056945564 1704.458853155225
1867.1531095889586 1806.2073636410537
1867.846546231076 1705.4352505374616
1868.5398156627743 1862.5696070461242
1869.2329179259123 1591.0476903950612
1869.9258530623283 1586.2849340425319
1870.618621113843 1581.480901969703
1871.3112221222636 1514.31065248514
1872.0036561293764 1569.9467329403703
1872.695923176956 1839.2188594418033
1873.3880233067594 1768.4672581682858
1874.0799565605212 1482.8286622181104
1874.7717229799673 1573.8268911769264
1875.4633226068036 1876.5928309614683
1876.1547554827175 1753.6972809835304
1876.8460216493859 1640.3251666038218
1877.5371211484617 1675.2466230746018
1878.2280540215852 1813.6998905968012
1878.9188203103804 1548.6876779912468
1879.6094200564548 1719.9954833238462
1880.299853301396 1676.1034575387778
1880.9901200867826 1843.2919134279127
1881.6802204541673 1672.4110179733893
1882.3701544450942 1639.8684512298673
1883.059922101087 1595.6935481906928
1883.7495234636517 1932.2790037433151
1884.4389585742792 1683.385607100537
1885.1282274744517 1675.604817923117
1885.8173302056166 1642.8381498312895
1886.506266809225 1610.0303948317546
1887.195037326701 1471.8424479724824
1887.8836417994517 1681.93962761326
1888.5720802688702 1898.6330546584038
1889.260352776333 1806.9928338731813
1889.9484593632042 1677.6471647608378
1890.63640007082 1564.2670912524463
1891.3241749405151 1685.720813891404
1892.0117840135954 1736.4842447967173
1892.6992273313572 1681.334245115239
1893.3865049350788 1473.2282371436881
1894.0736168660223 1569.8036716228123
1894.7605631654333 1666.4754796058805
1895.4473438745408 1504.5665591156921
1896.133959034556 1542.1041374416097
1896.820408686679 1579.6164117902779
1897.506692872088 1799.9614177044336
1898.192811631945 1635.6667600764654
1898.8787650073991 1616.737227694485
1899.5645530395832 1708.1895140003103
1900.2501757696118 1937.4315630008919
1900.9356332385796 1924.8322426660197
1901.620925487574 1912.3639932467681
1902.3060525576602 1634.6198989508935
1902.9910144898859 1775.1723880095046
1903.6758113252872 1428.7877281626427
1904.3604431048789 1672.4289879917433
1905.0449098696663 1677.9157926708187
1905.7292116606295 1691.6356337524383
1906.4133485187394 1672.503644322327
1907.0973204849488 1635.4732086271938
1907.7811276001976 1598.327877201405
1908.4647699053967 1617.3899986014465
1909.1482474414588 1460.3564790512557
1909.8315602492694 1481.9351968028236
1910.5147083696957 1535.1651827071696
1911.1976918436012 1588.402791673209
1911.880510711815 1643.9476322057185
1912.5631650151681 1786.9934156182085
1913.2456547944657 1653.7331387288718
1913.927980090495 1536.8593140133642
1914.6101409440362 1605.3165847901942
1915.2921373958416 1643.410725760167
1915.9739694866603 1563.2894370453319
1916.655637257214 1919.6259113659503
1917.3371407482136 1578.6110005112196
1918.0184800003572 1895.66415844383
1918.6996550543154 1727.4060767269814
1919.3806659507554 1820.4202881242732
1920.0615127303208 1838.2782163394586
1920.7421954336423 1754.8337500714447
1921.4227141013343 1890.5274336910575
1922.103068773993 1617.256027699087
1922.783259492202 1825.5708633107738
1923.4632862965227 1619.9932274359107
1924.1431492275078 1483.166891908583
1924.8228483256917 1444.0968750429645
1925.5023836315922 1696.0306401432401
1926.1817551857057 1400.5214836144987
1926.8609630285227 1796.7892466498263
1927.5400072005123 1666.4955437634003
1928.218887742125 1556.647785743603
1928.8976046938005 1681.796831168592
1929.5761580959588 1807.3104472953219
1930.2545479890086 1754.8649026029864
1930.9327744133352 1500.337996622607
1931.6108374093164 1724.1603174618751
1932.2887370173066 1484.1110478176215
1932.9664732776473 1746.6008117925921
1933.6440462306673 1554.5467812949723
1934.3214559166754 1477.7904259055233
1934.9987023759659 1669.537366034651
1935.675785648813 1750.8377840269354
1936.3527057754836 1442.613725821248
1937.029462796223 1456.4709036639429
1937.70605675126 1470.391941675893
1938.3824876808085 1511.966290787795
1939.058755625072 1381.301294039517
1939.7348606242267 1465.825968974545
1940.4108027184448 1548.6467824058896
1941.0865819478713 1498.3527463696769
1941.7621983526478 1447.934264763188
1942.4376519728921 1503.2190151049965
1943.1129428487038 1565.3148541158212
1943.7880710201734 1497.926611147049
1944.4630365273733 1592.74630254363
1945.1378394103576 1279.853099436999
1945.8124797091714 1270.5527684301946
1946.4869574638324 1261.189538376955
1947.161272714353 1531.5502070501268
1947.8354255007234 1706.7792143601223
1948.5094158629272 1587.5095000279402
1949.1832438409183 1683.739238571407
1949.8569094746435 1614.5653468899995
1950.530412804037 1777.8520031542084
1951.2037538690092 1581.5605597505198
1951.8769327094578 1556.7382342925177
1952.5499493652678 1516.2856410925042
1953.222803876306 1732.4307718703108
1953.895496282421 1584.8600879913988
1954.5680266234522 1548.985268751361
1955.2403949392155 1510.0699678498056
1955.9126012695142 1282.84778832201
1956.5846456541403 1546.1509370488807
1957.2565281328643 1479.778197895586
1957.9282487454457 1605.8509750375733
1958.5998075316202 1599.6758033777473
1959.27120453112 1593.5578216332165
1959.9424397836501 1494.934626081307
1960.613513328908 1662.7640741902637
1961.2844252065697 1792.5958504176535
1961.9551754563017 1552.4951701104578
1962.6257641177453 1435.7463900120952
1963.29619123054 1467.2029251485387
1963.966456834296 1275.3318878623252
1964.6365609686181 1272.1537076222635
1965.306503673086 1363.4689631566214
1965.976284987275 1454.8483637913857
1966.645904950734 1627.1204222870315
1967.315363603002 1363.5599715847861
1967.9846609836077 1558.5239928056894
1968.6537971320486 1617.349596728525
1969.3227720878222 1567.5302699723773
1969.9915858904042 1471.2264054257726
1970.660238579252 1632.7729177718325
1971.3287301938108 1592.893591311768
1971.997060773514 1302.929483762256
1972.665230357772 1526.3782298641172
1973.3332389859843 1314.5836008135964
1974.0010866975335 1316.651972102743
1974.6687735317864 1538.0080054766954
1975.3362995280932 1524.4533527883766
1976.003664725793 1348.350878880368
1976.6708691642052 1519.4111178077535
1977.3379128826364 1396.55692810913
1978.004795920373 1647.32352749698
1978.6715183166925 1427.6008078658401
1979.3380801108524 1645.2178322174045
1980.0044813420973 1462.68105406212
1980.6707220496555 1357.8469637076807
1981.3368022727373 1295.9186280910224
1982.0027220505417 1266.9886271066396
1982.66848142225 1238.1075150126494
1983.3340804270283 1210.253355148449
1983.999519104027 1545.2793092093052
1984.6647974923835 1621.1015793103682
1985.329915631215 1673.9564535723616
1985.99487355963 1492.5938388601805
1986.6596713167146 1597.6409182594728
1987.3243089415428 1513.441548986438
1987.9887864731754 1657.9037524765722
1988.6531039506553 1687.0584392750188
1989.3172614130071 1716.2716929309431
1989.9812588992481 1461.0367373858587
1990.645096448372 1336.8916262965763
1991.3087740993633 1556.8178593382174
1991.9722918911848 1346.4308257528053
1992.635649862792 1409.5687678637833
1993.2988480531185 1692.1832171022336
1993.9618865010852 1793.4655604091872
1994.6247652455968 1418.8579817527493
1995.287484325545 1284.9302993367778
1995.9500437798033 1613.7256510207633
1996.6124436472292 1249.112431398435
1997.2746839666706 1574.639566142963
1997.936764776954 1537.6604348591231
1998.598686116895 1475.9824399129254
1999.2604480252903 1434.1258813195923
1999.9220505409212 1392.1162007739688
2000.5834937025593 1255.8611177333257
2001.2447775489582 1520.6134169859745
2001.9059021188514 1392.247400017484
2002.5668674509616 1452.2072664723485
2003.2276735839987 1479.1235911929002
2003.8883205566508 1677.3926007895188
2004.5488084075987 1443.9796537961292
2005.2091371755014 1403.6114128506774
2005.8693068990033 1337.378651578676
2006.5293176167397 1294.9632612291912
2007.1891693673224 1252.592506552278
2007.848862189354 1170.8294731894873
2008.5083961214223 1423.4367725133245
2009.1677712020955 1358.5242836457674
2009.8269874699254 1300.8358928674065
2010.4860449634598 1205.5554773612932
2011.1449437212177 1110.0963684031124
2011.8036837817108 1526.6183907428317
2012.4622651834325 1749.7027922252946
2013.1206879648653 1653.7693327723093
2013.7789521644736 1458.8937116576535
2014.4370578207036 1632.525870502001
2015.0950049719922 1448.5977700805117
2015.7527936567585 1574.1650098063144
2016.4104239134067 1627.1692384549533
2017.067895780323 1775.4689117665835
2017.725209295886 1810.796185449923
2018.3823644984514 1846.1777632925362
2019.0393614263648 1527.9209529964896
2019.6962001179545 1306.630651060514
2020.3528806115355 1525.6628083948597
2021.0094029454067 1461.6128602266633
2021.6657671578487 1251.1036615270991
2022.321973287133 1436.8187733390448
2022.9780213715148 1359.6612708484383
2023.6339114492293 1484.0081252162795
2024.2896435585026 1529.3277876788773
2024.9452177375442 1377.9456499044186
2025.600634024544 1628.1813136013727
2026.2558924576842 1425.8073314864196
2026.9109930751292 1497.4861129334754
2027.565935915025 1267.1204126917703
2028.2207210155066 1667.6078271472502
2028.8753484146964 1788.929439162744
2029.529818150695 1696.6042168940585
2030.1841302615903 1603.8699598006904
2030.8382847854573 1217.4168986993307
2031.4922817603601 1309.9194604289164
2032.1461212243357 1440.8507479735981
2032.7998032154192 1158.5164074062484
2033.4533277716218 1476.9557791849531
2034.1066949309443 1201.4495741183123
2034.7599047313688 1361.907063228458
2035.4129572108704 1755.8480334888313
2036.0658524074006 1726.3350008923535
2036.7185903589016 1416.8432087322603
2037.3711711032956 1506.2384732276864
2038.023594678496 1307.7447848727572
2038.675861122394 1297.987679029515
2039.3279704728757 1244.6419379080924
2039.9799227678031 1191.2890812615167
2040.6317180450278 1351.3761758167373
2041.2833563423865 1507.4693198264943
2041.9348376977014 1609.4661956460777
2042.5861621487784 1566.9275745116402
2043.2373297334088 1564.3007404276416
2043.8883404893695 1448.837855362052
2044.5391944544208 1626.734800335086
2045.1898916663158 1577.872929107778
2045.8404321627804 1754.7663009662028
2046.4908159815368 1382.0718560852379
2047.1410431602853 1573.3705564246943
2047.7911137367173 1229.0188830313837
2048.441027748504 1594.0977709510012
2049.090785233302 1194.3066357078485
2049.7403862287592 1404.7373093897093
2050.389830772503 1304.312029365657
2051.0391189021466 1517.2852558070817
2051.688250655294 1432.664337045832
2052.337226069527 1313.1730827134838
2052.986045182417 1504.282801621367
2053.634708031521 1193.4183325289298
2054.283214654375 1415.3673875049471
2054.931565088511 1183.039758804203
2055.579759371436 1223.5978324656448
2056.2277975406523 1273.2068779119431
2056.8756796336384 1300.7231210265263
2057.5234056878617 1328.1092810260434
2058.1709757407752 1226.8239028724358
2058.8183898298194 1513.7855100994566
2059.465647992416 1642.1280912703994
2060.1127502659747 1542.647331657114
2060.759696687888 1665.7559199748473
2061.4064872955405 1788.9071065051608
2062.053122126292 1550.018494888157
2062.699601217497 1496.4969527337548
2063.345924606485 1443.0456614225966
2063.992092330587 1520.670407433549
2064.638104427102 1405.4946731718635
2065.283960933324 1745.5179426277452
2065.92966188653 1611.0930768417752
2066.5752073239855 1729.9537029856797
2067.2205972829397 1602.2531464584576
2067.86583180062 1474.451438768334
2068.5109109142522 1398.8901883127805
2069.15583466104 1415.4763001750648
2069.8006030781708 1432.0792887848672
2070.445216202821 1568.3234884475057
2071.089674072153 1713.797842495056
2071.7339767233116 1611.9407881855602
2072.3781241934303 1401.6161887449236
2073.0221165196253 1568.94796167691
2073.6659537390024 1461.2655702184688
2074.3096358886505 1339.8109852552097
2074.953163005637 1218.2692887739454
2075.596535127028 1279.6654238300341
2076.2397522898664 1185.4646869807607
2076.882814531182 1477.2011394011606
2077.5257218879924 1450.6391196302066
2078.1684743973 1141.8637522738784
2078.8110720960885 1164.3790644871099
2079.453515021336 1288.5314218054978
2080.095803209997 1412.793030684242
2080.7379366990135 1489.432932491441
2081.37991552532 1349.8607309916763
2082.0217397258275 1431.0954342155121
2082.6634093374414 1426.0719958820905
2083.3049243970418 1421.101586977313
2083.9462849415067 1388.5540634757988
2084.587491007689 1341.0766166022363
2085.2285426324324 1443.7190452695286
2085.869439852564 1406.7970433946862
2086.510182704902 1463.5306258406451
2087.1507712262483 1520.3685220088441
2087.791205453381 1186.8664502320503
2088.4314854230743 1531.0517947093456
2089.0716111720867 1246.8481122024505
2089.7115827371617 1180.523080698365
2090.351400155023 1199.558492914117
2090.991063462385 1218.688689439412
2091.6305726959527 1307.2159779113804
2092.2699278924047 1235.6939210051426
2092.9091290884153 1164.0704211122134
2093.548176320641 1273.9834739161174
2094.187069625721 1450.8110400544992
2094.8258090402887 1169.0645235742234
2095.464394600951 1382.5017922156087
2096.102826344313 1402.8011719523508
2096.741104306955 1191.7377979981547
2097.379228525453 980.2070884608817
2098.017199036358 1170.846371012591
2098.6550158762147 1248.1587498090043
2099.2926790815527 1325.6278749496714
2099.9301886888825 1565.6557032032624
2100.5675447347076 1479.8233146138439
2101.2047472555114 1635.2721427617066
2101.841796287761 1445.0484993139753
2102.47869186792 1508.2760128052184
2103.1154340324265 1261.7186959469132
2103.752022817709 1374.8399829410257
2104.388458260184 1308.5135523079946
2105.024740396251 1373.1110595469547
2105.660869262292 1281.6197052621103
2106.296844894685 1623.4091887758439
2106.93266732978 1487.8214287521196
2107.5683366039284 1202.3320038407787
2108.2038527534532 1369.1790487697601
2108.8392158146726 1328.2826277854626
2109.4744258238843 1287.3091946452546
2110.1094828173755 1242.039207194624
2110.744386831422 1338.804792785138
2111.3791379022787 1435.8449026385254
2112.01373606619 1558.5166626640787
2112.648181359389 1247.3741817658263
2113.28247381809 1379.7740959247337
2113.916613478492 1433.6574785200867
2114.550600376786 1562.8622977148275
2115.1844345491445 1488.1185015629583
2115.818116031729 1239.1382785282817
2116.451644860679 1296.459690324625
2117.085021072133 1257.5184326742497
2117.718244702204 1200.1335706753237
2118.3513157869984 1305.0233803895296
2118.984234362604 1204.6725013155883
2119.617000465092 1330.4342252493575
2120.249614130529 1350.45952706873
2120.8820753949585 1370.5187750514644
2121.5143842944162 1307.878847045744
2122.14654086492 1150.707420692723
2122.7785451424734 1473.7492380257195
2123.4103971630702 1553.4842209223546
2124.042096962681 1633.5754997921326
2124.6736445772767 1498.840173508704
2125.305040042802 1276.1497723448304
2125.936283395191 1395.3504568879953
2126.567374670365 1377.3699806166528
2127.198313904233 1283.6028440101932
2127.8291011326855 1218.6287960251425
2128.4597363916037 1153.3739942592829
2129.0902197168507 1482.6081868723181
2129.720551144279 1221.2313317120665
2130.3507307097225 1665.3619682930726
2130.980758449008 1791.0239558223088
2131.6106343979427 1613.805340381839
2132.2403585923203 1436.3036264057241
2132.8699310679276 1606.7455646169824
2133.499351860526 1468.932481397311
2134.1286210058715 1478.3903040140276
2134.7577385397053 1480.3996108036713
2135.3867044977487 1482.4796271028176
2136.0155189157176 1653.5764434007033
2136.644181829308 1564.558884052513
2137.2726932742025 1620.2400444553325
2137.901053286074 1676.094571795673
2138.5292619005777 1386.3179186642133
2139.1573191533535 1386.2785246688325
2139.7852250800315 1628.9464115536277
2140.4129797162295 1582.62265422664
2141.0405830975433 1128.0864932563704
2141.6680352595613 1152.4868904161851
2142.2953362378576 1176.9471523044915
2142.9224860679915 1382.7595352237217
2143.549484785508 1222.2427068287486
2144.1763324259373 1372.8006718049232
2144.803029024799 1157.4353877149447
2145.429574617594 1282.7532748320252
2146.0559692398165 1417.084372629392
2146.682212926942 1230.1581980676872
2147.308305714432 1389.8575935203717
2147.9342476377333 1550.9506224704912
2148.5600387322847 1514.953207645201
2149.185679033506 1532.4226860855147
2149.8111685768017 1344.8695674429246
2150.4365073975678 1319.1103812120577
2151.061695531187 1349.6059193716105
2151.686733013021 1570.6269125433284
2152.311619878423 1385.5439752260675
2152.9363561627342 1265.3806438691126
2153.560941901278 1452.455907789509
2154.1853771293663 1281.9274589696715
2154.809661882293 1430.5662501846957
2155.433796195348 1450.786816043902
2156.0577801037944 1508.1183645455435
2156.681613642895 1513.9253261199947
2157.3052968478896 1344.7220265610244
2157.928829754006 1404.402541637324
2158.552212396462 1433.2824261128212
2159.1754448104566 1279.4228450490114
2159.7985270311783 1215.725350410047
2160.4214590938027 1077.2887925141247
2161.0442410334927 1236.8383929215233
2161.6668728853874 1047.3995320453482
2162.289354684628 1193.7654162073472
2162.911686466332 1229.789881466849
2163.533868265602 1397.947147986129
2164.1559001175337 1808.7208482582714
2164.7777820572046 1589.6824745352765
2165.399514119681 1248.2087741539358
2166.021096340013 1104.9651109106326
2166.6425287532384 1155.2529344322913
2167.263811394385 1205.690277627494
2167.8849442984574 1617.125629691913
2168.505927500455 1084.2043240114515
2169.126761035366 1387.0038070882083
2169.7474449381552 1439.714366630989
2170.367979243778 1412.8297618585598
2170.9883639871823 1385.9330540868866
2171.608599203293 1267.107803025088
2172.2286849270276 1852.3325237100757
2172.8486211932886 1877.1691805223497
2173.4684080369625 1177.3021430252259
2174.0880454929265 1009.9172690076173
2174.7075335960417 1086.4676960778284
2175.3268723811543 1195.6132187418675
2175.9460618831 1305.0504164972515
2176.565102136701 1196.6764116590978
2177.1839931767627 1300.4797437229322
2177.802735038078 1404.5760878699589
2178.421327755432 1070.972338787305
2179.0397713635866 1380.292549154052
2179.658065897298 1003.0063213749088
2180.276211391305 1328.96143007426
2180.8942078803357 1125.8301801530151
2181.5120553991 1310.608034092642
2182.129753982299 1239.6591448425897
2182.7473036646206 1384.6836447795663
2183.3647044807367 1289.5071940277016
2183.9819564653044 1445.0991522777304
2184.599059652968 1601.116076696861
2185.216014078367 1508.675277065678
2185.832819776113 1542.9183125551576
2186.4494767808137 1577.1543495225926
2187.065985127063 1459.7395756974245
2187.682344849436 1317.55625196205
2188.298555982501 1372.9701875657272
2188.9146185608097 1428.3921821137317
2189.530532618901 1440.4067741202628
2190.1462981912937 1260.7798383703143
2190.761915312507 1551.620937832915
2191.377384017036 1491.717197190649
2191.9927043393654 1397.700258326246
2192.6078763139667 1067.541813998435
2193.2228999753006 1144.40276806906
2193.837775357808 1221.4390858136462
2194.452502495922 1122.7914866752833
2195.0670814240602 1186.9459782060571
2195.6815121766285 1304.696763138922
2196.2957947880186 1266.205240109473
2196.9099292926057 1227.6404209765124
2197.523915724758 1354.062912781497
2198.137754118825 1377.5300289190873
2198.7514445091456 1725.0167275190477
2199.3649869300443 1663.5154813754543
2199.9783814158327 1601.94045622513
2200.5916280008096 1829.3714814684652
2201.2047267192593 1477.0939164885865
2201.8176776054515 1431.8076039650527
2202.430480693649 1339.214069273989
2203.0431360180955 1279.7689077920445
2203.6556436130195 1185.396452805233
2204.268003512645 1504.831983176064
2204.8802157511727 1423.1788403266569
2205.492280362796 1563.63365976188
2206.1041973816937 1581.3337432313012
2206.715966842032 1418.2101701544264
2207.3275887779655 1410.3956388549975
2207.93906322363 1402.4200430921833
2208.550390213153 1530.7608195448381
2209.1615697806465 1219.5073780518273
2209.7726019602105 1021.7130640629364
2210.3834867859277 1203.0564021404239
2210.9942242918787 1390.1101707626854
2211.6048145121167 1257.961391270558
2212.2152574806914 2031.5225596230302
2212.825553231638 1268.9195499743605
2213.435701798975 2013.5907679942889
2214.045703216707 1349.5718296242146
2214.655557518832 1122.523804870327
2215.2652647393297 1164.6395676061643
2215.874824912169 923.1711236091681
2216.4842380713 1137.3622750020854
2217.09350425067 1467.3820246807852
2217.7026234842033 1382.3588407009688
2218.311595805819 1629.3988706695513
2218.9204212494133 1288.672182153627
2219.52909984888 1794.7613391483578
2220.137631638092 1778.786131764782
2220.7460166509154 1762.6650820834243
2221.354254921198 1372.911279062339
2221.9623464827764 1629.6550289715537
2222.5702913694713 1302.2030230094983
2223.178089615096 1555.0390481335703
2223.7857412534486 1094.5066222998983
2224.39324631831 1108.484657431418
2225.000604843457 1167.1574435455534
2225.607816862641 1312.4668968670076
2226.214882409611 1457.9414409660499
2226.8218015180973 1581.8617873824328
2227.4285742218217 1290.7628338368618
2228.0352005544864 1507.1491128120074
2228.6416805497847 1248.8050326406424
2229.248014241399 1337.8288653760699
2229.8542016629945 1160.2568350984272
2230.460242848223 1356.668471557497
2231.0661378307304 1313.9203739782815
2231.671886644139 1271.1587787887972
2232.277489322065 1126.6715304217237
2232.8829458981127 1288.0332190370889
2233.48825640587 1449.6092547496967
2234.0934208789095 1770.7989947142567
2234.6984393507955 1802.5748533147648
2235.3033118550793 1668.269530302102
2235.9080384252975 1484.2333647424507
2236.5126190949723 1183.1899771189796
2237.1170538976166 1106.7026579496128
2237.721342866729 1209.2285254801975
2238.32548603579 1311.9240051309812
2238.9294834382763 1510.7004148147857
2239.533335107646 1195.3029137749077
2240.1370410773434 1201.3746984604604
2240.740601380803 1207.4517909963893
2241.3440160514474 1412.6256483310428
2241.9472851226783 1288.7886407830595
2242.550408627896 1434.8093044980365
2243.1533866004793 1581.098581603244
2243.756219073799 1452.7420820236534
2244.3589060812064 1259.2623424545666
2244.961447656049 1204.2732943353542
2245.5638438316564 1378.3153030645421
2246.166094641343 1400.3319642598494
2246.7682001184166 1348.3802735351226
2247.3701602961664 1466.8218570396843
2247.971975207871 1428.2101360422155
2248.5736448867974 1766.7593262871148
2249.175169366197 1558.7817919080908
2249.7765486793123 1588.4158043561602
2250.3777828593684 1617.9914321688216
2250.9788719395783 1581.932178922341
2251.579815953146 1371.2500173165686
2252.1806149332606 1410.1792575297688
2252.781268913097 1449.119459059562
2253.381777925817 1216.919034349025
2253.9821420045737 1322.3054730247216
2254.5823611825035 1652.2316816679927
2255.1824354927303 1312.011201126144
2255.782364968365 1264.2167479161249
2256.38214964251 1216.3955360953946
2256.9817895482483 1410.8062145682836
2257.5812847186553 1449.4329136497927
2258.180635186791 1219.2330631866519
2258.779840985704 1336.050394986637
2259.37890214843 1441.063105554486
2259.97781870799 1367.0262777720413
2260.5765906973957 1292.8682644120834
2261.175218149645 1149.154487380211
2261.773701097718 1099.5660386535242
2262.3720395745895 1049.8627006528543
2262.970233613216 1359.357685120412
2263.568283246548 1183.2690200251045
2264.1661885075137 1381.1236018742904
2264.763949429038 1306.2885376764903
2265.3615660440246 1527.209352403552
2265.959038385374 1200.2999981333537
2266.5563664859637 1518.7459726076777
2267.153550378669 1246.1969969070378
2267.7505900963424 1434.4430949992106
2268.3474856718312 1249.9016351511705
2268.9442371379664 1184.0316672261902
2269.5408445275643 1252.4137846704768
2270.1373078734377 1362.233823716589
2270.7336272083758 1339.211435280565
2271.32980256516 1170.6577709740354
2271.925833976562 1300.6281504106244
2272.5217214753357 1530.5704823756334
2273.117465094223 1263.3022188049185
2273.7130648659586 1293.7536861496435
2274.308520823257 1327.3354383369174
2274.903832998827 1287.0376893604425
2275.4990014253563 1246.6508291721834
2276.094026135528 1559.6005704517318
2276.6889071620117 1579.5671432382792
2277.2836445374614 1599.4977342484626
2277.878238294519 1436.778754595816
2278.472688465812 1337.2279106861
2279.066995083962 1237.481680551641
2279.6611581815705 1410.5347890981031
2280.255177791232 1688.634087379009
2280.8490539455233 1456.203699128135
2281.442786677013 1841.4364978573067
2282.0363760182554 1676.6395645130644
2282.6298220017943 1229.718260101014
2283.223124660155 1606.7934791154928
2283.816284025859 1252.6784396176292
2284.4093001314086 1726.0811748626816
2285.002173009292 1642.840957256572
2285.5949026919952 1559.402612127426
2286.1874892119777 1172.2755775161081
2286.7799326016993 1525.2630060048978
2287.3722328936 1135.5237457222734
2287.964390120109 1177.5429336794705
2288.556404313642 1525.0357598073892
2289.1482755066027 1315.937177486388
2289.7400037313873 1705.7876425162272
2290.3315890203703 1419.8439266486541
2290.9230314059205 1680.048550178103
2291.5143309203904 1248.2315329049775
2292.1054875961236 1081.586466996385
2292.6965014654506 1529.2580453162914
2293.287372560684 1503.828986825824
2293.878100914131 1369.7077713452818
2294.468686558086 1235.3442339848366
2295.059129524827 1317.8283922950227
2295.649429846617 1644.113608909215
2296.239587555716 1623.552569533866
2296.8296026843636 1516.6961047903856
2297.419475264791 1534.126446233096
2298.0092053292137 1551.4940503728767
2298.598792909839 1602.3925502169777
2299.1882380388597 1477.1325975498487
2299.777540748455 1438.9165360377037
2300.3667010707904 1400.556850746479
2300.9557190380256 1605.1262364438626
2301.544594682302 1739.2330230239077
2302.1333280357503 1724.0943785932038
2302.721919130485 1708.9702659363643
2303.3103679986198 1574.9461155456522
2303.898674672242 1617.8899422074805
2304.486839183437 1153.8267052559363
2305.0748615642697 1594.9595020247673
2305.6627418468015 1085.1214482548526
2306.2504800630704 1213.940644826164
2306.8380762451143 1247.6718388466795
2307.425530424949 1339.7744289667316
2308.012842634582 1432.0779811483073
2308.6000129060103 1753.3885090879899
2309.187041271214 1547.4385452073543
2309.773927762164 1833.0553530843076
2310.3606724108213 1601.5522978787399
2310.9472752491274 1559.4739573083334
2311.5337363090184 1517.3254454784922
2312.120055622414 1316.5430187979841
2312.706233221221 1062.8953492605528
2313.2922691373424 1111.7285649976527
2313.8781634026564 1249.2569264151675
2314.463916049037 1387.1021430493618
2315.049527108342 1665.0397527768132
2315.6349966124235 1760.8527421702354
2316.2203245931123 1518.1214581390363
2316.8055110822315 1274.7924914970347
2317.3905561115935 1481.0768463795432
2317.9754597129977 1493.476818638509
2318.560221918229 1505.9163327944796
2319.1448427590603 1295.4615922775579
2319.729322267256 1116.098673142064
2320.313660474563 1564.473415637208
2320.8978574127195 1529.897158842309
2321.481913113452 1495.305752488392
2322.0658276084705 1167.0422015328809
2322.6496009294806 1215.4760559298704
2323.233233108165 1314.2480450490234
2323.8167241762058 1413.2753335368955
2324.4000741652617 1530.9742570413232
2324.983283106987 1853.834861906702
2325.5663510330232 1733.2853371476679
2326.1492779749933 1497.7562706070335
2326.7320639645204 1637.4065728691162
2327.3147090332004 1201.8803148537522
2327.897213212629 1358.9006200216138
2328.4795765343843 1516.033750073388
2329.0617990300307 1141.7397533935355
2329.643880731124 1273.531159876528
2330.22582166921 1405.5591992758586
2330.807621875816 1494.6873903012452
2331.3892813824623 1306.0848416449749
2331.9708002206517 1285.2213593396484
2332.5521784218818 1345.0761568840726
2333.133416017634 1405.1126406929313
2333.7145130393765 1238.1115768027248
2334.295469518571 1564.8548469392288
2334.876285486658 1636.4913350161828
2335.456960975076 1602.4475443612796
2336.037496015242 1568.3554122119522
2336.6178906385667 1279.226419543774
2337.198144876451 1561.7082241777348
2337.778258760278 1261.6416583860514
2338.3582323214214 1099.9723080627828
2338.938065591243 1635.9513267331554
2339.517758601087 1654.9954274156921
2340.0973113822965 1424.1621509144447
2340.676723966193 1304.907299114633
2341.255996384094 1185.3747357974783
2341.835128667295 1380.1672255012359
2342.4141208470883 1390.2207842007392
2342.992972954751 1447.0632099319516
2343.5716850215467 1460.663531733832
2344.1502570787306 878.994991089967
2344.7286891575386 1437.409246992967
2345.3069812892045 1916.7625333045078
2345.885133504944 1695.575162589358
2346.4631458359618 1301.5490139925816
2347.04101831345 1163.0229584213375
2347.6187509685915 1392.1391219768186
2348.196343832553 1295.2892063286993
2348.7737969364935 1123.2659293291053
2349.351110311558 1368.5032833340545
2349.9282839888765 1231.32788307564
2350.5053179995757 1272.423545923229
2351.0822123747585 1073.8443249350744
2351.658967145526 1093.108625720881
2352.2355823429643 1112.4692181397181
2352.812057998144 1646.9953099011007
2353.3883941421263 1188.3674827488792
2353.9645908059647 1576.4414981843097
2354.540648020693 1685.4995422741915
2355.116565817336 1539.3101286102287
2355.6923442269126 1392.8180813503034
2356.2679832804224 1313.1065837719802
2356.8434830088518 1270.3150200715713
2357.41884344318 1393.7459693580556
2357.994064614377 1783.1019979987148
