#exp_cfg={"servo_angle": 0.0, "laser_lim": 100.0, "servo_angle_to": 18.0, "laser_wup": 0.0, "bt_dev": "EnSpectr-25AE3", "laser_wdn_max": 0.0, "frames": 10.0, "servo_used": 0, "servo_calib_use": 0, "laser_wdn_min": 0.0, "servo_pix_from": 90.0, "cooler_tout": 300.0, "servo_angle_from": 0.0, "servo_calib": "[-1.9174921013161362e-09, 3.9322238269163779e-05, -0.27385609119055809, 653.59552119713567]", "laser_autoctl": 0, "servo_pix_to": 3682.0, "laser_pw": 100.0, "cooler_on": 0, "laser_volt": 4.0, "cooler_autoctl": 0, "cooler_curr": 70.0, "cooler_startup": 10.0, "laser_fixed_pw": 0, "gain": 1.3, "offset": 2.53059635486, "servo_calib_degree": 3.0, "laser_curr": 55.0, "shutter": 8200.0, "servo_calib_step": 1.0, "laser_fixed_curr": 0, "exp": 2000.0, "ccd_volt": 4.7, "bt_addr": "00:06:66:62:5A:E3", "servo_delay": 500.0, "laser_autooff": 1}
#proc_cfg={"flat_auto_wnd": 200.0, "flat_auto_fr": 200.0, "flat_auto_shift": 5.0, "yconv": 1, "flatten": 1, "flatten_strength": 100.0, "xfrom": 300.0, "auto_max_frame": 2000.0, "auto_signal": 48000.0, "flat_auto_tol": 0.1, "autoclip": 1, "xrel_range": 0.0, "flat_auto_to": 4000.0, "intensity_adj": 1.0, "xrel": 7852.0, "rmhot": 1, "flat_auto_slit": 4.999999999999997, "auto_ini_exp": 300.0, "auto_off": 0, "xto": 2860.0, "flat_auto_ref": "", "flat_auto_rank": 1, "autobackg": 0, "xrel_adj": 0.0, "auto_black_lvl": 1, "base_wnd": 100.0, "sub_baseline": 0, "xconv": 2, "auto_max_exp": 1000.0, "auto_total_exp": 10000.0, "auto_exp": 0, "rmripple": 0, "black_lvl": 8284.1, "shutter_clip_adj": 0.0, "auto_bckg": 0, "flat_auto_thr": 0.9, "subbackg": 1}
316.8218498245369 22805.612832269624
317.89969571804795 22630.410651776747
318.977263876126 22566.792462613543
320.05455438786703 22382.587445881032
321.1315673423287 22354.736550465426
322.2083028285215 22441.009360507487
323.2847609354267 22250.490527948386
324.3609417519747 22125.42143049233
325.43684536705587 22012.38560929432
326.5124718695279 21931.09964816225
327.58782134820103 21935.511446924582
328.66289389184385 21973.39063839775
329.7376895891921 21689.93935248985
330.8122085289342 21785.925656883646
331.88645079971866 21644.003104432777
332.9604164901575 21545.000191854866
334.03410568881554 21496.506595844112
335.1075184842266 21731.153151194907
336.18065496487543 21357.008518806175
337.2535152192122 21365.066636326363
338.32609933564163 21357.92970144725
339.39840740253203 21221.389964741615
340.4704395082099 21119.590071690967
341.5421957409617 21188.2560526589
342.6136761890357 21141.073645201708
343.6848809406365 21140.995250151223
344.75581008392874 21007.98959102478
345.82646370703696 21040.84840593194
346.8968418980512 20900.031346046915
347.96694474501055 21053.252001018416
349.0367723359268 20955.52091241243
350.106324758759 20997.270792884276
351.1756021014353 20823.087970405355
352.2446044518383 20818.79336490163
353.31333189781435 20895.12329196778
354.38178452716966 20961.48804583746
355.449962427665 20941.042854447463
356.51786568702846 20884.5322546417
357.58549439294256 20992.40317492096
358.6528486330535 21082.920647175844
359.71992849496564 20940.70941836343
360.7867340662433 20909.184511161056
361.8532654344144 20946.561008315115
362.9195226869597 21178.989393104483
363.9855059113288 20952.439607696597
365.05121519492604 21028.63410799164
366.11665062511565 21063.580103045002
367.1818122892273 21243.45298006063
368.2467002745434 21052.973727604487
369.31131466831175 21159.73587414912
370.375655557742 21199.345295867413
371.4397230299983 21235.20600444093
372.5035171722102 21071.737228708218
373.5670380714637 21289.01544158359
374.6302858148101 21387.113767653063
375.6932604892554 21362.440921682646
376.7559621817709 21369.57487307238
377.81839097928605 21291.787835783565
378.8805469686886 21347.240437693286
379.94243023683157 21340.16146069419
381.0040408705263 21315.1264301351
382.0653789565458 21312.49116035457
383.1264445816196 21224.219314962036
384.1872378324406 21208.52584512917
385.2477587956637 21339.69350024437
386.3080075579037 21207.384488049214
387.3679842057336 21060.40061534434
388.4276888256918 21097.815133168773
389.48712150426945 21103.33325432491
390.54628232792857 21132.829847639186
391.6051713830857 21019.226070148314
392.66378875611736 21095.330548964692
393.7221345333637 20973.14914013544
394.7802088011249 20970.322390330402
395.838011645661 20887.979204120384
396.89554315319765 20841.8404593957
397.9528034099112 20835.196238115037
399.00979250194723 20760.27548409689
400.06651051541485 20705.42325424266
401.1229575363741 20736.244564332337
402.17913365085224 20653.45342622931
403.23503894483656 20668.388218790802
404.2906735042761 20556.423451408824
405.3460374150818 20477.706746859192
406.401130763119 20477.89309553118
407.455953634224 20468.674216989697
408.5105061141876 20402.831002448533
409.56478828876243 20204.13814645969
410.6188002436629 20167.59510730433
411.6725420645689 20205.500132240973
412.72601383711117 20161.66926431079
413.77921564689314 20277.565850969655
414.8321475794728 19988.272825835003
415.88480972036814 19964.60338758036
416.93720215506437 19976.17351729416
417.9893249690049 19866.57332528774
419.04117824759123 19840.805348795788
420.09276207619223 19828.452905664763
421.144076540133 19815.80887764374
422.1951217247042 19829.28762306756
423.24589771515275 19810.239046165487
424.2964045966928 19701.712632751114
425.34664245449494 19702.402058761803
426.3966113736933 19751.376513091367
427.4463114393875 19687.757973638058
428.49574273662984 19552.213851030825
429.5449053504417 19527.82483900396
430.5937993658026 19616.57754196737
431.6424248676558 19462.953178646738
432.6907819409007 19576.031136986774
433.73887067040596 19562.941095384773
434.7866911409965 19650.308225171433
435.8342434374608 19430.591995166953
436.88152764455117 19439.13892489444
437.9285438469724 19448.199823108193
438.9752921294057 19390.10168551397
440.02177257648145 19416.04474489832
441.06798527279716 19278.154424089284
442.1139303029122 19347.193438795613
443.1596077513459 19407.705248819482
444.2050177025794 19433.979338594152
445.25016024105753 19378.511101434437
446.2950354511886 19216.763147519105
447.33964341733736 19317.906234875336
448.383984223834 19223.91816189607
449.4280579549686 19228.19706964066
450.471864694995 19282.451999712
451.5154045281306 19275.076934574838
452.5586775385509 19202.32744372077
453.60168381039693 19186.487659728533
454.64442342776783 19308.025707887155
455.6868964747264 19259.259886402975
456.7291030353008 19141.748554383874
457.77104319347563 19232.919538260838
458.8127170332027 19140.187280004662
459.854124638392 19123.731412223307
460.895266092919 19264.70607850185
461.93614148061897 19246.628846995736
462.97675088529104 19298.416019034943
464.01709439069236 19247.090947514745
465.0571720805492 19274.819915738793
466.0969840385442 19229.43945210358
467.1365303483253 19399.938151421655
468.17581109350067 19236.42382805593
469.2148263576437 19177.921719355993
470.2535762242878 19312.355832658308
471.29206077693016 19323.24590437792
472.33028009902773 19470.47090572184
473.3682342740012 19498.85742341962
474.40592338523857 19560.764244404854
475.4433475160804 19641.592108020945
476.4805067498364 19679.10750670976
477.51740116978 19813.319089730052
478.5540308591426 20019.524991341168
479.59039590112116 20074.750533350583
480.6264963788726 20201.671227010527
481.6623323755193 20564.288850674107
482.6979039741436 20596.350471492864
483.7332112577915 21026.60012733433
484.76825430947247 21231.225506159943
485.80303321215797 21387.978573186847
486.837548048783 21690.423010767954
487.8717989022425 21911.21123804825
488.90578585539697 22110.946903226322
489.9395089910686 22280.543519482817
490.97296839203955 22282.303390841495
492.00616414106116 22195.495165698943
493.0390963208429 22231.869910988935
494.0717650140559 22157.17919575044
495.10417030333883 22044.0455962276
496.1363122712901 22001.917247336794
497.16819100046814 21649.158085126117
498.1998065734024 21310.479968894553
499.2311590725767 21249.32331196934
500.26224858044407 20957.855423076588
501.2930751794156 20735.002813838528
502.3236389518679 20542.37707290763
503.35393998014115 20232.20129532511
504.38397834653733 20166.51078109996
505.4137541333221 20149.462381962996
506.4432674227228 19713.438657499577
507.4725182969323 19648.82239703969
508.5015068381035 19546.92187207378
509.53023312835467 19674.78909747088
510.55869724976765 19472.360376070264
511.58689928438434 19359.372016677775
512.6148393142121 19295.057736660696
513.6425174212218 19304.532646259286
514.6699336873462 19325.9789269573
515.6970881944835 19414.325319138163
516.7239810244901 19222.881324374284
517.7506122591931 19195.66466088382
518.7769819803761 19390.696265849947
519.8030902697901 19282.76916936463
520.8289372091476 19258.408788491965
521.8545228801249 19393.14178677726
522.8798473643619 19398.543771375622
523.9049107434621 19388.475233018595
524.9297130989908 19447.807111513866
525.9542545124805 19404.901974272056
526.9785350654201 19413.47461063307
528.0025548392696 19407.97041953115
529.0263139154504 19294.74949932542
530.0498123753423 19420.423085293965
531.073050300296 19263.805381623522
532.0960277716204 19164.113759944903
533.1187448705896 19110.562741944243
534.1412016784416 18974.215883664645
535.1633982763833 18938.1037719096
536.1853347455726 18912.16879655141
537.2070111671401 18806.301167947157
538.2284276221817 18732.162488231123
539.2495841917516 18664.530843746732
540.2704809568677 18539.03855932543
541.2911179985167 18539.453132545495
542.3114953976419 18339.313267056878
543.3316132351592 18443.476922404945
544.3514715919409 18241.231081318103
545.3710705488247 18354.439023311294
546.3904101866156 18199.439018719204
547.4094905860784 18260.475024132706
548.4283118279418 18146.39723185329
549.4468739929034 18196.205576903983
550.4651771616191 18058.27971149566
551.4832214147063 17996.838097066873
552.501006832761 18039.09807568603
553.5185334963226 18006.682289653316
554.5358014859103 18079.12364966993
555.5528108820035 17957.85323132015
556.5695617650363 17911.552769512396
557.5860542154242 17956.31658804977
558.6022883135283 17862.745270703363
559.6182641396881 17845.383398609927
560.6339817741991 17892.099323622286
561.6494412973225 17886.725924783932
562.6646427892883 17900.85951622986
563.6795863302796 17761.16444581155
564.694272000459 17733.064841981166
565.7086998799423 17848.371645064686
566.7228700488104 17914.59984537674
567.7367825871115 17816.58950052367
568.7504375748576 17876.242801098393
569.7638350920224 17880.838724600348
570.7769752185486 17856.1044222272
571.7898580343353 17891.656453505362
572.802483619258 17908.95896537263
573.8148520531431 18079.215224561638
574.8269634157932 18129.93099062026
575.8388177869692 17971.639789869463
576.8504152463938 18200.942129572533
577.8617558737587 18427.43869882553
578.8728397487175 18409.547837077473
579.883666950891 18548.11246097978
580.8942375598654 18688.674279042538
581.9045516551851 18900.813142486102
582.9146093163617 19102.21069140475
583.924410622878 19048.655663716596
584.9339556541727 19083.192133514785
585.9432444896538 19441.341419992605
586.9522772086875 19311.986273669383
587.9610538906127 19337.5625969773
588.9695746147318 19327.81557398394
589.9778394603054 19390.924287165304
590.985848506567 19373.62761013129
591.9936018327098 19324.50237852155
593.0010995178891 19007.32719266747
594.0083416412344 19012.011112170534
595.0153282818283 18886.860900967866
596.0220595187293 18731.898649513856
597.0285354309508 18573.55600633474
598.0347560974806 18597.850218596963
599.0407215972609 18450.554388151075
600.0464320092051 18428.92954935375
601.0518874121954 18419.300357842807
602.0570878850685 18259.44978911301
603.062033506636 18328.98510257835
604.0667243556636 18323.326655940873
605.0711605108936 18135.48096328732
606.0753420510264 18413.032257209943
607.0792690547278 18321.460374466442
608.082941600629 18271.267614517456
609.0863597673306 18330.56552888451
610.0895236333909 18499.382538199752
611.0924332773357 18638.841859860022
612.0950887776617 18674.108427926658
613.0974902128219 18743.43255551819
614.0996376612384 19035.738047524777
615.1015312013005 19086.693758848414
616.1031709113595 19208.95512052776
617.1045568697336 19381.818946685038
618.1056891547069 19663.896892678036
619.1065678445229 19890.757498183222
620.1071930173985 20287.349656837694
621.1075647515099 20490.2985669286
622.1076831250048 20665.03727841454
623.1075482159849 21040.318493782197
624.1071601025305 21246.19276541053
625.1065188626781 21693.62283791102
626.105624574433 22084.266117109804
627.1044773157682 22337.862722169717
628.1030771646128 22738.719673226635
629.1014241988742 23022.730052377643
630.0995184964158 23273.449925189816
631.0973601350688 23543.955683096276
632.0949491926294 23715.557033535737
633.0922857468631 23508.640793848852
634.089369875499 23546.870540790813
635.0862016562278 23646.47191035978
636.0827811667077 23385.852866481335
637.0791084845641 23387.7029680716
638.0751836873878 22966.406493409195
639.0710068527369 23114.825988746197
640.0665780581294 22464.353829694614
641.0618973810506 22239.807894980426
642.0569648989604 22078.625481880845
643.0517806892676 21506.892138002942
644.0463448293649 21279.457675764927
645.040657396592 20864.598927323234
646.0347184682723 20694.041211313168
647.0285281216875 20165.162190677038
648.0220864340772 20124.776775856182
649.0153934826558 19819.226351167927
650.0084493446047 19505.77150583115
651.0012540970674 19367.12355581882
651.9938078171526 19155.863870785226
652.9861105819346 19072.990339672768
653.9781624684565 18963.35510170728
654.9699635537254 18715.412058706646
655.9615139147136 18597.49339690911
656.9528136283589 18506.001525607928
657.9438627715699 18416.544766658633
658.9346614212154 18448.928363528757
659.925209654135 18075.27022474349
660.9155075471263 18161.834244161106
661.9055551769616 18078.87156854482
662.895352620375 18166.537617114638
663.8848999540678 18099.37013555502
664.8741972547068 17826.511364468504
665.863244598926 17793.122480082842
666.8520420633213 17880.062280146907
667.8405897244611 17780.448933111245
668.8288876588758 17601.71697019968
669.8169359430613 17704.25584606052
670.8047346534822 17633.614813846714
671.7922838665672 17537.931040130494
672.7795836587156 17672.04880555973
673.766634106285 17547.207384891142
674.7534352856092 17540.297475430823
675.7399872729766 17468.802110785728
676.7262901446538 17567.292544847463
677.712343976862 17492.692823901816
678.6981488457986 17518.718848434106
679.6837048276229 17443.426069943725
680.6690119984596 17507.125042955617
681.6540704344043 17449.008195898452
682.6388802115107 17342.725568789225
683.6234414058108 17375.77021429703
684.6077540932874 17301.3199857642
685.591818349907 17384.795046884865
686.575634251587 17180.49830030868
687.5592018742263 17159.34747926784
688.5425212936734 17087.429232693958
689.5255925857564 17149.64804904682
690.5084158262707 17132.243328142275
691.4909910909646 17134.17731237353
692.4733184555644 16844.13381822993
693.4553979957618 17030.001381352144
694.4372297872123 17010.221603598602
695.4188139055404 16840.805339616323
696.4001504263324 16742.83773182898
697.3812394251509 16816.865046945044
698.3620809775111 16700.015030886774
699.3426751589104 16693.490292217728
700.3230220448004 16515.76381764628
701.3031217106054 16643.55554744276
702.2829742317172 16774.38626913661
703.2625796834873 16464.563770074565
704.2419381412474 16488.67180813749
705.22104968028 16532.291179211763
706.1999143758458 16496.142037279416
707.178532303169 16444.568231343816
708.1569035374378 16464.04087846957
709.1350281538107 16500.55009450028
710.1129062274158 16453.094948918104
711.0905378333373 16739.47399828092
712.0679230466376 16614.307668732305
713.0450619423427 16724.177015016998
714.0219545954424 16816.909004031324
714.9986010808989 16657.112802046904
715.9750014736292 16743.94662998253
716.9511558485392 16921.160436025508
717.9270642804786 16868.916689598107
718.9027268442787 16997.021622162803
719.8781436147328 16988.145831939477
720.8533146666014 16873.87872112871
721.828240074612 16922.578480762244
722.8029199134635 16879.0807978639
723.7773542578125 16953.059988027366
724.751543182294 16873.26817882846
725.7254867615029 16847.572897420938
726.6991850700015 16682.09984300547
727.6726381823228 16630.549812428617
728.6458461729599 16696.329462931175
729.6188091163858 16586.04288742825
730.5915270870246 16578.120503915547
731.5640001592856 16429.61429992435
732.536228407529 16556.449416798645
733.5082119060917 16382.142774972594
734.4799507292755 16311.87605294252
735.4514449513481 16259.008248181595
736.4226946465496 16415.659439987558
737.3936998890786 16534.5884968767
738.3644607531078 16236.49969920177
739.3349773127793 16389.843838674642
740.3052496421951 16409.39070242723
741.27527781543 16413.973587661025
742.2450619065221 16182.786253635513
743.2146019894826 16370.25547221016
744.183898138288 16352.390079409382
745.1529504268801 16398.159205280725
746.1217589291682 16240.44933382312
747.0903237190341 16144.868127614396
748.058644870318 16239.027445263268
749.0267224568397 16137.77367645932
749.994556552374 16091.61889562893
750.9621472306771 16145.58527346876
751.9294945654583 16215.897088865953
752.8965986304011 16158.187491203429
753.8634594991636 16051.958521895285
754.8300772453586 16228.331787477504
755.7964519425768 16159.583251527432
756.762583664371 16249.687723927831
757.7284724842611 16256.210085385808
758.6941184757416 16234.303984908442
759.6595217122667 16196.910054460906
760.6246822672638 16176.92811785579
761.5896002141235 16158.087064970643
762.5542756262093 16201.696523877821
763.5187085768503 16245.91527396054
764.4828991393406 16127.086560699336
765.4468473869474 16029.577861195672
766.4105533929032 16024.376847525904
767.3740172304078 15917.558506942389
768.3372389726283 16121.480686492845
769.3002186926988 15787.516699529215
770.2629564637282 15842.678476650724
771.2254523587872 15876.69245719433
772.1877064509154 15716.15593900273
773.1497188131179 15548.393251826492
774.1114895183728 15522.027586594417
775.0730186396268 15555.996787607331
776.0343062497905 15424.42279658806
776.9953524217381 15389.959735226608
777.9561572283274 15434.354573835468
778.9167207423689 15386.840444621022
779.8770430366476 15346.219984190577
780.8371241839159 15368.572231028738
781.7969642568951 15350.374537389163
782.7565633282757 15653.166711243412
783.7159214707099 15408.221159535478
784.6750387568281 15527.278210564973
785.6339152592227 15463.157958695336
786.5925510504512 15448.562142675586
787.5509462030477 15465.118193615712
788.5091007895098 15469.076295066578
789.4670148823006 15526.939136078261
790.4246885538596 15541.562902199337
791.3821218765861 15448.930609278304
792.3393149228505 15475.408760384438
793.2962677649975 15465.363578668335
794.2529804753303 15584.378667691406
795.20945312613 15709.29059290558
796.1656857896378 15704.692269606585
797.1216785380675 15754.29951718709
798.0774314435985 15912.473903506727
799.0329445783846 16096.19228988625
799.9882180145414 16201.566299989689
800.9432518241574 16216.06249264633
801.89804607929 16492.130335476697
802.852600851962 16560.979217380434
803.8069162141637 16582.805640060807
804.760992237856 16752.481262169335
805.714828994971 16827.11129672482
806.6684265574077 16952.64462405655
807.6217849970271 16996.094752407214
808.574904385674 16869.503859246048
809.527784795142 16910.574018236806
810.4804262972102 16934.0380780787
811.4328289636178 16720.923860972332
812.3849928660748 16396.734917117697
813.3369180762638 16449.946142765548
814.2886046658241 16279.688905517189
815.2400527063783 15959.592280038658
816.1912622695108 15859.240789065801
817.1422334267718 15735.62856207251
818.0929662496856 15573.051367201737
819.0434608097457 15390.89354638098
819.9937171784059 15234.365374246361
820.9437354271013 15031.496962528752
821.8935156272255 15030.784302463038
822.8430578501484 14879.645689352596
823.7923621672016 14580.223037845226
824.7414286496896 14765.50151049093
825.6902573688876 14704.306970194995
826.6388483960363 14561.425099602027
827.5872018023492 14541.775249394617
828.5353176590033 14578.989253928085
829.4831960371503 14386.543980689035
830.4308370079016 14443.47250305599
831.3782406423525 14463.323904258214
832.3254070115545 14394.685318627167
833.2723361865319 14295.646972292103
834.2190282382799 14319.868475466521
835.1654832377644 14318.595481851478
836.1117012559116 14351.877384306359
837.0576823636256 14417.096976587249
838.003426631778 14168.759300634532
838.9489341312074 14206.956943172892
839.8942049327197 14285.700814432703
840.8392391070975 14406.747925964703
841.7840367250865 14235.410393271082
842.7285978573982 14210.837398146057
843.672922574724 14303.33260776413
844.6170109477152 14231.00851770052
845.560863046996 14230.000159444753
846.5044789431595 14173.710329588308
847.4478587067697 14158.036617453312
848.3910024083561 14316.420015930382
849.333910118421 14174.917396270635
850.2765819074339 14147.729717335935
851.2190178458332 14268.740090087793
852.161218004032 14346.266633582918
853.1031824524016 14312.208727714979
854.0449112612987 14222.187143764491
854.9864045010327 14377.966814822983
855.9276622418947 14229.612642807286
856.8686845541379 14305.086956882024
857.8094715079915 14313.365148618002
858.7500231736467 14466.71856601851
859.690339621271 14486.306414749768
860.6304209209939 14511.252701810357
861.5702671429244 14337.985218800939
862.5098783571284 14491.868755917021
863.4492546336569 14583.13121112683
864.3883960425155 14533.402941727469
865.3273026536863 14604.442119161311
866.2659745371238 14670.69718205937
867.2044117627465 14782.648821387298
868.1426144004472 14802.169698320682
869.0805825200823 14876.455438317178
870.0183161914847 15054.048766632512
870.9558154844526 15114.762592124587
871.8930804687552 15243.901953345605
872.8301112141307 15172.683933447686
873.7669077902865 15482.561952647922
874.7034702669062 15540.236357503341
875.6397987136315 15577.46252567712
876.5758932000863 15525.96968888359
877.5117537958522 15744.619362615238
878.4473805704911 15778.30112998767
879.3827735935283 15826.18854827981
880.3179329344603 15814.373340637841
881.2528586627541 15948.08535924244
882.1875508478479 16046.883664194125
883.1220095591489 15761.870777114837
884.0562348660296 15736.297381679504
884.9902268378391 15968.487783977485
885.9239855438955 15785.328909873584
886.8575110534839 15628.155418676362
887.7908034358588 15616.654226192175
888.7238627602474 15593.414807201098
889.6566890958475 15445.135832232088
890.5892825118208 15350.811250723747
891.5216430773125 15258.16189470732
892.4537708614189 15187.784738865808
893.3856659332196 14979.365416960884
894.3173283617652 14827.93379725847
895.2487582160684 14819.422680871876
896.179955565116 14714.20501321434
897.110920477864 14560.390442467387
898.0416530232451 14584.819103791748
898.9721532701478 14345.490580466681
899.9024212874428 14546.02650882382
900.8324571439662 14143.85810313466
901.7622609085302 14169.815098195395
902.6918326499072 13966.598167690554
903.6211724368477 14084.895144127056
904.5502803380696 14096.908226114547
905.4791564222614 14118.633280720376
906.4078007580792 13839.306210404651
907.3362134141571 13897.664654527314
908.2643944590909 13948.205322941274
909.1923439614493 13803.483871038214
910.1200619897754 13682.304434728783
911.0475486125779 13974.36993347627
911.9748038983344 13673.673297271705
912.9018279155007 13733.330595746258
913.8286207324982 13598.770965324462
914.7551824177117 13738.883194556794
915.6815130395116 13686.325671934752
916.6076126662283 13592.586804781156
917.533481366163 13615.687529025017
918.4591192075914 13597.398614272304
919.3845262587565 13666.533942917336
920.3097025878706 13645.987222428168
921.2346482631237 13630.415303807244
922.1593633526682 13584.084623192717
923.0838479246304 13696.671621020123
924.0081020471061 13627.19586231547
924.9321257881656 13487.553581136503
925.8559192158464 13518.716152032895
926.7794823981512 13506.23047668369
927.7028154030686 13558.293567630579
928.6259182985414 13314.971109952425
929.5487911524906 13771.623272855712
930.4714340328119 13566.756331633456
931.3938470073608 13387.09716449854
932.3160301439748 13421.750879532523
933.2379835104548 13507.572256311472
934.1597071745709 13593.844222994949
935.0812012040769 13477.463112478645
936.002465666681 13423.71079672006
936.9235006300696 13449.614569008769
937.8443061619055 13419.384834408347
938.7648823298077 13219.90799460054
939.6852292013809 13296.999646152617
940.6053468441951 13547.693256356046
941.5252353257874 13357.636502564052
942.4448947136698 13404.323022776825
943.364325075323 13335.893032386177
944.2835264782043 13416.969317987978
945.2024989897309 13358.052372358337
946.1212426773054 13387.448886337344
947.0397576082851 13314.41445260221
947.9580438500125 13442.975135641289
948.8761014697939 13507.880011722858
949.7939305349064 13382.101710887535
950.7115311125999 13305.131889531345
951.6289032700952 13358.332235814873
952.5460470745875 13427.919031304049
953.4629625932339 13245.40458618121
954.3796498931715 13403.692016407538
955.2961090415029 13340.451117852333
956.2123401053068 13383.349823075503
957.1283431516276 13345.390015612964
958.0441182474842 13239.425518011712
958.9596654598663 13333.73500570867
959.8749848557309 13266.1366283938
960.7900765020167 13249.925208549834
961.7049404656209 13273.320680458168
962.6195768134185 13249.361400843743
963.5339856122537 13230.288117696666
964.4481669289453 13298.647497269401
965.3621208302793 13293.820323619884
966.2758473830145 13220.0685092124
967.1893466538822 13339.14319793894
968.1026187095813 13219.837630504811
969.0156636167867 13257.299026732882
969.9284814421426 13276.377206042864
970.8410722522622 13218.586081662992
971.753436113735 13270.362651895432
972.6655730931161 13122.386742790517
973.5774832569368 13215.421448709598
974.4891666716958 13141.051980360604
975.4006234038698 13177.174193432793
976.3118535198955 13023.198580640588
977.2228570861935 13308.061367959124
978.1336341691494 13197.23136440555
979.0441848351202 13092.978426175705
979.9545091504333 13238.712650213385
980.864607181391 13323.33083004387
981.7744789942699 13258.813449252662
982.6841246553086 13322.268683455357
983.5935442307236 13140.281236801286
984.5027377867027 13343.292245512272
985.4117053894024 13283.780069335411
986.3204471049557 13191.807268521614
987.2289629994648 13395.91973809603
988.1372531390007 13540.179769205988
989.0453175896091 13311.27380354959
989.9531564173067 13465.52966389259
990.860769688079 13253.916188932712
991.7681574678918 13605.185457795169
992.6753198226706 13501.184078117722
993.582256818323 13483.523634882722
994.4889685207218 13504.018276048006
995.3954549957143 13755.549763440951
996.301716309119 13726.839094285871
997.2077525267232 13769.280681937706
998.1135637142943 13626.11179314779
999.0191499375615 13827.245133712404
999.924511262232 13814.592560285844
1000.8296477539861 13922.247975097018
1001.7345594784656 13872.006765212142
1002.6392465012996 13967.936754195203
1003.5437088880753 13933.808827645815
1004.4479467043584 13923.082806291413
1005.3519600156869 13755.931112996861
1006.2557488875718 13987.551155898986
1007.1593133854858 13957.001082513767
1008.0626535748888 13833.015159115472
1008.9657695212009 13670.54270827791
1009.8686612898182 14037.484708898715
1010.7713289461135 13944.864403467622
1011.6737725554212 13841.812146376571
1012.5759921830577 13907.639423823284
1013.4779878943027 13919.626974472189
1014.379759754418 13876.754571453945
1015.2813078286254 13726.978847108901
1016.18263218213 13730.274131863625
1017.0837328801026 13751.990586656151
1017.9846099876886 13827.727875011697
1018.8852635700023 13532.549958799307
1019.7856936921362 13426.51273546297
1020.6859004191447 13593.188362777897
1021.5858838160675 13450.432083143383
1022.4856439479063 13367.970833207346
1023.3851808796389 13374.408542391664
1024.2844946762143 13381.645096650424
1025.183585402554 13242.17721534975
1026.082453123554 13217.682798473357
1026.9810979040776 13138.218104611215
1027.8795198089647 13115.589471265697
1028.777718903024 13268.125618646092
1029.6756952510368 13095.840088393743
1030.5734489177648 13055.529209361255
1031.4709799679313 13167.505735964636
1032.3682884662358 13154.295258995087
1033.2653744773506 13004.612707184233
1034.1622380659192 13050.10710403238
1035.058879296559 13193.205925250246
1035.9552982338591 13150.823448561123
1036.8514949423825 13188.939447916748
1037.7474694866614 13164.445983434236
1038.6432219312028 13307.620124626726
1039.5387523404825 13448.626530935613
1040.4340607789582 13362.91780632098
1041.3291473110476 13370.382823451047
1042.2240120011465 13737.283043047626
1043.1186549136273 13912.691134387973
1044.0130761128294 13779.842313303609
1044.9072756630649 13945.96364306266
1045.8012536286205 14200.429402077076
1046.6950100737577 14194.438664181254
1047.588545062701 14318.289061200654
1048.481858659663 14254.5250541799
1049.3749509288118 14526.83158214401
1050.2678219343034 14351.814296453449
1051.1604717402515 14395.023615586764
1052.0529004107575 14402.021359761764
1052.9451080098825 14593.694889000579
1053.8370946016694 14560.727528891139
1054.7288602501267 14485.513831559107
1055.6204050192446 14371.689891229122
1056.511728972977 14565.95091511734
1057.402832175254 14453.958298214138
1058.2937146899785 14237.013705490153
1059.1843765810263 14115.107003562764
1060.0748179122456 14291.962020464609
1060.9650387474576 14120.222359727752
1061.855039150456 14101.060699456599
1062.7448191850071 13915.44874207344
1063.6343789148505 13873.7367637922
1064.5237184037014 13846.34603817861
1065.412837715241 13635.659529175882
1066.3017369131267 13729.955673663746
1067.190416060992 13748.30142216669
1068.0788752224398 13469.77546882335
1068.9671144610438 13571.141909717931
1069.8551338403558 13462.597177308804
1070.7429334239023 13676.764000822324
1071.6305132751695 13308.169562186973
1072.517873457633 13566.259674490002
1073.4050140347335 13256.684452536769
1074.2919350698776 13368.46407551544
1075.1786366264623 13303.012110735255
1076.0651187678395 13309.06839171637
1076.95138155735 13088.012577097843
1077.8374250582929 13146.745718746743
1078.7232493339507 13112.062543353808
1079.608854447577 13003.361807101264
1080.4942404623907 12817.424307189985
1081.3794074415982 12973.801942978866
1082.2643554483657 12894.749577991373
1083.149084545841 12862.470642040917
1084.033594797138 12658.441702670503
1084.9178862653516 12792.176825080756
1085.8019590135427 12848.178907697114
1086.6858131047484 12661.666364968662
1087.5694486019802 12657.37150078156
1088.4528655682225 12758.363240323179
1089.3360640664287 12819.576172298079
1090.2190441595321 12554.1871732287
1091.1018059104317 12640.081637597723
1091.98434938201 12739.7529315698
1092.866674637111 12702.98438575759
1093.748781738559 12657.240468764034
1094.6306707491512 12488.04048144126
1095.5123417316554 12704.9328386227
1096.3937947488157 12593.223757573247
1097.2750298633455 12607.081718341202
1098.156047137938 12668.176331109145
1099.0368466352556 12747.3191785036
1099.9174284179317 12681.531455261855
1100.7977925485757 12562.188550285831
1101.6779390897755 12571.559848538038
1102.5578681040806 12725.400509522611
1103.4375796540226 12784.310609617973
1104.3170738021054 12670.139786535994
1105.1963506108077 12671.251354292488
1106.0754101425773 12747.712415949627
1106.9542524598382 12699.019571786044
1107.8328776249855 12663.339688637756
1108.7112857003904 12780.277146110677
1109.5894767483987 12847.73366281433
1110.4674508313292 13016.65784285089
1111.3452080114657 13014.810428698225
1112.2227483510815 13137.706887084147
1113.1000719124077 13266.941797948815
1113.9771787576592 13474.387336852666
1114.854068949022 13502.491088969862
1115.7307425486542 13539.436971038498
1116.6071996186893 13812.87930381542
1117.483440221229 14071.264729222346
1118.3594644183577 14010.62593737731
1119.235272272128 14059.247266417155
1120.1108638445658 14285.998291452817
1120.9862391976712 14676.932792544463
1121.8613983934229 14676.480425718575
1122.7363414937627 14568.41304123616
1123.6110685606182 14879.070307582986
1124.485579655884 15219.5820925396
1125.359874841426 15236.11390365037
1126.2339541790916 15191.097579938718
1127.1078177306936 15501.011129290378
1127.9814655580267 15284.871167505364
1128.854897722851 15511.025421991857
1129.7281142869106 15571.903168215267
1130.6011153119125 15660.359822169707
1131.473900859548 15659.552456880701
1132.3464709914697 15458.0660671443
1133.2188257693178 15482.023417219538
1134.0909652546961 15534.572701256202
1134.96288950919 15316.98364108293
1135.8345985943506 15490.266088352411
1136.7060925717087 15107.872930989673
1137.57737150277 15172.187384722882
1138.4484354490069 15022.425141264219
1139.3192844718778 14872.525904312792
1140.1899186327992 14487.58458742205
1141.060337993178 14640.124814850362
1141.930542614382 14347.466032050812
1142.8005325577597 14268.924569869516
1143.670307884635 13971.650031436584
1144.5398686563003 14184.405526121123
1145.409214934025 13840.640346394448
1146.2783467790541 13599.894769672252
1147.1472642526023 13415.703868417744
1148.0159674158622 13512.320561405873
1148.8844563300026 13231.22497706193
1149.7527310561618 13036.305744135887
1150.6207916554504 12887.164033009129
1151.4886381889592 12919.00061195749
1152.3562707177498 12916.960798273249
1153.2236893028585 12819.978412321683
1154.090894005296 12611.852520421258
1154.9578848860474 12617.811631383282
1155.8246620060709 12626.828320804574
1156.6912254262988 12508.208990791976
1157.5575752076438 12415.824732243815
1158.42371141098 12607.771321085507
1159.2896340971656 12582.305336279842
1160.1553433270346 12300.498997380317
1161.0208391613887 12333.532194564918
1161.8861216610057 12525.650580414183
1162.75119088664 12352.537913392276
1163.6160468990201 12279.46884007327
1164.4806897588442 12093.15108600843
1165.3451195267917 12409.564956571843
1166.2093362635114 12373.341791389315
1167.0733400296285 12302.333464333951
1167.9371308857444 12153.247153841094
1168.8007088924278 12226.925187622972
1169.6640741102328 12168.939419499704
1170.5272265996773 12183.413372416131
1171.390166421259 11919.916300849005
1172.252893635452 12281.399283500852
1173.1154083026995 12326.395236902585
1173.977710483421 12233.709563379527
1174.8398002380145 12091.451667711208
1175.7016776268483 12279.843284658587
1176.563342710264 12209.442820932923
1177.4247955485826 12081.643342732152
1178.2860362020947 12244.40106583694
1179.147064731069 12194.33025876444
1180.0078811957483 12389.766380783332
1180.8684856563486 12313.818373151209
1181.7288781730604 12253.362870628009
1182.589058806052 12608.491620784282
1183.4490276154593 12625.058103174235
1184.3087846614017 12512.455891972222
1185.1683300039676 12502.934489520512
1186.027663703222 12767.792946073621
1186.8867858192025 12631.776662510683
1187.7456964119228 12791.000230405505
1188.6043955413716 12865.61993301729
1189.4628832675116 12881.543093127706
1190.3211596502842 12906.75614445828
1191.179224749596 13127.73235274565
1192.0370786253388 12946.476681395237
1192.8947213373758 13243.169019560271
1193.7521529455407 13384.9485150752
1194.6093735096438 13144.092507670837
1195.466383089477 13276.010640028015
1196.3231817447977 13470.91840177368
1197.1797695353398 13463.978329494366
1198.0361465208189 13288.975695043653
1198.8923127609214 13313.978044892036
1199.7482683153048 13392.736974197769
1200.6040132436028 13529.573942504148
1201.459547605431 13448.86320812153
1202.3148714603722 13238.344262422866
1203.1699848679855 13403.103022205085
1204.0248878878065 13506.30850649135
1204.8795805793507 13307.502896818158
1205.7340630020935 13273.494103256151
1206.5883352155033 13467.968311823217
1207.4423972790064 13193.888377619282
1208.2962492520237 13203.56394935813
1209.1498911939307 13169.795038829601
1210.0033231640937 13267.13706628078
1210.8565452218427 12934.789670178996
1211.7095574264913 12888.530028306572
1212.5623598373222 12775.706401258665
1213.4149525135963 12729.179568186428
1214.2673355145507 12780.844553299972
1215.1195088993936 12680.290437394464
1215.9714727273113 12520.45578928704
1216.8232270574663 12713.944671309608
1217.6747719489904 12293.568144712302
1218.5261074609934 12356.295539672388
1219.3772336525653 12283.400471757695
1220.2281505827668 12335.434174675469
1221.0788583106296 12280.873311306648
1221.9293568951707 12104.57041718105
1222.7796463953746 12092.01066808053
1223.629726870202 12244.884361481994
1224.4795983785934 12237.960347995566
1225.3292609794553 12205.336230972278
1226.1787147316809 12018.903467899236
1227.0279596941327 12046.822533539638
1227.8769959256424 12172.75640480672
1228.7258234850306 12116.493835051087
1229.5744424310833 11956.246015749417
1230.422852822563 12142.754082106156
1231.2710547182105 12186.061449230589
1232.119048176739 12061.71351361764
1232.9668332568417 11821.79629558005
1233.8144100171812 12084.005153122027
1234.6617785163999 12110.132544409516
1235.508938813111 11908.74213973098
1236.3558909659114 11990.96410353304
1237.2026350333617 12078.804089277965
1238.049171074008 12164.548730551905
1238.8954991463652 12009.952507934828
1239.741619308932 11749.69415554444
1240.587531620169 12062.808156937881
1241.4332361385277 12018.139031643976
1242.2787329224248 11927.304479743743
1243.1240220302534 11791.487731515004
1243.9691035203869 11949.746790164649
1244.813977451171 11967.185033079024
1245.6586438809263 11928.907974119686
1246.5031028679496 11663.474092689323
1247.3473544705157 11942.634187408075
1248.1913987468706 11909.301581232094
1249.0352357552383 11861.585384176487
1249.8788655538228 11778.373117742492
1250.7222882007918 11971.683492844197
1251.565503754302 11965.563926090024
1252.4085122724755 11889.463878142575
1253.2513138134182 11819.69525231342
1254.0939084352049 12048.461469111548
1254.9362961958905 11875.670911140802
1255.7784771535007 11845.564818648938
1256.6204513660432 11861.031873451611
1257.4622188915 12109.665060909812
1258.3037797878242 11871.64528009025
1259.1451341129468 11804.27417308585
1259.9862819247755 11822.899940073481
1260.8272232811978 11843.988981479548
1261.6679582400666 12080.787821679336
1262.5084868592203 11724.507681158348
1263.34880919647 11679.79135262538
1264.1889253095997 11874.199081804727
1265.0288352563712 11868.806194919769
1265.8685390945266 11798.11015025971
1266.7080368817751 11715.0054328169
1267.5473286758115 11844.337894157617
1268.386414534294 11798.645806337188
1269.2252945148703 11610.93538143666
1270.0639686751547 11597.505626987171
1270.9024370727402 11660.515200194503
1271.7406997651997 11592.751819486723
1272.5787568100714 11639.365777504212
1273.4166082648808 11528.063247813301
1274.2542541871244 11718.975228431857
1275.091694634275 11710.908415313916
1275.9289296637817 11510.629312358502
1276.7659593330663 11554.891002108843
1277.6027836995308 11598.50561376971
1278.4394028205552 11530.767906052763
1279.2758167534867 11410.616235416755
1280.112025555658 11581.34756619346
1280.9480292843746 11603.243535349628
1281.7838279969128 11384.144028069855
1282.6194217505326 11457.304030027333
1283.4548106024686 11330.106290013064
1284.289994609926 11498.882732009082
1285.1249738300921 11593.513919705685
1285.959748320127 11396.191052948325
1286.7943181371702 11383.328878889017
1287.6286833383328 11508.979367212212
1288.4628439807038 11483.713488411171
1289.2968001213521 11341.777793540463
1290.1305518173194 11452.50104774632
1290.9640991256183 11478.344425805451
1291.7974421032523 11267.224378968656
1292.630580807183 11403.250570958318
1293.463515294361 11367.09155422577
1294.29624562171 11589.955879458992
1295.12877184613 11358.492428624257
1295.961094024493 11485.451881872432
1296.79321221365 11515.281015345301
1297.6251264704333 11624.788637820431
1298.4568368516466 11710.219351932026
1299.2883434140658 11538.714037907757
1300.1196462144526 11446.768585675534
1300.9507453095375 11623.288019806147
1301.7816407560313 11626.822780180253
1302.6123326106172 11593.128258198618
1303.4428209299622 11462.330962718645
1304.2731057707024 11815.598018545177
1305.1031871894502 11476.692755594504
1305.933065242798 11683.671793478605
1306.7627399873181 11538.07113810157
1307.5922114795467 11944.651799862306
1308.4214797760123 12176.00999586534
1309.2505449332057 11754.125249704284
1310.0794070076026 11789.537418486023
1310.9080660556538 12002.328898019325
1311.736522133786 11879.118553414712
1312.5647752983987 11874.024159144055
1313.3928256058734 11652.401411695293
1314.2206731125661 11895.909407443054
1315.048317874809 11861.646415323139
1315.8757599489109 11855.604715253548
1316.7029993911547 11837.980735928946
1317.5300362578055 12099.078834412545
1318.356870605101 11872.194845726195
1319.183502489257 11887.325538895473
1320.0099319664623 11911.312296601853
1320.836159092889 12031.89235159149
1321.66218392468 12108.4223060289
1322.4880065179532 11863.881428139186
1323.3136269288134 11908.112180576065
1324.1390452133292 12202.72122369234
1324.9642614275563 12149.610310017553
1325.7892756275214 12149.851082299032
1326.6140878692295 11897.164534535292
1327.4386982086617 12391.439117327722
1328.2631067017755 12106.059238714273
1329.0873134045069 11961.663974896519
1329.911318372764 11904.84805594695
1330.735121662441 12040.239326938847
1331.558723329399 11838.866327356805
1332.3821234294774 11964.163481744614
1333.2053220185007 11971.427670389112
1334.0283191522612 12006.267904442862
1334.851114886529 11881.559476117303
1335.6737092770582 11858.545969585077
1336.4961023795695 11800.802071913535
1337.3182942497697 11976.285814679206
1338.1402849433325 11916.133062981116
1338.962074515921 11804.74925076857
1339.7836630231632 11661.518562362897
1340.6050505206676 12142.350967079703
1341.426237064028 11874.572549116127
1342.2472227088037 11978.860145975154
1343.0680075105338 11613.398853452656
1343.888591524741 11721.245373289987
1344.7089748069138 11973.16447602296
1345.5291574125276 11706.767598185503
1346.3491393970307 11486.599724740847
1347.168920815846 11816.15065676605
1347.9885017243778 11742.046929168031
1348.8078821780036 11566.345606199602
1349.6270622320844 11550.41040397368
1350.4460419419447 11724.81434779132
1351.2648213629054 11731.631413471798
1352.0834005502438 11468.943293071574
1352.90177955923 11526.26780570125
1353.7199584451064 11968.059024790255
1354.5379372630887 11464.181198877968
1355.355716068374 11540.201373487618
1356.1732949161305 11401.679485224597
1356.9906738615155 11579.101551921698
1357.8078529596478 11498.291442382444
1358.6248322656375 11565.67491866156
1359.441611834567 11367.244287812242
1360.2581917214866 11699.61312766301
1361.0745719814367 11296.038251810367
1361.890752669433 11260.883743212438
1362.7067338404577 11367.83449890094
1363.5225155494845 11518.518607803195
1364.3380978514506 11592.00570489139
1365.1534808012839 11382.93829367485
1365.9686644538815 11225.04365818006
1366.783648864117 11562.83630470323
1367.5984340868417 11542.020510188584
1368.413020176893 11552.10798289394
1369.2274071890715 11194.96373413048
1370.0415951781652 11386.135759726763
1370.8555841989346 11166.156426300107
1371.6693743061223 11269.898567766748
1372.48296555444 11326.009791630104
1373.2963579985844 11529.981816851596
1374.1095516932255 11241.75331857947
1374.9225466930166 11210.144720485841
1375.7353430525782 11270.876532519473
1376.5479408265164 11318.98478710182
1377.36034006941 11325.067517481855
1378.1725408358216 11435.446411122659
1378.9845431802805 11076.02426504519
1379.796347157304 11499.39952184395
1380.6079528213813 11372.973134624566
1381.4193602269788 11152.10151129201
1382.230569428546 11101.364132953287
1383.0415804805016 11455.974541654368
1383.852393437246 11229.304942149074
1384.6630083531563 11268.144904548666
1385.4734252825892 11057.138300530161
1386.2836442798798 11187.632268791633
1387.0936653993322 11084.666456261799
1387.9034886952395 11058.329267563604
1388.713114221864 11012.86399772035
1389.5225420334482 11202.546035861154
1390.331772184214 10963.77338946252
1391.1408047283585 10852.931604716476
1391.9496397200564 10855.609247724215
1392.758277213461 11023.801413559457
1393.5667172627054 11112.590604538227
1394.3749599218918 10784.852767715025
1395.1830052451114 10676.547365817756
1395.9908532864265 10792.843484744973
1396.7985040998774 11026.432046198199
1397.6059577394808 10637.670586194903
1398.4132142592352 10752.9515933912
1399.2202737131156 10713.762009112652
1400.027136155073 10764.899110688066
1400.8338016390353 10562.72277856584
1401.6402702189134 10542.864859030886
1402.446541948586 10640.176458513411
1403.2526168819204 10448.899543326545
1404.058495072757 10522.388640592617
1404.8641765749107 10423.237215907964
1405.6696614421799 10625.877119090257
1406.4749497283356 10636.00957666965
1407.280041487129 10251.567051180651
1408.084936772295 10143.429874368967
1408.8896356375335 10380.218717250838
1409.6941381365323 10295.613805911933
1410.498444322955 9991.849500232856
1411.3025542504402 10156.80603199795
1412.106467972606 10243.865977929276
1412.9101855430508 10107.865286409611
1413.7137070153458 10027.289974185802
1414.5170324430437 9837.631732192192
1415.320161879672 10031.879998975779
1416.1230953787435 10088.943293215238
1416.925832993742 9813.553772107898
1417.7283747781275 9673.100569558792
1418.5307207853439 9937.840459192486
1419.3328710688093 9841.112455957298
1420.134825681922 9631.42196897228
1420.9365846780584 9744.284460153312
1421.7381481105713 9911.133691826608
1422.539516032788 9837.377733974561
1423.3406884980232 9529.370399736259
1424.1416655595604 9575.50564149308
1424.942447270665 9657.517513513343
1425.7430336845828 9682.760360044094
1426.5434248545298 9548.740080717815
1427.3436208337116 9551.718968799145
1428.143621675301 9646.854436920994
1428.9434274324558 9766.177163104325
1429.7430381583108 9408.016178954553
1430.5424539059713 9412.895034458255
1431.3416747285337 9967.444192497034
1432.1407006790632 9497.808541726004
1432.9395318106053 9423.592585340837
1433.7381681761835 9360.397162694488
1434.5366098288014 9422.099520140946
1435.3348568214424 9559.311998845811
1436.1329092070573 9431.300298739256
1436.9307670385879 9375.851198088443
1437.7284303689503 9648.24160315129
1438.5258992510335 9666.079224915422
1439.3231737377118 9383.417116685358
1440.1202538818306 9285.767457150258
1440.9171397362225 9409.581715338914
1441.7138313536925 9495.253054292441
1442.5103287870243 9291.694164516108
1443.3066320889775 9220.104481459324
1444.1027413122956 9457.334764764013
1444.8986565096966 9352.14794578278
1445.694377733882 9382.614724999661
1446.4899050375207 9061.289113229908
1447.2852384732687 9169.162733858982
1448.0803780937622 9497.279824524772
1448.8753239516063 9123.733876953796
1449.6700760993954 9109.290370469294
1450.464634589689 9142.319772398077
1451.2589994750397 9451.151301596476
1452.0531708079689 9032.67286856337
1452.8471486409799 9114.266190133352
1453.6409330265524 9340.212638547775
1454.4345240171442 9194.282911032591
1455.2279216651987 9155.654466445525
1456.0211260231263 9115.8623357449
1456.8141371433194 9312.94371302331
1457.6069550781594 9355.130330891861
1458.3995798799897 9090.167527183728
1459.1920116011424 9034.957776397438
1459.98425029393 9069.093803296777
1460.7762960106338 8953.80372043203
1461.5681488035225 9077.240944480076
1462.3598087248392 9014.967731344377
1463.1512758268036 9333.348953762243
1463.942550161617 9052.88216501265
1464.7336317814625 8963.86345395459
1465.524520738496 9016.54413309518
1466.3152170848552 8946.085472585164
1467.1057208726506 9188.139139588051
1467.8960321539817 9052.599355762417
1468.6861509809169 8774.380614427506
1469.4760774055085 8975.488968354764
1470.265811479785 9019.343621350507
1471.055353255755 8919.241437544993
1471.844702785409 8996.453307291898
1472.6338601207044 8974.599597092823
1473.4228253135934 9626.081449517365
1474.2115984159936 9042.256763867992
1475.0001794798063 8775.638809260143
1475.7885685569145 9061.291843430346
1476.576765699172 9056.578596499317
1477.3647709584238 9009.64691483246
1478.1525843864802 9107.449549384884
1478.9402060351367 9229.786897715032
1479.7276359561693 9155.90246719486
1480.514874201328 8960.41831093306
1481.3019208223468 8943.214469530398
1482.0887758709323 8911.57905880302
1482.8754393987747 9144.038215483737
1483.6619114575406 8787.774231143507
1484.4481920988783 9071.002319576948
1485.2342813744108 9135.156029939773
1486.0201793357446 9222.763149732273
1486.8058860344572 9054.68874871849
1487.591401522117 8856.996447722697
1488.3767258502594 9087.751032509737
1489.1618590704056 9178.749396900703
1489.9468012340494 8896.707332508016
1490.7315523926754 9065.596918623085
1491.5161125977356 9214.356757845802
1492.3004819006637 8942.116697110945
1493.084660352877 8940.448004335663
1493.8686480057622 9014.944429043475
1494.6524449106964 9401.408754967302
1495.4360511190262 9307.75101219159
1496.219466682087 8938.067234953256
1497.0026916511779 9017.91095010756
1497.7857260775945 9072.728212287988
1498.5685700125996 9097.671707121252
1499.3512235074395 9009.540446483676
1500.133686613337 8944.133200014316
1500.9159593814966 9023.85536916267
1501.698041863101 9234.674537120898
1502.4799341093094 8888.098811273532
1503.2616361712662 8728.254731751398
1504.043148100087 9140.311942161099
1504.8244699468742 9119.274472468753
1505.6056017626997 8931.395766600766
1506.3865435986281 8866.609016464185
1507.1672955056893 9113.386795393399
1507.9478575348967 8906.72898275852
1508.7282297372512 9131.294024447065
1509.5084121637192 8934.818279928963
1510.2884048652577 9074.243051901769
1511.0682078927948 8930.519723505942
1511.8478212972423 8791.667297912227
1512.6272451294917 8702.5989785997
1513.4064794404076 9080.247702070435
1514.1855242808433 8798.714359922133
1514.9643797016215 8923.206395825891
1515.743045753552 8940.63003521393
1516.5215224874191 9050.736327087205
1517.2998099539836 8696.280954833555
1518.077908203999 8749.56506599964
1518.8558172881785 8840.752242797327
1519.633537257234 9077.211962065541
1520.4110681618404 8924.553610485731
1521.1884100526604 9027.331341016783
1521.9655629803365 8902.452456173476
1522.7425269954856 9118.718331533819
1523.5193021487103 9048.704770008955
1524.2958884905856 8682.501432319828
1525.0722860716687 8877.791809271721
1525.848494942502 8888.538803126732
1526.624515153595 8780.63677534813
1527.4003467554485 8845.148687626926
1528.175989798534 8906.003001559196
1528.9514443333064 8874.570680080285
1529.726710410203 8934.722674253357
1530.5017880796331 8676.356587274162
1531.276677391992 8739.907366279725
1532.0513783976457 9064.931925591858
1532.825891146953 8856.81326867402
1533.6002156902414 8992.8937258659
1534.3743520778207 9002.358686527845
1535.1483003599806 8893.775704381369
1535.9220605869923 8887.998338614896
1536.6956328091019 8966.180151502194
1537.4690170765407 8889.495079565144
1538.242213439511 9035.811583020713
1539.015221948208 8942.631100885086
1539.78804265279 8759.47236698119
1540.560675603405 8693.46987043344
1541.3331208501804 9087.36928362976
1542.1053784432224 9058.690264761704
1542.8774484326168 8997.710856178202
1543.649330868422 8863.357617144884
1544.4210258006842 9084.257751656693
1545.1925332794308 8824.436247993437
1545.9638533546604 8802.737754946185
1546.7349860763552 8787.89947388032
1547.5059314944829 9276.750189319282
1548.27668965898 8852.669923034104
1549.0472606197673 9005.383740788817
1549.817644426752 8733.016315628407
1550.5878411298072 8902.18553395525
1551.3578507787988 8864.002111583979
1552.1276734235635 8806.145270932899
1552.8973091139233 8915.686780498238
1553.6667578996767 8954.843407577235
1554.436019830604 8961.859812097282
1555.20509495646 8896.694077715387
1555.9739833269869 8714.075362133188
1556.7426849919011 8827.303657939028
1557.511200000903 9232.509928333038
1558.2795284036674 8826.182012055398
1559.0476702498509 8815.151801449638
1559.8156255890954 9151.655776696023
1560.5833944710157 9118.879583131456
1561.3509769452048 8824.99178258978
1562.1183730612447 8811.108911318352
1562.8855828686865 8971.037802911469
1563.6526064170703 9152.34014842898
1564.4194437559127 9005.626025080468
1565.1860949347047 8788.68908675104
1565.9525600029283 9132.2167160577
1566.7188390100328 9044.572022347298
1567.4849320054564 8800.76157138258
1568.250839038612 8867.98285358878
1569.0165601588997 8787.895248415321
1569.7820954156887 8966.414804536438
1570.5474448583373 8646.908744330323
1571.31260853618 8641.590763184575
1572.0775864985299 8696.000098766455
1572.8423787946813 8834.940873060294
1573.6069854739108 8743.241831152573
1574.371406585471 8701.71361423752
1575.1356421785986 8822.308818275951
1575.899692302506 8666.948792304018
1576.6635570063845 8708.171720472206
1577.4272363394157 8644.052459873255
1578.190730350747 8791.051205666412
1578.9540390895163 8496.336759705957
1579.7171626048384 8385.866054024506
1580.480100945806 8365.574931459181
1581.2428541614918 8550.234509705584
1582.0054223009538 8627.777989999715
1582.767805413223 8571.796058376618
1583.5300035473156 8510.844433071663
1584.292016752228 8675.97688078622
1585.0538450769309 8581.768350972974
1585.8154885703807 8535.724843118443
1586.5769472815136 8276.744571164923
1587.3382212592405 8488.199824768506
1588.099310552463 8599.757792675231
1588.8602152100484 8130.1670461783
1589.6209352808564 8484.816459077467
1590.3814708137234 8506.848207294552
1591.14182185746 8158.030776225203
1591.9019884608679 8454.176680400335
1592.6619706727215 8189.671807570667
1593.4217685417734 8437.316527814333
1594.1813821167616 8609.360430086908
1594.9408114464022 8305.932397321081
1595.7000565793933 8322.884456827318
1596.459117564409 8514.231747571994
1597.2179944501113 8316.65969282764
1597.9766872851324 8359.80691111652
1598.735196118092 8240.578577779645
1599.4935209975883 8511.027324171382
1600.2516619721973 8464.246222597081
1601.0096190904787 8285.762213957054
1601.7673924009723 8280.439058446787
1602.524981952196 8398.663399611958
1603.2823877926476 8168.315352717492
1604.0396099708087 8247.99692231703
1604.7966485351371 8236.749657438322
1605.5535035340745 8149.087137842417
1606.3101750160404 8501.185947067044
1607.0666630294363 8133.388346780947
1607.822967622642 7953.247710923843
1608.5790888440224 8319.88372315262
1609.3350267419137 8324.879414650668
1610.0907813646445 8209.01150424759
1610.8463527605145 8126.662350374349
1611.601740977805 8211.195107236166
1612.356946064785 7956.061948263241
1613.1119680696902 7915.057271570566
1613.8668070407512 7880.129439615101
1614.6214630261748 8106.019956736675
1615.375936074137 8065.932968777223
1616.1302262328118 8048.516529669121
1616.8843335503425 7865.820556665979
1617.638258074854 7925.6636892983315
1618.391999854457 7814.184460320035
1619.1455589372363 7939.734929901048
1619.8989353712623 7839.424053122154
1620.65212920458 7542.275964184149
1621.4051404852235 7711.695204636303
1622.1579692611976 7722.339425511673
1622.9106155804966 7568.439674706181
1623.663079491087 7645.542783817422
1624.4153610409248 7627.471513623221
1625.1674602779385 7595.6681802599505
1625.9193772500403 7508.023544955986
1626.6711120051277 7788.906149211842
1627.4226645910676 7610.22836328885
1628.174035055721 7330.752941114706
1628.9252234469168 7469.167075555009
1629.676229812474 7403.848379121329
1630.4270542001905 7772.743817366478
1631.1776966578382 7527.149762519996
1631.9281572331747 7481.480020458568
1632.678435973945 7517.834558239888
1633.4285329278573 7430.081018104635
1634.1784481426203 7339.669433183675
1634.9281816659113 7413.330497072039
1635.677733545388 7565.458175689778
1636.4271038286934 7218.285940667998
1637.176292563452 7333.080238013633
1637.9252997972635 7444.986515594009
1638.674125577716 7463.819772715504
1639.4227699523672 7756.418612187326
1640.171232968767 7195.969949412778
1640.9195146744423 7302.120707055165
1641.6676151168977 7402.192820334169
1642.4155343436178 7433.308112498048
1643.1632724020765 7342.723363966635
1643.9108293397167 7436.4133864857085
1644.658205203974 7288.925579321384
1645.4054000422566 7740.252183634557
1646.1524139019566 7387.880024710804
1646.8992468304423 7152.079721505581
1647.6458988750728 7199.66386153996
1648.3923700831765 7392.443191931763
1649.1386605020743 7156.114211831668
1649.8847701790564 7325.852018801471
1650.6306991614038 7304.888185758898
1651.3764474963682 7344.781686990241
1652.1220152311944 7120.720333713078
1652.867402413096 7267.647039279844
1653.6126090892776 7266.645806887442
1654.3576353069184 7422.815343953896
1655.1024811131829 7087.92618612372
1655.8471465552066 7182.032461974292
1656.5916316801213 7317.095828748209
1657.3359365350298 7102.087784221796
1658.0800611670165 7076.341002719766
1658.824005623148 7072.003185248306
1659.5677699504722 6932.195701166214
1660.3113541960192 7083.867525414465
1661.054758406799 6950.966078107999
1661.7979826297997 6790.836001226354
1662.5410269119966 6909.463993316133
1663.283891300338 7006.89961223158
1664.0265758417645 6775.405435980727
1664.7690805831826 6715.3205814836065
1665.5114055714948 7059.885077044758
1666.2535508535748 7005.442384724442
1666.9955164762814 6564.936975400579
1667.7373024864555 6600.342662883197
1668.478908930916 6777.911866610676
1669.220335856462 6453.8712033338
1669.9615833098778 6504.285573296229
1670.7026513379296 6283.686930103553
1671.44353998736 6559.51121360949
1672.1842493048916 6596.010685797487
1672.9247793372379 6418.530648623252
1673.6651301310812 6431.052067650975
1674.4053017330934 6232.883750047201
1675.1452941899242 6417.756167723633
1675.885107548207 5970.206961143231
1676.6247418545518 6068.037591566606
1677.3641971555535 6248.290513125006
1678.1034734977893 6181.698459768825
1678.8425709278108 6110.213799671421
1679.5814894921605 6253.01838069684
1680.320229237359 6138.910395353853
1681.0587902098978 6138.02159497198
1681.7971724562685 5945.395122544762
1682.5353760229264 6008.891099784594
1683.2734009563173 5926.0803002913
1684.0112473028657 5825.139171663328
1684.7489151089794 5816.586284184635
1685.4864044210462 6009.712176716958
1686.2237152854377 5621.482487482781
1686.960847748498 6041.750232636455
1687.6978018565642 5719.4565018549265
1688.434577655944 5572.981621106123
1689.1711751929379 5736.871678839201
1689.9075945138156 5655.056671354331
1690.6438356648396 5655.174272742461
1691.3798986922448 5326.414498619919
1692.1157836422499 5580.616536659842
1692.851490561059 5540.553557896967
1693.587019494853 5560.496638697727
1694.3223704897991 5299.945304719433
1695.0575435920364 5372.2737168444855
1695.792538847696 5554.669001818697
1696.527356302886 5375.448600026323
1697.2619960036936 5179.179970572766
1697.9964579961907 5390.850118003815
1698.730742326432 4898.995072496096
1699.4648490404488 4996.03176698342
1700.1987781842563 5099.8698594597945
1700.9325298038548 5287.484486853491
1701.6661039452174 5311.160787694715
1702.3995006543082 5164.070922358037
1703.1327199770658 5117.591854672199
1703.865761959416 5049.254133238412
1704.598626647261 5242.12224373196
1705.3313140864866 4875.5190575380875
1706.0638243229587 4946.009841657244
1706.7961574025303 5144.254196128966
1707.528313371029 5074.204112361957
1708.260292274268 4688.498222226771
1708.9920941580403 4876.126314454019
1709.7237190681226 4852.893529685268
1710.4551670502697 4952.141401871334
1711.18643815022 4600.320159592985
1711.9175324136959 4991.859663207508
1712.6484498863938 4813.888101789675
1713.379190614005 4672.304980531551
1714.109754642188 4963.628282403709
1714.8401420165883 4694.153669469958
1715.570352782839 4775.499566958939
1716.3003869865497 4816.252181465417
1717.0302446733076 4545.060596884281
1717.7599258886876 4573.029533965937
1718.4894306782444 4816.607501909486
1719.2187590875183 4496.6355121947745
1719.9479111620203 4833.097926072691
1720.6768869472544 4506.526987024752
1721.4056864887025 4797.917185854786
1722.1343098318284 4859.774199898557
1722.8627570220742 4471.717342331493
1723.591028104871 4482.321548868969
1724.3191231256242 4440.960834831427
1725.0470421297232 4490.261244675216
1725.7747851625427 4671.741787041305
1726.5023522694337 4481.895395615121
1727.2297434957363 4632.763119360122
1727.9569588867635 4339.631943248023
1728.6839984878152 4727.881618192616
1729.4108623441734 4114.031491452571
1730.1375505011038 4629.29188592576
1730.8640630038426 4353.310676144203
1731.5903998976264 4280.918007668535
1732.316561227657 4489.797134619288
1733.0425470391274 4297.878845516188
1733.7683573772065 4372.839490348344
1734.4939922870508 4320.378702494889
1735.2194518137949 4326.99360574544
1735.9447360025606 4432.37915923394
1736.669844898439 4324.226486831121
1737.3947785465189 4297.162840034934
1738.1195369918605 4171.914571991658
1738.8441202795093 4306.74417496555
1739.5685284544943 4354.247652128799
1740.292761561821 4409.199229055735
1741.0168196464838 4360.618244797159
1741.7407027534518 4167.8189717735195
1742.464410927687 4401.142845285945
1743.187944214118 4234.365139899856
1743.9113026576688 4128.248378894989
1744.634486303241 4362.63801615118
1745.3574951957125 4147.832283035075
1746.0803293799509 4354.724100809942
1746.8029889008048 4112.303737759842
1747.5254738031017 4433.302961522104
1748.2477841316504 4114.294166166575
1748.969919931249 4089.841384489504
1749.6918812466665 4108.6376759182285
1750.4136681226646 4403.907824437368
1751.1352806039777 4215.414071496144
1751.856718735331 4083.295676373936
1752.5779825614281 4130.470460537235
1753.2990721269507 4198.889471178915
1754.0199874765676 4379.612349377709
1754.7407286549314 3998.741969737019
1755.4612957066693 4116.1504513193595
1756.1816886763954 4168.610574124516
1756.9019076087097 4122.204773667037
1757.6219525481865 4233.249538862691
1758.3418235393856 4217.92975857161
1759.061520626854 4195.944223286106
1759.7810438551096 4324.875795866452
1760.5003932686614 4060.301780824638
1761.2195689119999 4317.803268073761
1761.938570829594 4002.9290020480466
1762.657399065898 4015.3313296061365
1763.376053665348 3930.6165432994735
1764.0945346723602 3982.096493763751
1764.812842131334 4185.786568990463
1765.5309760866512 3956.258498698452
1766.2489365826787 3937.764823473846
1766.9667236637597 4180.525814778968
1767.684337374223 3825.423980285792
1768.401777758383 3819.118418673118
1769.1190448605284 3854.8830047793317
1769.836138724937 3861.5367515051876
1770.5530593958665 4041.1777291978324
1771.2698069175603 4048.9414169392185
1771.9863813342326 4064.5966706438912
1772.702782690094 3942.4346633322434
1773.4190110293293 4032.422667966204
1774.1350663961111 4083.9681613340276
1774.8509488345844 3964.493789945608
1775.5666583888924 4147.953538999752
1776.2821951031437 4070.176713500695
1776.9975590214362 3916.2393261542265
1777.7127501878585 4239.031909742496
1778.4277686464684 3993.9090220774497
1779.1426144413108 4157.35132424736
1779.8572876164162 4126.42378175509
1780.571788215797 3895.8013822698426
1781.2861162834415 4006.450206296515
1782.0002718633277 3871.2802485705665
1782.7142549994132 3907.327569833592
1783.4280657356376 3957.8110418590577
1784.141704115922 3762.915880851244
1784.855170184177 4000.151766092126
1785.5684639842839 3894.119842979203
1786.2815855601148 3556.528885076869
1786.9945349555237 3915.882330144097
1787.707312214343 3800.5988563014275
1788.4199173803918 4096.253391995776
1789.132350497468 3859.0612721748525
1789.8446116093583 3871.836085513399
1790.556700759822 3857.282415014778
1791.2686179926077 3405.087296080836
1791.9803633514493 3784.47161478378
1792.6919368800554 3634.5743730666136
1793.4033386221236 4051.682086171194
1794.1145686213295 3809.219211301075
1794.8256269213307 4101.250366541296
1795.536513565774 4026.108301806773
1796.247228598284 3503.139148874253
1796.9577720624693 3676.6697151047674
1797.6681440019165 3697.69408367935
1798.3783444602013 3771.2816131847067
1799.0883734808776 3893.4222314955723
1799.7982311074884 3870.562008471269
1800.5079173835475 3743.5248217009525
1801.2174323525633 3879.3034794773885
1801.9267760580187 3708.6741148110027
1802.635948543386 3804.558788777741
1803.3449498521113 3616.8011741195633
1804.0537800276325 3746.4706014718636
1804.7624391133668 3811.706185996981
1805.47092715271 3514.1896979165444
1806.1792441890484 3593.578921031075
1806.8873902657433 3859.8255375578956
1807.5953654261448 3817.7153030384843
1808.3031697135812 3557.1093126456353
1809.0108031713662 3750.8715862999707
1809.71826584279 3714.377510619277
1810.425557771141 3591.1176255711953
1811.1326789996747 4241.354556492071
1811.839629571632 3754.455901410941
1812.5464095302468 3611.2305894873452
1813.2530189187182 3854.7985550296844
1813.959457780249 3611.067854635363
1814.6657261580076 3906.4587125345643
1815.371824095153 3619.921552730718
1816.0777516348262 3817.061085461519
1816.78350882015 3437.6155238089545
1817.4890956942272 3540.5705980843923
1818.1945123001533 3581.813756158329
1818.8997586809928 3676.7626914718035
1819.6048348798067 3579.1210711522494
1820.3097409396287 3638.0696685915414
1821.0144769034796 3758.1773518995237
1821.7190428143622 3693.596899080769
1822.423438715261 3930.112349175784
1823.1276646491478 3635.860504440692
1823.8317206589727 3738.558135580746
1824.5356067876692 3652.9649356249183
1825.2393230781581 3614.3025116823783
1825.942869573335 3395.6894945638987
1826.646246316086 3587.270709157475
1827.3494533492758 3612.4576853703425
1828.052490715756 3652.859840747949
1828.7553584583547 3504.063349178627
1829.458056619891 3688.5635921292424
1830.1605852431585 3502.8838453594485
1830.8629443709433 3392.1805249548584
1831.5651340460063 3541.906691418729
1832.2671543110919 3608.51123124469
1832.9690052089318 3615.5198312879
1833.6706867822395 3380.599043883291
1834.3721990737104 3730.9553329837318
1835.0735421260233 3685.074959909355
1835.774715981841 3694.744403364633
1836.4757206838058 3973.80380115167
1837.1765562745459 3296.8066604877486
1837.8772227966747 3344.4130105252116
1838.5777202927839 3649.544332477206
1839.2780488054523 3553.084733908506
1839.9782083772352 3463.524430252493
1840.6781990506806 3708.246232717326
1841.378020868313 3489.2913803647507
1842.0776738726418 3454.656844704502
1842.777158106157 3523.1421939075685
1843.4764736113375 3432.930689478788
1844.1756204306403 3630.870966135079
1844.8745986065078 3642.0975638875448
1845.5734081813607 3314.9092782392954
1846.2720491976124 3347.6512812732662
1846.970521697649 3433.094363691711
1847.6688257238511 3420.0995038330802
1848.3669613185684 3608.940876165393
1849.0649285241452 3383.1198806533816
1849.7627273829057 3500.2372649381095
1850.460357937156 3610.705334435929
1851.1578202291857 3178.123955261557
1851.8551143012664 3478.439635085998
1852.5522401956569 3629.544101973006
1853.2491979545957 3573.037802453901
1853.9459876203055 3304.4619718411086
1854.6426092349902 3336.0989395340666
1855.3390628408451 3413.0498242061913
1856.0353484800362 3695.7603417449486
1856.7314661947203 3485.25829607178
1857.4274160270397 3258.1276456481673
1858.123198019115 3444.034309582186
1858.8188122130487 3375.7992232049155
1859.5142586509319 3392.310664110418
1860.209537374838 3385.419658379359
1860.9046484268183 3322.9623735305904
1861.599591848917 3599.7963293109815
1862.294367683151 3291.465469735579
1862.988975971528 3356.454835191193
1863.6834167560355 3589.4084635353784
1864.3776900786452 3492.699512231321
1865.0717959813119 3325.2802126731885
1865.7657345059724 3399.1701739420323
1866.4595056945564 3531.7106171945134
1867.1531095889586 3675.926143146178
1867.846546231076 3402.773179274636
1868.5398156627743 3640.9403752435524
1869.2329179259123 3448.8612259222996
1869.9258530623283 3614.7971725622106
1870.618621113843 3260.0642709502467
1871.3112221222636 3289.915037612126
1872.0036561293764 3255.5946975714774
1872.695923176956 3514.718124921497
1873.3880233067594 3528.784327607914
1874.0799565605212 3145.0002574900013
1874.7717229799673 3327.1346880533347
1875.4633226068036 3496.3912133532817
1876.1547554827175 3368.629128530746
1876.8460216493859 3343.1145999406135
1877.5371211484617 3361.747911786616
1878.2280540215852 3425.4952022667503
1878.9188203103804 3253.8236834131794
1879.6094200564548 3353.82231576813
1880.299853301396 3268.631702176443
1880.9901200867826 3520.429693413936
1881.6802204541673 3415.620362074318
1882.3701544450942 3475.876343079861
1883.059922101087 3306.748648438255
1883.7495234636517 3667.667875578897
1884.4389585742792 3381.67224885795
1885.1282274744517 3169.200348217371
1885.8173302056166 3700.9415365352143
1886.506266809225 3325.10701979181
1887.195037326701 3133.62210144566
1887.8836417994517 3232.3032177908053
1888.5720802688702 3566.3493904531338
1889.260352776333 3414.2137517150595
1889.9484593632042 3426.6933944550765
1890.63640007082 3392.666685210913
1891.3241749405151 3289.585621581527
1892.0117840135954 3198.0522670370538
1892.6992273313572 3304.0345974485654
1893.3865049350788 3192.579886388004
1894.0736168660223 3738.6742771524855
1894.7605631654333 3377.739457688401
1895.4473438745408 3107.125394033328
1896.133959034556 3528.5636657295386
1896.820408686679 3188.7716730405373
1897.506692872088 3545.508087571474
1898.192811631945 3283.74161772704
1898.8787650073991 3329.054382875416
1899.5645530395832 3377.2443248279073
1900.2501757696118 3490.8474226748503
1900.9356332385796 3082.208394460239
1901.620925487574 3547.0833533486125
1902.3060525576602 3321.626008408861
1902.9910144898859 3297.610340597056
1903.6758113252872 3116.4523133320045
1904.3604431048789 3343.706047854002
1905.0449098696663 3262.6504247470943
1905.7292116606295 3237.9925365898844
1906.4133485187394 3375.8131118095116
1907.0973204849488 2969.02323032425
1907.7811276001976 3183.600417372635
1908.4647699053967 3291.3353983328343
1909.1482474414588 3781.5524096814006
1909.8315602492694 3121.5038496684747
1910.5147083696957 3387.9601529457723
1911.1976918436012 3205.065245893643
1911.880510711815 3129.3754399898367
1912.5631650151681 3399.6933884753425
1913.2456547944657 3195.713152547647
1913.927980090495 3192.4384739627853
1914.6101409440362 3170.7050147291015
1915.2921373958416 3195.1472774128397
1915.9739694866603 3146.6658494724443
1916.655637257214 3475.521211409557
1917.3371407482136 3180.1161414303956
1918.0184800003572 3278.840745223099
1918.6996550543154 3190.3798625463587
1919.3806659507554 3365.0961814908683
1920.0615127303208 3447.975400681583
1920.7421954336423 3498.276056525149
1921.4227141013343 3366.3694868091065
1922.103068773993 3228.6867493915333
1922.783259492202 3377.4078407240013
1923.4632862965227 3142.9398554151294
1924.1431492275078 3113.2389032619967
1924.8228483256917 3076.205354168695
1925.5023836315922 3210.878738451684
1926.1817551857057 2697.190985755959
1926.8609630285227 3471.894129271517
1927.5400072005123 3217.747544883485
1928.218887742125 3108.368175336436
1928.8976046938005 2961.5120316746356
1929.5761580959588 3249.6279862454076
1930.2545479890086 3229.753406722183
1930.9327744133352 3038.0170471660103
1931.6108374093164 3108.4134836615062
1932.2887370173066 3351.3633076090264
1932.9664732776473 2735.6506555991778
1933.6440462306673 3204.2021556188
1934.3214559166754 3009.2051026551358
1934.9987023759659 3298.1375954286996
1935.675785648813 3303.466120854514
1936.3527057754836 2769.3010179776165
1937.029462796223 3352.146208313627
1937.70605675126 3072.6054710955277
1938.3824876808085 3059.8263236353228
1939.058755625072 2966.1403810940133
1939.7348606242267 3002.9024014613383
1940.4108027184448 3066.4966117525714
1941.0865819478713 3233.436029187967
1941.7621983526478 2957.7985722555
1942.4376519728921 3001.3947759083603
1943.1129428487038 3007.6428242592383
1943.7880710201734 3152.0622263702808
1944.4630365273733 3183.3154914572747
1945.1378394103576 2846.1069975607234
1945.8124797091714 2781.094491118987
1946.4869574638324 2715.855648204148
1947.161272714353 2987.593179975115
1947.8354255007234 3127.470728194411
1948.5094158629272 2984.3577801371903
1949.1832438409183 3154.396100974497
1949.8569094746435 3084.6034940157547
1950.530412804037 3314.1355185876564
1951.2037538690092 3178.383227401883
1951.8769327094578 2988.9513656334134
1952.5499493652678 3053.6898472158446
1953.222803876306 3153.4172417915465
1953.895496282421 3040.025751565402
1954.5680266234522 3111.3464221619533
1955.2403949392155 2963.356992511164
1955.9126012695142 2889.1959257729704
1956.5846456541403 3079.3573120754895
1957.2565281328643 2920.2398705522146
1957.9282487454457 3132.2979445118444
1958.5998075316202 3307.6273404288795
1959.27120453112 3142.8212676017934
1959.9424397836501 3009.1955544957773
1960.613513328908 3275.2819712565015
1961.2844252065697 3209.2462184918168
1961.9551754563017 2855.3879660586545
1962.6257641177453 2834.8838258228257
1963.29619123054 2939.0599801789867
1963.966456834296 2813.0431463583
1964.6365609686181 2742.866125581943
1965.306503673086 3162.9470120734777
1965.976284987275 2777.3999955511576
1966.645904950734 3014.4211132938945
1967.315363603002 2838.309875300949
1967.9846609836077 2940.1630361667394
1968.6537971320486 3088.3474395342837
1969.3227720878222 2864.2450002909636
1969.9915858904042 2786.1288319517707
1970.660238579252 3160.5487798159206
1971.3287301938108 3124.240477676889
1971.997060773514 2658.9990824991137
1972.665230357772 2894.165885338888
1973.3332389859843 2824.9776473463085
1974.0010866975335 2987.8479188631386
1974.6687735317864 3083.688072009411
1975.3362995280932 3058.571049833379
1976.003664725793 2988.563955762671
1976.6708691642052 2618.930164088649
1977.3379128826364 2801.8050225303036
1978.004795920373 3142.046226937732
1978.6715183166925 3263.392212214866
1979.3380801108524 2634.2767158824095
1980.0044813420973 2886.198735629587
1980.6707220496555 2721.4171201257705
1981.3368022727373 2831.2794468227066
1982.0027220505417 3074.493469921853
1982.66848142225 2638.0288038623685
1983.3340804270283 2705.6541928536594
1983.999519104027 2984.0324610441735
1984.6647974923835 3080.378361730626
1985.329915631215 3100.545411038044
1985.99487355963 2872.309954452737
1986.6596713167146 2967.5708312304077
1987.3243089415428 2909.7708000734574
1987.9887864731754 3173.3904725521415
1988.6531039506553 2813.8503960766116
1989.3172614130071 3136.38363846724
1989.9812588992481 2869.2460806330573
1990.645096448372 2706.898887727131
1991.3087740993633 2970.5951671898815
1991.9722918911848 2865.9004362369915
1992.635649862792 2819.882517421629
1993.2988480531185 3030.733523482223
1993.9618865010852 3143.503875917332
1994.6247652455968 2797.764478787133
1995.287484325545 2650.05733592036
1995.9500437798033 2890.6689256036725
1996.6124436472292 2708.2660277976775
1997.2746839666706 2959.9077701494743
1997.936764776954 2839.6667325664275
1998.598686116895 2849.2295088943033
1999.2604480252903 3161.369833004119
1999.9220505409212 2803.4728493154585
2000.5834937025593 2662.584287204188
2001.2447775489582 2791.8919034477576
2001.9059021188514 2835.72865448206
2002.5668674509616 2765.982501519456
2003.2276735839987 2826.931111032184
2003.8883205566508 3057.1338464316286
2004.5488084075987 2730.629458238018
2005.2091371755014 2875.1900588259264
2005.8693068990033 2841.072755149492
2006.5293176167397 2933.456173087593
2007.1891693673224 2797.1985563095122
2007.848862189354 2535.397634821703
2008.5083961214223 2836.2114011975123
2009.1677712020955 2780.201359706038
2009.8269874699254 2538.930138591086
2010.4860449634598 3058.1751361040724
2011.1449437212177 2442.247891598896
2011.8036837817108 2996.5144938374924
2012.4622651834325 2977.8281059388446
2013.1206879648653 2975.9821573765885
2013.7789521644736 3079.199523317552
2014.4370578207036 2646.4631087724215
2015.0950049719922 2729.4661114256696
2015.7527936567585 2747.25742912209
2016.4104239134067 2947.7423743582017
2017.067895780323 3192.0724258456125
2017.725209295886 3177.4832194284927
2018.3823644984514 3162.7760408905306
2019.0393614263648 2843.1272416881916
2019.6962001179545 2676.7946886061263
2020.3528806115355 2998.8559959905374
2021.0094029454067 2639.2583642064897
2021.6657671578487 2631.1456232118476
2022.321973287133 2752.50455347081
2022.9780213715148 2668.7000605980616
2023.6339114492293 2580.505500261733
2024.2896435585026 2647.971035430158
2024.9452177375442 2673.821884575732
2025.600634024544 3160.1424202699764
2026.2558924576842 2880.4810528840144
2026.9109930751292 2841.0966044980078
2027.565935915025 2619.5473099863866
2028.2207210155066 3113.5202718883015
2028.8753484146964 3040.5107608361704
2029.529818150695 2478.190331935664
2030.1841302615903 2840.9760063398344
2030.8382847854573 2584.194711492956
2031.4922817603601 2642.519807131178
2032.1461212243357 2711.6409927804625
2032.7998032154192 2516.315593068266
2033.4533277716218 2731.8845172891133
2034.1066949309443 2575.1062338273423
2034.7599047313688 2642.1484992929463
2035.4129572108704 3048.0931718145835
2036.0658524074006 2986.514810006667
2036.7185903589016 2724.278539874623
2037.3711711032956 2811.4256855825124
2038.023594678496 2662.6703684293866
2038.675861122394 2626.625742933942
2039.3279704728757 3017.8245320875726
2039.9799227678031 2508.557259781613
2040.6317180450278 2513.919434780338
2041.2833563423865 2788.1068438646394
2041.9348376977014 2788.33416526573
2042.5861621487784 2849.675577700049
2043.2373297334088 2788.36119356308
2043.8883404893695 2680.9183818865467
2044.5391944544208 2890.1871347997694
2045.1898916663158 2855.8598734492234
2045.8404321627804 2873.7829246946003
2046.4908159815368 2633.97972015536
2047.1410431602853 2802.5312962766357
2047.7911137367173 2632.593614318208
2048.441027748504 2928.8497682051393
2049.090785233302 2511.728811319646
2049.7403862287592 2623.9733887377815
2050.389830772503 2947.458131039216
2051.0391189021466 2429.8296774636387
2051.688250655294 2660.444044192199
2052.337226069527 2503.4470839572755
2052.986045182417 2847.3145626508626
2053.634708031521 2421.45579348053
2054.283214654375 2732.357300159049
2054.931565088511 2474.098184188541
2055.579759371436 2461.5766096916077
2056.2277975406523 2693.043758976667
2056.8756796336384 2989.10061242964
2057.5234056878617 2308.4705191864987
2058.1709757407752 2442.0242578649227
2058.8183898298194 2679.546889352184
2059.465647992416 2855.7217853179945
2060.1127502659747 2788.1346437830966
2060.759696687888 2520.996228250199
2061.4064872955405 2819.338424158806
2062.053122126292 2842.4385093358633
2062.699601217497 2290.9263897514006
2063.345924606485 2473.005326961782
2063.992092330587 2729.0780098531477
2064.638104427102 2659.754686630833
2065.283960933324 2853.8331411789536
2065.92966188653 2774.390158707029
2066.5752073239855 2873.2961549414963
2067.2205972829397 2532.383406752335
2067.86583180062 2741.6203376066564
2068.5109109142522 2583.5770943082994
2069.15583466104 2114.659412813057
2069.8006030781708 2658.8665950310788
2070.445216202821 2722.7581194790555
2071.089674072153 3119.527414271404
2071.7339767233116 2717.2456501410174
2072.3781241934303 2596.4233954280107
2073.0221165196253 2875.055048135188
2073.6659537390024 2652.7016576400265
2074.3096358886505 2689.602705328619
2074.953163005637 2399.6467708650216
2075.596535127028 2424.0242485182275
2076.2397522898664 2532.045387294991
2076.882814531182 2643.6509097985463
2077.5257218879924 2770.2958720901283
2078.1684743973 2354.5383986530132
2078.8110720960885 2277.9528386573766
2079.453515021336 2854.6763355165335
2080.095803209997 2521.9238952445185
2080.7379366990135 2563.5197289334005
2081.37991552532 2595.8901688040423
2082.0217397258275 2599.488903231305
2082.6634093374414 2331.382310284479
2083.3049243970418 2689.8214231722623
2083.9462849415067 2715.703228622558
2084.587491007689 2523.801646150029
2085.2285426324324 2770.525566393818
2085.869439852564 2738.1809547275193
2086.510182704902 2420.2140257305264
2087.1507712262483 2727.906173190854
2087.791205453381 2388.4854650831085
2088.4314854230743 2783.5279617297756
2089.0716111720867 2504.99197786439
2089.7115827371617 2272.4742670766254
2090.351400155023 2308.1439284910425
2090.991063462385 2343.994267338695
2091.6305726959527 2304.350281552329
2092.2699278924047 2320.696571248558
2092.9091290884153 2337.166764192637
2093.548176320641 2339.7070118236816
2094.187069625721 2749.271570726008
2094.8258090402887 2322.597378074296
2095.464394600951 2516.2052741401903
2096.102826344313 2628.1070732847897
2096.741104306955 2449.5343739502796
2097.379228525453 2270.5693105100063
2098.017199036358 2248.3716064019595
2098.6550158762147 2436.4841105403198
2099.2926790815527 2624.984336322862
2099.9301886888825 2652.6192622394296
2100.5675447347076 2521.829845787762
2101.2047472555114 2851.202477560644
2101.841796287761 2520.0773407406277
2102.47869186792 2527.5151769343447
2103.1154340324265 2409.121967103695
2103.752022817709 2503.2838843089767
2104.388458260184 2634.5624655730494
2105.024740396251 2681.56899124946
2105.660869262292 2448.417705601584
2106.296844894685 2735.416869010437
2106.93266732978 2694.37870457233
2107.5683366039284 2162.5630278763233
2108.2038527534532 2450.4222901963503
2108.8392158146726 2806.2332803226664
2109.4744258238843 2511.82602379692
2110.1094828173755 2604.0532367185956
2110.744386831422 3054.2989963832897
2111.3791379022787 2609.648864349018
2112.01373606619 2851.0219756384113
2112.648181359389 2361.4061495119995
2113.28247381809 2657.5143817995267
2113.916613478492 2283.83076047705
2114.550600376786 2687.1937800720757
2115.1844345491445 2486.153673108073
2115.818116031729 2394.0058773082224
2116.451644860679 2465.933772477335
2117.085021072133 2209.933970048217
2117.718244702204 2406.044347627888
2118.3513157869984 2334.91629056562
2118.984234362604 2318.5629059995017
2119.617000465092 2368.1538055095857
2120.249614130529 2722.6321599174776
2120.8820753949585 2480.944546651401
2121.5143842944162 2497.7044595531493
2122.14654086492 2367.3695550481502
2122.7785451424734 2487.6621445274964
2123.4103971630702 2641.0884562031465
2124.042096962681 2271.161772238565
2124.6736445772767 2465.884177372538
2125.305040042802 2345.7625449171733
2125.936283395191 2458.9999280328857
2126.567374670365 2387.9378235581325
2127.198313904233 2397.0516111156676
2127.8291011326855 2378.602549599037
2128.4597363916037 2359.832228460326
2129.0902197168507 2348.2205846559086
2129.720551144279 2225.6326672036694
2130.3507307097225 2557.1671933466496
2130.980758449008 2804.256823525393
2131.6106343979427 2289.7889094151406
2132.2403585923203 2559.19541748483
2132.8699310679276 2679.033736265678
2133.499351860526 2591.6818072166993
2134.1286210058715 2664.143490525912
2134.7577385397053 2224.3293170822417
2135.3867044977487 2533.2011310496496
2136.0155189157176 2797.546497314562
2136.644181829308 2601.63087243501
2137.2726932742025 2280.283452936502
2137.901053286074 2688.44111433542
2138.5292619005777 2449.727783191851
2139.1573191533535 2573.7349042259384
2139.7852250800315 2714.367127482604
2140.4129797162295 2553.257241577195
2141.0405830975433 2293.6302135623446
2141.6680352595613 2276.898462539785
2142.2953362378576 2260.160561061676
2142.9224860679915 2264.8885803148373
2143.549484785508 2210.1971995009326
2144.1763324259373 2504.7559975320373
2144.803029024799 2363.9485382607827
2145.429574617594 2494.1522098427745
2146.0559692398165 2729.755550818936
2146.682212926942 2199.5944638945507
2147.308305714432 2426.034718890819
2147.9342476377333 2633.5438850982314
2148.5600387322847 2529.4620473354717
2149.185679033506 2632.856722101249
2149.8111685768017 2519.93820314851
2150.4365073975678 2340.7793825136096
2151.061695531187 2406.6177540071158
2151.686733013021 2429.3738835980207
2152.311619878423 2332.131218914562
2152.9363561627342 2435.6937264030284
2153.560941901278 2248.499611442507
2154.1853771293663 2532.7325857767005
2154.809661882293 2496.250661685983
2155.433796195348 2574.9820282603027
2156.0577801037944 2487.7005196587897
2156.681613642895 2680.3670221192683
2157.3052968478896 2400.993622000122
2157.928829754006 2557.562261429114
2158.552212396462 2423.4307074324256
2159.1754448104566 2458.055726729085
2159.7985270311783 2145.055412174378
2160.4214590938027 1944.0638471284124
2161.0442410334927 2013.9553428819804
2161.6668728853874 2343.71385346684
2162.289354684628 2149.339245494465
2162.911686466332 2354.435477467018
2163.533868265602 2518.421373897024
2164.1559001175337 2751.2962517929
2164.7777820572046 2504.4917167852473
2165.399514119681 2197.4892347238465
2166.021096340013 2073.169677431845
2166.6425287532384 2163.8848005648174
2167.263811394385 2254.8742467873203
2167.8849442984574 2682.9232768183274
2168.505927500455 2162.8466407233104
2169.126761035366 2397.7012430444997
2169.7474449381552 2260.84741728822
2170.367979243778 2021.7199621732111
2170.9883639871823 2462.222288569048
2171.608599203293 2480.0592151291953
2172.2286849270276 2925.008990388094
2172.8486211932886 2917.0595514577453
2173.4684080369625 2184.280058482466
2174.0880454929265 2230.570663118616
2174.7075335960417 2146.16585184766
2175.3268723811543 2533.7138742789707
2175.9460618831 2412.435519879361
2176.565102136701 2125.1572528727834
2177.1839931767627 2273.3293733472124
2177.802735038078 2421.9257374119497
2178.421327755432 2122.953888549734
2179.0397713635866 2293.690813023423
2179.658065897298 1964.2832754620765
2180.276211391305 2449.1033644507343
2180.8942078803357 2175.0455428249547
2181.5120553991 2347.621618298769
2182.129753982299 2139.7152089869387
2182.7473036646206 2491.1343074335728
2183.3647044807367 2268.2080439503357
2183.9819564653044 2187.474271081253
2184.599059652968 2436.6795845912907
2185.216014078367 2528.71292143735
2185.832819776113 2037.5088804979962
2186.4494767808137 2411.679749613556
2187.065985127063 2350.6535926394363
2187.682344849436 2203.921898265119
2188.298555982501 2588.2818694882976
2188.9146185608097 2557.8525858536914
2189.530532618901 2315.4275736215673
2190.1462981912937 2223.5050360423365
2190.761915312507 2467.5390021195053
2191.377384017036 2468.3587778422116
2191.9927043393654 2296.200556946472
2192.6078763139667 1812.7533610346024
2193.2228999753006 1892.4084183275045
2193.837775357808 1972.2575893362307
2194.452502495922 1933.2189264881501
2195.0670814240602 2280.380578404644
2195.6815121766285 2230.578111980365
2196.2957947880186 2212.920990687936
2196.9099292926057 2195.2359269542753
2197.523915724758 2502.8286727284076
2198.137754118825 2438.020764419562
2198.7514445091456 2622.6517178589697
2199.3649869300443 2582.877735242729
2199.9783814158327 2543.119331157205
2200.5916280008096 2882.362374730069
2201.2047267192593 2402.5931477132026
2201.8176776054515 2430.584412451268
2202.430480693649 2304.5511936315925
2203.0431360180955 2225.4971023997073
2203.6556436130195 2456.735018518449
2204.268003512645 2511.63271207757
2204.8802157511727 2566.795346229779
2205.492280362796 2639.0031376303577
2206.1041973816937 2162.6742731445897
2206.715966842032 2357.9365240961915
2207.3275887779655 2181.5631522539525
2207.93906322363 2180.2315478817336
2208.550390213153 2474.1801493490884
2209.1615697806465 2301.965481328008
2209.7726019602105 1949.9762250743952
2210.3834867859277 2023.3000807185326
2210.9942242918787 2363.3064274683866
2211.6048145121167 2142.6089663816733
2212.2152574806914 2967.4140883676273
2212.825553231638 2140.1750884743396
2213.435701798975 2896.592225363228
2214.045703216707 2196.305190938162
2214.655557518832 2046.3706342611404
2215.2652647393297 2012.755725642858
2215.874824912169 1770.749185141481
2216.4842380713 2336.862998780928
2217.09350425067 2170.465532052906
2217.7026234842033 1982.3558136926197
2218.311595805819 2451.2068705522424
2218.9204212494133 2075.7751238814285
2219.52909984888 2738.5790460593726
2220.137631638092 2617.712580850699
2220.7460166509154 2496.4299310515885
2221.354254921198 2473.010210782281
2221.9623464827764 2412.1684073836295
2222.5702913694713 2262.133329908409
2223.178089615096 2265.675897005406
2223.7857412534486 2051.907580641823
2224.39324631831 2146.000907518756
2225.000604843457 2094.5889305444684
2225.607816862641 2569.714039912765
2226.214882409611 2434.5735550009945
2226.8218015180973 2423.3549889475253
2227.4285742218217 2028.6805568575678
2228.0352005544864 2424.9463049350297
2228.6416805497847 2029.5570341163886
2229.248014241399 2184.1803662097977
2229.8542016629945 1982.4149371553099
2230.460242848223 2254.6863796997864
2231.0661378307304 2203.0249340548676
2231.671886644139 2151.36454439107
2232.277489322065 1998.7114812830737
2232.8829458981127 1986.906632731257
2233.48825640587 2372.2304486085923
2234.0934208789095 2779.906051312174
2234.6984393507955 2617.1702646151284
2235.3033118550793 2649.603208383779
2235.9080384252975 2235.8088438945133
2236.5126190949723 2128.040347688834
2237.1170538976166 1885.754671312782
2237.721342866729 2061.2950660217625
2238.32548603579 2237.1258494494223
2238.9294834382763 2155.4529624912066
2239.533335107646 1847.8963481712901
2240.1370410773434 2232.201679978684
2240.740601380803 2110.632153277598
2241.3440160514474 2094.673890621143
2241.9472851226783 2238.9991619279995
2242.550408627896 2299.718791496332
2243.1533866004793 2360.5785253835693
2243.756219073799 2218.154184505389
2244.3589060812064 1988.4606280832352
2244.961447656049 2152.6800466549826
2245.5638438316564 2272.9038296095327
2246.166094641343 2198.1207984280295
2246.7682001184166 2324.655536452482
2247.3701602961664 2340.2951871752257
2247.971975207871 2312.9353078155095
2248.5736448867974 2601.8436689440778
2249.175169366197 2298.0091548654577
2249.7765486793123 2112.532570714487
2250.3777828593684 2266.132702058699
2250.9788719395783 2290.1644449068417
2251.579815953146 2266.379323583833
2252.1806149332606 1888.7961493834985
2252.781268913097 2254.286925114504
2253.381777925817 1802.9441747584704
2253.9821420045737 2228.6107664088045
2254.5823611825035 2433.446873728729
2255.1824354927303 2297.305979182352
2255.782364968365 2110.1251069196146
2256.38214964251 1922.7509152755588
2256.9817895482483 2123.6861822732
2257.5812847186553 2370.03580014017
2258.180635186791 2283.3153385844753
2258.779840985704 2196.527561833774
2259.37890214843 2073.527077876416
2259.97781870799 2134.119139667162
2260.5765906973957 2194.8370552201272
2261.175218149645 2115.3110271127325
2261.773701097718 2080.165035736555
2262.3720395745895 2044.9033321863942
2262.970233613216 1784.8425031240695
2263.568283246548 2046.6607923742765
2264.1661885075137 1979.9908795314864
2264.763949429038 2019.3027850171384
2265.3615660440246 2357.553570443008
2265.959038385374 2046.408055403867
2266.5563664859637 2327.4791527123443
2267.153550378669 2171.1266510139676
2267.7505900963424 2381.4561482510935
2268.3474856718312 2092.666473584243
2268.9442371379664 2122.160428032517
2269.5408445275643 1922.8625183098695
2270.1373078734377 2170.9169042533354
2270.7336272083758 2226.768842639641
2271.32980256516 1947.3717837914432
2271.925833976562 2102.670999423599
2272.5217214753357 2425.489097595484
2273.117465094223 2085.384618219099
2273.7130648659586 2085.8943538706867
2274.308520823257 2223.3589970098983
2274.903832998827 2408.8391104410484
2275.4990014253563 1940.8809552273099
2276.094026135528 2273.0107584105635
2276.6889071620117 1933.6904555617632
2277.2836445374614 2110.0913877849125
2277.878238294519 2128.83782656667
2278.472688465812 2024.401033072727
2279.066995083962 1919.738379626909
2279.6611581815705 2048.3142200057614
2280.255177791232 2340.8602733288376
2280.8490539455233 2074.7747604561146
2281.442786677013 2396.796916949112
2282.0363760182554 2271.4138346215777
2282.6298220017943 1867.1381253303061
2283.223124660155 2313.493176603107
2283.816284025859 2013.2366908364088
2284.4093001314086 1742.856550699184
2285.002173009292 2506.8726232137005
2285.5949026919952 2266.2394409136505
2286.1874892119777 1908.1578490124762
2286.7799326016993 2218.004610909882
2287.3722328936 1850.9970227901463
2287.964390120109 1756.8505972988776
2288.556404313642 1952.1313934305258
2289.1482755066027 1975.0631211573861
2289.7400037313873 1997.9471504627986
2290.3315890203703 2138.4228733361983
2290.9230314059205 2287.037177020923
2291.5143309203904 1952.1651445683588
2292.1054875961236 1874.7515244848873
2292.6965014654506 2419.7825831952423
2293.287372560684 2095.5850985863085
2293.878100914131 2011.287104928599
2294.468686558086 1926.873848889331
2295.059129524827 1940.133482719643
2295.649429846617 2462.9608090122897
2296.239587555716 2354.006763917759
2296.8296026843636 2093.1114330164664
2297.419475264791 2155.8180115329505
2298.0092053292137 2218.507600525938
2298.598792909839 2177.1648780071446
2299.1882380388597 2029.9314583707142
2299.777540748455 2120.2937898006858
2300.3667010707904 2210.6420999037377
2300.9557190380256 2231.1886389173987
2301.544594682302 2028.5450459902895
2302.1333280357503 2473.6929926907465
2302.721919130485 2270.165529422843
2303.3103679986198 2400.1798932595375
2303.898674672242 2440.4866139362002
2304.486839183437 1993.2044325028132
2305.0748615642697 2259.433613664475
2305.6627418468015 2024.5935794425982
2306.2504800630704 2144.7647682573042
2306.8380762451143 1995.1984916456372
2307.425530424949 2052.5415085765817
2308.012842634582 2110.000153640468
2308.6000129060103 2482.3865572252644
2309.187041271214 2333.316988794534
2309.773927762164 2183.945371662877
2310.3606724108213 2463.368799554051
2310.9472752491274 2406.031704879446
2311.5337363090184 2348.604923584825
2312.120055622414 2168.47036524588
2312.706233221221 1789.8771062569626
2313.2922691373424 1633.1585503354197
2313.8781634026564 1807.4186461437105
2314.463916049037 1982.076776381092
2315.049527108342 2260.7282803790486
2315.6349966124235 2378.6484206885007
2316.2203245931123 2412.7324253020965
2316.8055110822315 2266.959568364235
2317.3905561115935 2120.813451995554
2317.9754597129977 2259.622777286347
2318.560221918229 2398.7605906468416
2319.1448427590603 2031.8513181661388
2319.729322267256 1543.0116019510274
2320.313660474563 2369.1168639911098
2320.8978574127195 2941.2200085920445
2321.481913113452 2028.8414662288098
2322.0658276084705 1753.039825913189
2322.6496009294806 1914.2442601625776
2323.233233108165 2462.4112351052786
2323.8167241762058 2194.446100382765
2324.4000741652617 1902.1568684359822
2324.983283106987 2396.8553901727864
2325.5663510330232 2379.561715813945
2326.1492779749933 1978.0390966316857
2326.7320639645204 2005.2278801784148
2327.3147090332004 1954.610576079812
2327.897213212629 1992.32450181158
2328.4795765343843 2029.9385750677986
2329.0617990300307 1647.5099702985965
2329.643880731124 2286.1565025746663
2330.22582166921 2130.313883475013
2330.807621875816 2262.3289825545776
2331.3892813824623 1803.1503474681263
2331.9708002206517 1945.620478203303
2332.5521784218818 2355.1304845252985
2333.133416017634 2014.138228888009
2333.7145130393765 1900.5384988330657
2334.295469518571 2406.8853937467743
2334.876285486658 2341.290161507405
2335.456960975076 1850.4288630353287
2336.037496015242 2148.235595361368
2336.6178906385667 2083.957169881773
2337.198144876451 2199.471783979335
2337.778258760278 1984.2070362843679
2338.3582323214214 1751.256165620155
2338.938065591243 2308.615956102432
2339.517758601087 2211.3671513975632
2340.0973113822965 2132.770054156982
2340.676723966193 1991.8325373113996
2341.255996384094 1898.9036332309247
2341.835128667295 2187.7584227492684
2342.4141208470883 1939.1017071477604
2342.992972954751 2109.08272116335
2343.5716850215467 2197.90310918443
2344.1502570787306 2042.1394303423156
2344.7286891575386 1885.975384172966
2345.3069812892045 2297.9146748123812
2345.885133504944 2489.3973017063195
2346.4631458359618 1862.6243759400945
2347.04101831345 1909.1599018074237
2347.6187509685915 2145.7150559789466
2348.196343832553 1953.3735352090396
2348.7737969364935 1738.1111081574375
2349.351110311558 2128.7070755578516
2349.9282839888765 1904.6420455408174
2350.5053179995757 1839.5210760231632
2351.0822123747585 1856.6643665155716
2351.658967145526 1856.4179267394659
2352.2355823429643 1856.2795939698867
2352.812057998144 2224.776313079811
2353.3883941421263 1845.762844429367
2353.9645908059647 2039.3233637711594
2354.540648020693 2129.5109507424077
2355.116565817336 1996.1413811819998
2355.6923442269126 2017.7503708193647
2356.2679832804224 1739.154258344433
2356.8434830088518 1725.1079083683326
2357.41884344318 1852.5483379616173
2357.994064614377 2033.3109361493352
