#exp_cfg={"servo_angle": 0.0, "laser_lim": 100.0, "servo_angle_to": 18.0, "laser_wup": 0.0, "bt_dev": "EnSpectr-25AE3", "laser_wdn_max": 0.0, "frames": 10.0, "servo_used": 0, "servo_calib_use": 0, "laser_wdn_min": 0.0, "servo_pix_from": 90.0, "cooler_tout": 300.0, "servo_angle_from": 0.0, "servo_calib": "[-1.9174921013161362e-09, 3.9322238269163779e-05, -0.27385609119055809, 653.59552119713567]", "laser_autoctl": 0, "servo_pix_to": 3682.0, "laser_pw": 100.0, "cooler_on": 0, "laser_volt": 4.0, "cooler_autoctl": 0, "cooler_curr": 70.0, "cooler_startup": 10.0, "laser_fixed_pw": 0, "gain": 1.3, "offset": 2.53059635486, "servo_calib_degree": 3.0, "laser_curr": 55.0, "shutter": 8200.0, "servo_calib_step": 1.0, "laser_fixed_curr": 0, "exp": 2000.0, "ccd_volt": 4.7, "bt_addr": "00:06:66:62:5A:E3", "servo_delay": 500.0, "laser_autooff": 1}
#proc_cfg={"flat_auto_wnd": 200.0, "flat_auto_fr": 200.0, "flat_auto_shift": 5.0, "yconv": 1, "flatten": 1, "flatten_strength": 100.0, "xfrom": 300.0, "auto_max_frame": 2000.0, "auto_signal": 48000.0, "flat_auto_tol": 0.1, "autoclip": 1, "xrel_range": 0.0, "flat_auto_to": 4000.0, "intensity_adj": 1.0, "xrel": 7852.0, "rmhot": 1, "flat_auto_slit": 4.999999999999997, "auto_ini_exp": 300.0, "auto_off": 0, "xto": 2860.0, "flat_auto_ref": "", "flat_auto_rank": 1, "autobackg": 0, "xrel_adj": 0.0, "auto_black_lvl": 1, "base_wnd": 100.0, "sub_baseline": 0, "xconv": 2, "auto_max_exp": 1000.0, "auto_total_exp": 10000.0, "auto_exp": 0, "rmripple": 0, "black_lvl": 8282.6125, "shutter_clip_adj": 0.0, "auto_bckg": 0, "flat_auto_thr": 0.9, "subbackg": 1}
316.8218498245369 22362.51172021169
317.89969571804795 22176.962354385807
318.977263876126 21996.972027096333
320.05455438786703 21778.85685437873
321.1315673423287 21772.959659833574
322.2083028285215 21875.4652424441
323.2847609354267 21710.19766641569
324.3609417519747 21548.546008746627
325.43684536705587 21558.669986465986
326.5124718695279 21371.433754764163
327.58782134820103 21347.75054657682
328.66289389184385 21372.007010129404
329.7376895891921 21086.322897393733
330.8122085289342 21112.33632505691
331.88645079971866 21101.66979315176
332.9604164901575 20904.70007663932
334.03410568881554 20912.00645503912
335.1075184842266 21096.8062653671
336.18065496487543 20708.313938877574
337.2535152192122 20746.716725666713
338.32609933564163 20784.60044578977
339.39840740253203 20660.956117220172
340.4704395082099 20562.04930441912
341.5421957409617 20551.445857785275
342.6136761890357 20609.53418525708
343.6848809406365 20462.324931524417
344.75581008392874 20428.279197409694
345.82646370703696 20425.171397532926
346.8968418980512 20284.142943967774
347.96694474501055 20362.189095025948
349.0367723359268 20295.64020609344
350.106324758759 20279.33846219479
351.1756021014353 20122.274556745233
352.2446044518383 20261.999174687626
353.31333189781435 20242.385283966094
354.38178452716966 20263.063495969058
355.449962427665 20238.96930084893
356.51786568702846 20182.44272487489
357.58549439294256 20340.417909099975
358.6528486330535 20456.155878528378
359.71992849496564 20311.93080681409
360.7867340662433 20251.75728729099
361.8532654344144 20382.718675272372
362.9195226869597 20444.240996393557
363.9855059113288 20218.982423722446
365.05121519492604 20377.145191374213
366.11665062511565 20503.17247035751
367.1818122892273 20513.417468690346
368.2467002745434 20400.688955665657
369.31131466831175 20607.610714916627
370.375655557742 20566.59839375334
371.4397230299983 20560.355628749603
372.5035171722102 20589.893412966172
373.5670380714637 20526.324292653702
374.6302858148101 20710.554503250583
375.6932604892554 20584.551314697826
376.7559621817709 20676.97052933326
377.81839097928605 20563.78487608325
378.8805469686886 20610.719686833072
379.94243023683157 20528.14493000749
381.0040408705263 20568.893587743
382.0653789565458 20481.94492581855
383.1264445816196 20477.459311337203
384.1872378324406 20475.7864165776
385.2477587956637 20491.42969143937
386.3080075579037 20427.767020034775
387.3679842057336 20373.93337319028
388.4276888256918 20421.029306146607
389.48712150426945 20363.05823890884
390.54628232792857 20390.68128946545
391.6051713830857 20192.72777162899
392.66378875611736 20275.000174508015
393.7221345333637 20185.09685009608
394.7802088011249 20135.91658266006
395.838011645661 20131.64342027912
396.89554315319765 20000.429227337565
397.9528034099112 19971.38732914892
399.00979250194723 19928.273789668874
400.06651051541485 19867.946577190836
401.1229575363741 19869.18190440665
402.17913365085224 19827.550781802835
403.23503894483656 19847.94170525948
404.2906735042761 19723.785634652246
405.3460374150818 19648.42684608997
406.401130763119 19721.45742332424
407.455953634224 19700.042308846863
408.5105061141876 19660.601454949967
409.56478828876243 19331.70620582021
410.6188002436629 19466.351405564383
411.6725420645689 19299.844437520445
412.72601383711117 19485.34603378711
413.77921564689314 19479.815667529394
414.8321475794728 19230.152571303905
415.88480972036814 19164.388106172923
416.93720215506437 19360.208767634784
417.9893249690049 19059.265415166512
419.04117824759123 19069.339354572447
420.09276207619223 19125.44110247691
421.144076540133 19005.275177326672
422.1951217247042 19015.965732519322
423.24589771515275 19054.979083941733
424.2964045966928 18958.09898687078
425.34664245449494 18968.60565349158
426.3966113736933 18881.751517552613
427.4463114393875 18846.55327753402
428.49574273662984 18839.176512302405
429.5449053504417 18696.482085867272
430.5937993658026 18924.438083360234
431.6424248676558 18715.900075598147
432.6907819409007 18764.32037561879
433.73887067040596 18685.076789788964
434.7866911409965 18680.195442140965
435.8342434374608 18743.35282847555
436.88152764455117 18657.751338876325
437.9285438469724 18611.16194983651
438.9752921294057 18450.424715277357
440.02177257648145 18567.83579002718
441.06798527279716 18419.730994439706
442.1139303029122 18502.757897419622
443.1596077513459 18481.530069697576
444.2050177025794 18573.08572954683
445.25016024105753 18469.26335012165
446.2950354511886 18441.14625025394
447.33964341733736 18471.72015596913
448.383984223834 18452.42892202123
449.4280579549686 18331.121309181894
450.471864694995 18313.28086796337
451.5154045281306 18475.94182860515
452.5586775385509 18308.544686196816
453.60168381039693 18297.442886282457
454.64442342776783 18447.194698309024
455.6868964747264 18306.822198540794
456.7291030353008 18352.624943235416
457.77104319347563 18319.711396934734
458.8127170332027 18294.513503533206
459.854124638392 18319.033513641683
460.895266092919 18433.19893612786
461.93614148061897 18441.04419543542
462.97675088529104 18553.023464833506
464.01709439069236 18528.687811746982
465.0571720805492 18381.189719226408
466.0969840385442 18504.24017696423
467.1365303483253 18643.520926481717
468.17581109350067 18510.6513154671
469.2148263576437 18399.325845790176
470.2535762242878 18605.120861115538
471.29206077693016 18823.228889003673
472.33028009902773 18739.15310205882
473.3682342740012 18840.33200478324
474.40592338523857 18912.96316045487
475.4433475160804 18921.66030071016
476.4805067498364 18990.356092829166
477.51740116978 19235.640405801583
478.5540308591426 19377.75509762945
479.59039590112116 19563.98027820333
480.6264963788726 19633.40753553463
481.6623323755193 20017.732779337686
482.6979039741436 20165.183989290643
483.7332112577915 20553.0397480191
484.76825430947247 20854.61876550898
485.80303321215797 21156.51772263177
486.837548048783 21297.594751863686
487.8717989022425 21640.184138567198
488.90578585539697 21766.6774788511
489.9395089910686 21991.66302093758
490.97296839203955 22026.342072670384
492.00616414106116 21917.870832253855
493.0390963208429 21935.982841651425
494.0717650140559 21902.560520239924
495.10417030333883 21733.10868290136
496.1363122712901 21636.77986703667
497.16819100046814 21286.46264488956
498.1998065734024 21055.66030132084
499.2311590725767 20872.548808361626
500.26224858044407 20579.562115359826
501.2930751794156 20268.48056082066
502.3236389518679 20153.421299046633
503.35393998014115 19795.11644655286
504.38397834653733 19745.426175528617
505.4137541333221 19626.330455851723
506.4432674227228 19296.261135845278
507.4725182969323 19273.92158866001
508.5015068381035 19160.146447624553
509.53023312835467 19142.874465974473
510.55869724976765 18968.335449051094
511.58689928438434 18803.6538771849
512.6148393142121 18781.374613689717
513.6425174212218 18878.886073108453
514.6699336873462 18751.11804423783
515.6970881944835 18819.616392640262
516.7239810244901 18680.982618054935
517.7506122591931 18778.410678955574
518.7769819803761 18894.567230402765
519.8030902697901 18794.47603625368
520.8289372091476 18902.581325154224
521.8545228801249 18966.02518610494
522.8798473643619 18956.294192168418
523.9049107434621 18919.534802301267
524.9297130989908 18969.40897471694
525.9542545124805 18918.77818984177
526.9785350654201 18921.86853690114
528.0025548392696 18787.217261785358
529.0263139154504 18796.955370247426
530.0498123753423 18920.688688608167
531.073050300296 18783.321281172997
532.0960277716204 18617.194733811317
533.1187448705896 18618.018826814576
534.1412016784416 18581.84743604979
535.1633982763833 18443.38234146293
536.1853347455726 18371.33726826033
537.2070111671401 18347.318488414046
538.2284276221817 18303.7113903085
539.2495841917516 18102.376361820025
540.2704809568677 18031.92553962008
541.2911179985167 18093.308379475755
542.3114953976419 17927.30843131956
543.3316132351592 17903.354884360873
544.3514715919409 17770.673831317552
545.3710705488247 17867.200889600244
546.3904101866156 17728.948593853504
547.4094905860784 17761.11047160159
548.4283118279418 17676.12314569708
549.4468739929034 17802.340606417198
550.4651771616191 17570.187445192492
551.4832214147063 17535.656673836995
552.501006832761 17528.13858323031
553.5185334963226 17583.579721222584
554.5358014859103 17637.73638557547
555.5528108820035 17559.100915692652
556.5695617650363 17438.948389545076
557.5860542154242 17548.11033716478
558.6022883135283 17503.584122026696
559.6182641396881 17479.657798889835
560.6339817741991 17418.223127327066
561.6494412973225 17610.179626091493
562.6646427892883 17645.471584667426
563.6795863302796 17541.859890322354
564.694272000459 17570.191524575224
565.7086998799423 17636.82783554679
566.7228700488104 17567.66713262161
567.7367825871115 17549.55465981355
568.7504375748576 17607.053182026502
569.7638350920224 17613.612825521624
570.7769752185486 17584.14159283339
571.7898580343353 17720.090522888742
572.802483619258 17660.487903432895
573.8148520531431 17933.289609474832
574.8269634157932 17901.613260516973
575.8388177869692 17964.99547704729
576.8504152463938 18037.242459287547
577.8617558737587 18219.7336895404
578.8728397487175 18241.570072261016
579.883666950891 18517.145105317883
580.8942375598654 18638.032198118446
581.9045516551851 18867.235231587874
582.9146093163617 19066.549588337763
583.924410622878 19114.511533929934
584.9339556541727 19178.86769708991
585.9432444896538 19556.230418282965
586.9522772086875 19303.499087590495
587.9610538906127 19430.74052432127
588.9695746147318 19357.4600411082
589.9778394603054 19398.519066891957
590.985848506567 19405.886115472982
591.9936018327098 19357.551099919947
593.0010995178891 18993.887401471045
594.0083416412344 19048.465909092844
595.0153282818283 18836.485776053865
596.0220595187293 18702.31045101334
597.0285354309508 18575.96770276375
598.0347560974806 18513.28396271605
599.0407215972609 18394.345481142358
600.0464320092051 18380.513087942505
601.0518874121954 18342.171285040346
602.0570878850685 18235.773923423414
603.062033506636 18249.950877947547
604.0667243556636 18200.371140248095
605.0711605108936 18117.518835840907
606.0753420510264 18357.675203466366
607.0792690547278 18274.711852907338
608.082941600629 18247.52723255074
609.0863597673306 18155.80083110049
610.0895236333909 18394.732765130546
611.0924332773357 18586.276878629364
612.0950887776617 18632.269474958164
613.0974902128219 18714.158523873957
614.0996376612384 19158.194936171232
615.1015312013005 19217.83939693783
616.1031709113595 19299.49731773673
617.1045568697336 19405.23619290025
618.1056891547069 19776.549567346894
619.1065678445229 19938.87144260134
620.1071930173985 20610.74270141373
621.1075647515099 20719.770518118985
622.1076831250048 20966.662771762552
623.1075482159849 21287.919252742522
624.1071601025305 21686.601092755584
625.1065188626781 22105.855047995494
626.105624574433 22635.113693979503
627.1044773157682 22848.729574021207
628.1030771646128 23192.151118934373
629.1014241988742 23580.808651287625
630.0995184964158 24011.678241278525
631.0973601350688 24083.084999947976
632.0949491926294 24456.07061467718
633.0922857468631 24223.826204788405
634.089369875499 24398.974555940058
635.0862016562278 24294.131116046407
636.0827811667077 23997.91037757611
637.0791084845641 24027.08156632753
638.0751836873878 23646.42938245462
639.0710068527369 23619.90613499186
640.0665780581294 23095.540549673562
641.0618973810506 22760.278168771085
642.0569648989604 22562.92509189814
643.0517806892676 22033.997655556945
644.0463448293649 21746.0302912938
645.040657396592 21345.411623501735
646.0347184682723 21066.296998079437
647.0285281216875 20725.378683156443
648.0220864340772 20502.388135969486
649.0153934826558 20128.743661267676
650.0084493446047 19887.189477385975
651.0012540970674 19655.127013852143
651.9938078171526 19422.352119444688
652.9861105819346 19130.37787422374
653.9781624684565 19175.133959812527
654.9699635537254 18826.830798185983
655.9615139147136 18719.810956816607
656.9528136283589 18535.244342349433
657.9438627715699 18575.033269065592
658.9346614212154 18365.66872406767
659.925209654135 18037.976259353552
660.9155075471263 18098.499690418477
661.9055551769616 18081.384058222004
662.895352620375 18141.916478669984
663.8848999540678 18020.96509526693
664.8741972547068 17763.538312689656
665.863244598926 17719.22297917376
666.8520420633213 17759.834099919
667.8405897244611 17696.077841273946
668.8288876588758 17477.744807764324
669.8169359430613 17697.234257388707
670.8047346534822 17618.12290901083
671.7922838665672 17554.672131919982
672.7795836587156 17591.187099479583
673.766634106285 17719.90764542021
674.7534352856092 17478.785645184038
675.7399872729766 17509.400794825204
676.7262901446538 17620.50760778167
677.712343976862 17524.553203427426
678.6981488457986 17590.614708687004
679.6837048276229 17520.835435784007
680.6690119984596 17577.708488049044
681.6540704344043 17434.807829289093
682.6388802115107 17409.531160376668
683.6234414058108 17414.30964355068
684.6077540932874 17254.934137669094
685.591818349907 17297.952018275068
686.575634251587 17163.233965711574
687.5592018742263 17169.883678795508
688.5425212936734 17044.250581636785
689.5255925857564 17082.46637473774
690.5084158262707 16940.097522461434
691.4909910909646 16911.30143746889
692.4733184555644 16792.8570692169
693.4553979957618 16808.266406355604
694.4372297872123 16742.488167736064
695.4188139055404 16700.957529856347
696.4001504263324 16585.76054040478
697.3812394251509 16644.47845048976
698.3620809775111 16555.511078908326
699.3426751589104 16610.70711500793
700.3230220448004 16453.454958843933
701.3031217106054 16685.23899797902
702.2829742317172 16614.8723992964
703.2625796834873 16426.871417356444
704.2419381412474 16445.123855692407
705.22104968028 16549.879300654888
706.1999143758458 16482.30750970186
707.178532303169 16581.305095545362
708.1569035374378 16403.40071746086
709.1350281538107 16536.01583973696
710.1129062274158 16531.524079783787
711.0905378333373 16663.936110830015
712.0679230466376 16516.111519934224
713.0450619423427 16815.037613384236
714.0219545954424 16753.814046695705
714.9986010808989 16722.072874088983
715.9750014736292 16869.675985075133
716.9511558485392 17087.576789961528
717.9270642804786 17055.901272237686
718.9027268442787 17207.691511976904
719.8781436147328 17156.873456563804
720.8533146666014 17155.340324567802
721.828240074612 17122.748271321434
722.8029199134635 17130.864920697142
723.7773542578125 17057.269481233692
724.751543182294 17055.851901483522
725.7254867615029 17057.90866301633
726.6991850700015 16842.37959933571
727.6726381823228 16806.465374536285
728.6458461729599 16849.20678150202
729.6188091163858 16651.97290418052
730.5915270870246 16721.308605469407
731.5640001592856 16488.557979578407
732.536228407529 16697.844596900824
733.5082119060917 16506.907560184387
734.4799507292755 16439.55242501666
735.4514449513481 16478.402211316898
736.4226946465496 16706.150701178867
737.3936998890786 16552.55891224088
738.3644607531078 16531.015702272347
739.3349773127793 16457.600486262632
740.3052496421951 16625.436475281036
741.27527781543 16375.042040522869
742.2450619065221 16342.981094813269
743.2146019894826 16379.169396808458
744.183898138288 16358.171936848996
745.1529504268801 16295.166133641444
746.1217589291682 16207.381881862191
747.0903237190341 16106.915607265251
748.058644870318 16188.171157449528
749.0267224568397 16039.062351871564
749.994556552374 15976.79321601481
750.9621472306771 16053.908431556436
751.9294945654583 16107.23369226073
752.8965986304011 16031.657237402687
753.8634594991636 16002.912652542384
754.8300772453586 16205.12573727715
755.7964519425768 16107.31461438769
756.762583664371 16111.051932114078
757.7284724842611 16189.191562085252
758.6941184757416 16045.648861117375
759.6595217122667 16205.05961656792
760.6246822672638 16183.928851393557
761.5896002141235 16174.041880379751
762.5542756262093 16253.48442769137
763.5187085768503 16253.21944406631
764.4828991393406 16169.11376540926
765.4468473869474 16197.58945117059
766.4105533929032 15988.230870598785
767.3740172304078 15968.681497690626
768.3372389726283 16070.466715679295
769.3002186926988 15807.932349104962
770.2629564637282 15758.7115877784
771.2254523587872 15789.44841244451
772.1877064509154 15534.441725347328
773.1497188131179 15503.273359529747
774.1114895183728 15334.729607483765
775.0730186396268 15451.198691417687
776.0343062497905 15220.399968279491
776.9953524217381 15288.767977792615
777.9561572283274 15300.253055981539
778.9167207423689 15260.820095167064
779.8770430366476 15203.639994415262
780.8371241839159 15235.845299126366
781.7969642568951 15167.233021937369
782.7565633282757 15371.541243898184
783.7159214707099 15038.257465406768
784.6750387568281 15272.00244944724
785.6339152592227 15081.3770348828
786.5925510504512 15268.493567931684
787.5509462030477 15185.617952231547
788.5091007895098 15284.60743674957
789.4670148823006 15188.733983397839
790.4246885538596 15400.364693896609
791.3821218765861 15272.057984794654
792.3393149228505 15201.994625189556
793.2962677649975 15330.36917796615
794.2529804753303 15503.943087021082
795.20945312613 15392.405025846121
796.1656857896378 15452.126106349378
797.1216785380675 15521.48340859506
798.0774314435985 15755.475220324628
799.0329445783846 15920.572787354813
799.9882180145414 15968.78612668626
800.9432518241574 15958.002960825452
801.89804607929 16299.056134818005
802.852600851962 16279.196347877607
803.8069162141637 16382.871319649017
804.760992237856 16526.652650738113
805.714828994971 16585.560500971173
806.6684265574077 16679.16747530254
807.6217849970271 16663.657582127486
808.574904385674 16509.583065987455
809.527784795142 16554.687476399173
810.4804262972102 16609.536796424043
811.4328289636178 16407.084619500576
812.3849928660748 16069.191415121964
813.3369180762638 16052.682475025318
814.2886046658241 15798.152806061446
815.2400527063783 15662.202898542393
816.1912622695108 15589.706108446258
817.1422334267718 15521.143221682327
818.0929662496856 15175.733018805267
819.0434608097457 15003.90302452663
819.9937171784059 14883.42576978637
820.9437354271013 14654.040871047147
821.8935156272255 14664.93003646149
822.8430578501484 14494.521862966381
823.7923621672016 14207.622708742181
824.7414286496896 14417.860552737804
825.6902573688876 14243.624182319492
826.6388483960363 14284.389417997076
827.5872018023492 14139.720974637637
828.5353176590033 14225.884830744864
829.4831960371503 14030.434371892352
830.4308370079016 14078.560413491756
831.3782406423525 14095.680819891573
832.3254070115545 14084.673589594726
833.2723361865319 13903.897036550037
834.2190282382799 13926.254072061627
835.1654832377644 13867.769360254208
836.1117012559116 13910.421130896391
837.0576823636256 14036.158813297967
838.003426631778 13787.73869079317
838.9489341312074 13689.570671834566
839.8942049327197 13903.566465707827
840.8392391070975 13964.843840611027
841.7840367250865 13796.733336275822
842.7285978573982 13657.659388474927
843.672922574724 13907.86304205739
844.6170109477152 13828.644361417308
845.560863046996 13872.050014494142
846.5044789431595 13730.271530616263
847.4478587067697 13724.662851385228
848.3910024083561 13878.552288298288
849.333910118421 13808.306010081084
850.2765819074339 13728.198804367237
851.2190178458332 13878.948892541444
852.161218004032 13859.198315439426
853.1031824524016 13938.442097375382
854.0449112612987 13846.472019506002
854.9864045010327 13987.798723841868
855.9276622418947 13715.795209430798
856.8686845541379 13843.005984595258
857.8094715079915 13825.06961584611
858.7500231736467 13918.87168396082
859.690339621271 14002.232526441565
860.6304209209939 14015.284030773697
861.5702671429244 13870.084986113061
862.5098783571284 14056.519184771012
863.4492546336569 14147.268572116687
864.3883960425155 14030.980819819359
865.3273026536863 14112.519616945603
866.2659745371238 14156.995133533666
867.2044117627465 14257.90417269157
868.1426144004472 14153.335909934272
869.0805825200823 14347.664028004347
870.0183161914847 14425.379564514209
870.9558154844526 14495.255701646875
871.8930804687552 14560.558559252459
872.8301112141307 14538.082481968788
873.7669077902865 14804.472077002894
874.7034702669062 14890.581896929963
875.6397987136315 14890.04383850763
876.5758932000863 14953.306795899873
877.5117537958522 15156.696107297084
878.4473805704911 15061.128654973558
879.3827735935283 15098.4555316591
880.3179329344603 15120.134077662291
881.2528586627541 15277.74967174783
882.1875508478479 15358.952076143916
883.1220095591489 15119.190156735636
884.0562348660296 15073.146555305448
884.9902268378391 15243.859123962733
885.9239855438955 15116.100467630939
886.8575110534839 14935.879481472275
887.7908034358588 14977.98228048977
888.7238627602474 14926.890578191294
889.6566890958475 14834.937104323875
890.5892825118208 14592.956249506484
891.5216430773125 14553.128772867898
892.4537708614189 14489.276117955113
893.3856659332196 14240.04585345166
894.3173283617652 14192.788311739667
895.2487582160684 14077.23519936609
896.179955565116 13940.52137839444
897.110920477864 13732.08790476314
898.0416530232451 13759.988673723954
898.9721532701478 13566.378505260212
899.9024212874428 13692.258521866102
900.8324571439662 13354.353081148325
901.7622609085302 13381.435937134209
902.6918326499072 13217.491452163338
903.6211724368477 13275.950046544973
904.5502803380696 13282.909549589653
905.4791564222614 13424.362108391002
906.4078007580792 13186.489720898942
907.3362134141571 13177.493040658519
908.2643944590909 13173.059984511734
909.1923439614493 13164.116617232332
910.1200619897754 12995.50529680515
911.0475486125779 13256.80188579566
911.9748038983344 12989.85932214712
912.9018279155007 12932.47377278409
913.8286207324982 12909.353315177617
914.7551824177117 12986.70759284347
915.6815130395116 12911.660718602481
916.6076126662283 12867.652607742533
917.533481366163 12764.54227963924
918.4591192075914 12826.854310228453
919.3845262587565 12868.303624678705
920.3097025878706 12772.193125484266
921.2346482631237 12714.585457660964
922.1593633526682 12747.054358142706
923.0838479246304 12862.204098605796
924.0081020471061 12906.156651442292
924.9321257881656 12605.866877477285
925.8559192158464 12707.15874287178
926.7794823981512 12626.186016563668
927.7028154030686 12688.330553007263
928.6259182985414 12484.011377235598
929.5487911524906 12708.738498354534
930.4714340328119 12677.674618322128
931.3938470073608 12490.347103943197
932.3160301439748 12632.869789208049
933.2379835104548 12654.904703466047
934.1597071745709 12637.717376849552
935.0812012040769 12625.442080819988
936.002465666681 12604.886730641125
936.9235006300696 12628.77624612562
937.8443061619055 12534.285499309752
938.7648823298077 12378.862711708203
939.6852292013809 12470.110518184785
940.6053468441951 12621.545602904389
941.5252353257874 12414.15580178398
942.4448947136698 12523.354225435227
943.364325075323 12510.807871140032
944.2835264782043 12559.005494006253
945.2024989897309 12488.524938506223
946.1212426773054 12528.774992524766
947.0397576082851 12441.763129140196
947.9580438500125 12569.953390605453
948.8761014697939 12552.916805974794
949.7939305349064 12543.562787149629
950.7115311125999 12332.854865372878
951.6289032700952 12468.843626659971
952.5460470745875 12505.16879052922
953.4629625932339 12436.277701179533
954.3796498931715 12525.274924049318
955.2961090415029 12451.815270123721
956.2123401053068 12430.113492717634
957.1283431516276 12432.295297484163
958.0441182474842 12261.380684031596
958.9596654598663 12532.74743055309
959.8749848557309 12330.833532035052
960.7900765020167 12411.819832071888
961.7049404656209 12292.414010403492
962.6195768134185 12331.482992891757
963.5339856122537 12422.994661362984
964.4481669289453 12403.048636075355
965.3621208302793 12289.668625020891
966.2758473830145 12302.725831326603
967.1893466538822 12362.804015996882
968.1026187095813 12237.99726357892
969.0156636167867 12364.61203973615
969.9284814421426 12358.438146303972
970.8410722522622 12281.30472495941
971.753436113735 12285.74152054839
972.6655730931161 12238.252891828302
973.5774832569368 12390.373508511342
974.4891666716958 12318.229599476777
975.4006234038698 12277.22824093046
976.3118535198955 12180.326043368852
977.2228570861935 12426.77789448088
978.1336341691494 12374.155485296773
979.0441848351202 12372.358436442966
979.9545091504333 12391.626094539308
980.864607181391 12495.273853574745
981.7744789942699 12411.868501622099
982.6841246553086 12501.756323902911
983.5935442307236 12425.405454258136
984.5027377867027 12538.078255475592
985.4117053894024 12486.404284218475
986.3204471049557 12502.787583183981
987.2289629994648 12620.59413358331
988.1372531390007 12723.25815621651
989.0453175896091 12560.848940070648
989.9531564173067 12640.518955543494
990.860769688079 12527.690351014857
991.7681574678918 12667.75447969011
992.6753198226706 12762.97427910261
993.582256818323 12737.152032403992
994.4889685207218 12710.71497232401
995.3954549957143 13015.202068286497
996.301716309119 13042.403404627496
997.2077525267232 13031.781195503132
998.1135637142943 12834.740433768067
999.0191499375615 13140.491279732272
999.924511262232 13024.582211082101
1000.8296477539861 13045.240787206549
1001.7345594784656 12963.700785571145
1002.6392465012996 13047.969102370784
1003.5437088880753 13041.252776240995
1004.4479467043584 13019.519065696031
1005.3519600156869 12816.488922601817
1006.2557488875718 13009.955562901036
1007.1593133854858 12889.575245924027
1008.0626535748888 12875.120362819616
1008.9657695212009 12750.85402200477
1009.8686612898182 13046.062695545988
1010.7713289461135 12826.421608808145
1011.6737725554212 12856.129236560926
1012.5759921830577 12733.52933594504
1013.4779878943027 12854.15279581209
1014.379759754418 12812.735965966547
1015.2813078286254 12567.739949710938
1016.18263218213 12416.367412480888
1017.0837328801026 12598.672687119153
1017.9846099876886 12428.814283179876
1018.8852635700023 12427.70191825656
1019.7856936921362 12242.211946867581
1020.6859004191447 12463.486047461933
1021.5858838160675 12248.017419916432
1022.4856439479063 12205.916797551505
1023.3851808796389 12142.386577047013
1024.2844946762143 12256.70171514256
1025.183585402554 12019.404476202557
1026.082453123554 11986.995304304837
1026.9810979040776 11944.194455792265
1027.8795198089647 11856.81722261513
1028.777718903024 11900.143676929614
1029.6756952510368 11854.761007016652
1030.5734489177648 11689.32865669669
1031.4709799679313 11944.997621276534
1032.3682884662358 11815.378332200922
1033.2653744773506 11796.304798485497
1034.1622380659192 11693.600530062558
1035.058879296559 11831.227051174967
1035.9552982338591 11908.574088201747
1036.8514949423825 11713.045149999394
1037.7474694866614 11714.096549355336
1038.6432219312028 11806.971804629535
1039.5387523404825 11831.022659602882
1040.4340607789582 11840.543756090581
1041.3291473110476 11798.778821880207
1042.2240120011465 12038.664894297215
1043.1186549136273 11982.834275691148
1044.0130761128294 11874.344032330799
1044.9072756630649 11970.191441609657
1045.8012536286205 12152.399126696158
1046.6950100737577 12029.419794588553
1047.588545062701 12297.114297176411
1048.481858659663 12147.088683994216
1049.3749509288118 12348.25641436451
1050.2678219343034 12095.854926939886
1051.1604717402515 12286.419532999837
1052.0529004107575 12171.548121278489
1052.9451080098825 12367.813030282758
1053.8370946016694 12317.599986723162
1054.7288602501267 12403.50322458557
1055.6204050192446 12279.936785843955
1056.511728972977 12467.974841919884
1057.402832175254 12399.541443389115
1058.2937146899785 12287.227576559333
1059.1843765810263 12253.214602325643
1060.0748179122456 12474.534177254503
1060.9650387474576 12344.278160966634
1061.855039150456 12380.585711058167
1062.7448191850071 12325.523008405838
1063.6343789148505 12359.591338261193
1064.5237184037014 12329.151697874027
1065.412837715241 12160.76791023931
1066.3017369131267 12190.209940447803
1067.190416060992 12280.12061504954
1068.0788752224398 12041.125764291692
1068.9671144610438 12077.454446240019
1069.8551338403558 12108.56038737628
1070.7429334239023 12158.421455842708
1071.6305132751695 11948.860833736928
1072.517873457633 12056.790622544464
1073.4050140347335 11892.997173163269
1074.2919350698776 11915.698408020402
1075.1786366264623 11771.128407781607
1076.0651187678395 11821.911427898358
1076.95138155735 11613.705254026725
1077.8374250582929 11560.388427130678
1078.7232493339507 11584.76169974537
1079.608854447577 11629.390758533467
1080.4942404623907 11496.374269883938
1081.3794074415982 11588.69113814006
1082.2643554483657 11469.636726572906
1083.149084545841 11454.662413109565
1084.033594797138 11212.435280638903
1084.9178862653516 11324.718047539964
1085.8019590135427 11357.673822896779
1086.6858131047484 11183.74122067793
1087.5694486019802 11166.97721770639
1088.4528655682225 11165.669630818045
1089.3360640664287 11294.855352268289
1090.2190441595321 11101.488608524478
1091.1018059104317 11159.279742124543
1091.98434938201 11142.703769257472
1092.866674637111 11181.237635863206
1093.748781738559 11075.373923688785
1094.6306707491512 10983.891337468933
1095.5123417316554 11179.928159814468
1096.3937947488157 10988.81135365558
1097.2750298633455 11026.1512665592
1098.156047137938 10922.377996250256
1099.0368466352556 11116.530084919114
1099.9174284179317 10999.022878274463
1100.7977925485757 10956.739376625676
1101.6779390897755 10878.836841851637
1102.5578681040806 11008.831641041179
1103.4375796540226 10949.48130473873
1104.3170738021054 10973.145565609278
1105.1963506108077 10895.715019260037
1106.0754101425773 10947.820975143904
1106.9542524598382 10974.335896103512
1107.8328776249855 10869.48455967681
1108.7112857003904 10882.227470907197
1109.5894767483987 10999.362964209486
1110.4674508313292 11134.498381366773
1111.3452080114657 11241.545296592994
1112.2227483510815 11180.38991941898
1113.1000719124077 11362.944355697151
1113.9771787576592 11462.725312394497
1114.854068949022 11479.83563943522
1115.7307425486542 11587.86560056961
1116.6071996186893 11711.724126705169
1117.483440221229 12023.388168253823
1118.3594644183577 11944.668537698542
1119.235272272128 12046.343609206759
1120.1108638445658 12318.951522167557
1120.9862391976712 12645.745151154963
1121.8613983934229 12641.826150044306
1122.7363414937627 12624.743704128294
1123.6110685606182 12883.770769074596
1124.485579655884 13179.959706650403
1125.359874841426 13165.682443960764
1126.2339541790916 13243.15254425954
1127.1078177306936 13611.763232567133
1127.9814655580267 13273.777225616775
1128.854897722851 13502.836813075439
1129.7281142869106 13577.854376630328
1130.6011153119125 13657.01643620609
1131.473900859548 13797.0210170001
1132.3464709914697 13638.593545882894
1133.2188257693178 13521.038331281296
1134.0909652546961 13514.726433602968
1134.96288950919 13245.613155054447
1135.8345985943506 13444.837937613082
1136.7060925717087 13020.584053538925
1137.57737150277 13164.273046435172
1138.4484354490069 12984.381792824062
1139.3192844718778 12757.861968804267
1140.1899186327992 12593.240598885075
1141.060337993178 12490.075296753588
1141.930542614382 12170.810218007111
1142.8005325577597 12268.437430578339
1143.670307884635 11880.54975858604
1144.5398686563003 12028.168044011156
1145.409214934025 11734.861534500624
1146.2783467790541 11522.04653459619
1147.1472642526023 11454.468831924694
1148.0159674158622 11565.930074893393
1148.8844563300026 11045.121209554069
1149.7527310561618 11114.100203997114
1150.6207916554504 10836.78748961072
1151.4886381889592 10842.857309661218
1152.3562707177498 10841.425407822857
1153.2236893028585 10710.831562683743
1154.090894005296 10594.339328172191
1154.9578848860474 10626.73781496486
1155.8246620060709 10556.505119326723
1156.6912254262988 10494.57981730885
1157.5575752076438 10319.04455762027
1158.42371141098 10451.11578825103
1159.2896340971656 10432.06161314726
1160.1553433270346 10374.687735363808
1161.0208391613887 10323.721180880373
1161.8861216610057 10367.605747261172
1162.75119088664 10249.972449232835
1163.6160468990201 10237.899341661556
1164.4806897588442 10039.86898083678
1165.3451195267917 10384.709545314663
1166.2093362635114 10250.932738651814
1167.0733400296285 10165.390467908961
1167.9371308857444 10017.667206822767
1168.8007088924278 10048.090682274607
1169.6640741102328 10118.51006341913
1170.5272265996773 9978.868876193595
1171.390166421259 9820.474980442352
1172.252893635452 10088.92533462574
1173.1154083026995 10195.208190766189
1173.977710483421 10013.536547539914
1174.8398002380145 9861.544983378604
1175.7016776268483 10008.023162518157
1176.563342710264 10042.752216588635
1177.4247955485826 10021.091831787733
1178.2860362020947 10020.686844860607
1179.147064731069 10032.64575108393
1180.0078811957483 10145.082822116421
1180.8684856563486 9974.765337086454
1181.7288781730604 10155.321980435892
1182.589058806052 10273.599391414331
1183.4490276154593 10369.322647957004
1184.3087846614017 10288.386473929026
1185.1683300039676 10255.48310667759
1186.027663703222 10625.119798965225
1186.8867858192025 10453.950205063731
1187.7456964119228 10529.812744724206
1188.6043955413716 10629.399571454978
1189.4628832675116 10787.248629714572
1190.3211596502842 10836.115271751954
1191.179224749596 10902.000247395656
1192.0370786253388 10820.199738702446
1192.8947213373758 11068.194123407216
1193.7521529455407 11158.110394086518
1194.6093735096438 10989.486080107556
1195.466383089477 11096.649202358534
1196.3231817447977 11175.352664806112
1197.1797695353398 11249.289612273473
1198.0361465208189 11106.642259815417
1198.8923127609214 11063.688828708355
1199.7482683153048 11126.643704719509
1200.6040132436028 11356.20978285596
1201.459547605431 11172.188402020849
1202.3148714603722 11023.259434172527
1203.1699848679855 11003.166966313685
1204.0248878878065 11131.76275509482
1204.8795805793507 10883.81521163483
1205.7340630020935 10822.791554271627
1206.5883352155033 11027.909675362313
1207.4423972790064 10827.927007673108
1208.2962492520237 10725.571732752656
1209.1498911939307 10635.079176306837
1210.0033231640937 10717.763390122072
1210.8565452218427 10617.788655755325
1211.7095574264913 10456.339402864625
1212.5623598373222 10364.878790821995
1213.4149525135963 10353.657926638462
1214.2673355145507 10300.553655780683
1215.1195088993936 10145.31385624221
1215.9714727273113 10174.397350015017
1216.8232270574663 10209.6017246285
1217.6747719489904 10013.649623071373
1218.5261074609934 9982.741848480262
1219.3772336525653 9891.28133610881
1220.2281505827668 10064.874833624093
1221.0788583106296 9876.464987157073
1221.9293568951707 9821.101443710952
1222.7796463953746 9708.924283722195
1223.629726870202 9869.202425475423
1224.4795983785934 9832.242118329488
1225.3292609794553 9819.379710495883
1226.1787147316809 9655.056037198296
1227.0279596941327 9783.045258715068
1227.8769959256424 9739.479835885882
1228.7258234850306 9787.350870955295
1229.5744424310833 9513.809540095432
1230.422852822563 9762.809511747822
1231.2710547182105 9804.686770980159
1232.119048176739 9719.385940623984
1232.9668332568417 9620.17985587243
1233.8144100171812 9802.457071788525
1234.6617785163999 9656.820526325657
1235.508938813111 9566.331974318146
1236.3558909659114 9621.44427096383
1237.2026350333617 9712.03506718377
1238.049171074008 9763.937480678995
1238.8954991463652 9731.17885294411
1239.741619308932 9519.735606730472
1240.587531620169 9673.887859479195
1241.4332361385277 9701.544699949101
1242.2787329224248 9555.498773167543
1243.1240220302534 9446.018010536154
1243.9691035203869 9482.083532402636
1244.813977451171 9577.288409506844
1245.6586438809263 9609.48472913761
1246.5031028679496 9346.70586915836
1247.3473544705157 9705.00435669861
1248.1913987468706 9538.535158140565
1249.0352357552383 9426.6380448086
1249.8788655538228 9305.315620605656
1250.7222882007918 9448.260443151961
1251.565503754302 9476.432853046013
1252.4085122724755 9443.695127364284
1253.2513138134182 9580.038572529844
1254.0939084352049 9544.036083177492
1254.9362961958905 9476.389372195521
1255.7784771535007 9507.853779581754
1256.6204513660432 9451.675819950926
1257.4622188915 9641.615228034036
1258.3037797878242 9491.49131207674
1259.1451341129468 9452.463885627532
1259.9862819247755 9511.771233149837
1260.8272232811978 9414.612895546641
1261.6679582400666 9610.311260779428
1262.5084868592203 9442.610086632943
1263.34880919647 9259.169664902749
1264.1889253095997 9462.38238783336
1265.0288352563712 9425.454255038741
1265.8685390945266 9359.303610798732
1266.7080368817751 9362.206439326434
1267.5473286758115 9447.26835860169
1268.386414534294 9349.61964384104
1269.2252945148703 9191.513837835208
1270.0639686751547 9191.939155455288
1270.9024370727402 9223.282774931606
1271.7406997651997 9049.386891815393
1272.5787568100714 9124.402767003714
1273.4166082648808 9187.180447325858
1274.2542541871244 9168.647413020213
1275.091694634275 9290.38936162911
1275.9289296637817 9031.279897732742
1276.7659593330663 9074.217924050707
1277.6027836995308 9141.32089088584
1278.4394028205552 9084.670094671077
1279.2758167534867 9042.568485588741
1280.112025555658 9058.34649401264
1280.9480292843746 9147.301010022415
1281.7838279969128 8906.516648554576
1282.6194217505326 8899.128269395183
1283.4548106024686 8770.068509559047
1284.289994609926 8973.009197926107
1285.1249738300921 9010.181836822168
1285.959748320127 8826.01189538959
1286.7943181371702 8796.97504618988
1287.6286833383328 8933.76391576916
1288.4628439807038 9038.577243428776
1289.2968001213521 8865.305573257347
1290.1305518173194 8869.622315889505
1290.9640991256183 9086.85999928461
1291.7974421032523 8691.65063709725
1292.630580807183 8956.0757290937
1293.463515294361 9014.619334339915
1294.29624562171 9082.563952134911
1295.12877184613 9002.662156408427
1295.961094024493 9024.280866769037
1296.79321221365 8997.990760394276
1297.6251264704333 9093.807071162484
1298.4568368516466 9290.267765330998
1299.2883434140658 9090.761299368873
1300.1196462144526 8911.24476931789
1300.9507453095375 9160.342942159064
1301.7816407560313 9156.084025382715
1302.6123326106172 9196.626940270253
1303.4428209299622 8936.101657420531
1304.2731057707024 9427.969232624328
1305.1031871894502 9103.754337169714
1305.933065242798 9258.082062387137
1306.7627399873181 9192.187360066
1307.5922114795467 9571.131927558648
1308.4214797760123 9434.95899371208
1309.2505449332057 9301.300282112761
1310.0794070076026 9339.673562755646
1310.9080660556538 9634.288133627148
1311.736522133786 9652.865287235136
1312.5647752983987 9408.856359223159
1313.3928256058734 9381.58083106785
1314.2206731125661 9605.825788233826
1315.048317874809 9539.694060938464
1315.8757599489109 9625.730632533207
1316.7029993911547 9482.90091828382
1317.5300362578055 9732.677952689211
1318.356870605101 9444.91994564306
1319.183502489257 9616.440838788269
1320.0099319664623 9683.173342336475
1320.836159092889 9667.245686055658
1321.66218392468 9775.73893109179
1322.4880065179532 9606.76395588541
1323.3136269288134 9695.156063786399
1324.1390452133292 9845.930913856582
1324.9642614275563 9827.224380223357
1325.7892756275214 9727.01511338051
1326.6140878692295 9709.554312381784
1327.4386982086617 9958.553658002875
1328.2631067017755 9754.793415297008
1329.0873134045069 9857.295464368113
1329.911318372764 9615.308240275468
1330.735121662441 9809.955979160619
1331.558723329399 9706.937386007847
1332.3821234294774 9670.527340345767
1333.2053220185007 9562.076431768153
1334.0283191522612 9654.470336589005
1334.851114886529 9709.02233397954
1335.6737092770582 9656.94261548248
1336.4961023795695 9584.95429372223
1337.3182942497697 9563.036248498347
1338.1402849433325 9632.952736181294
1338.962074515921 9416.923882997882
1339.7836630231632 9401.269172120727
1340.6050505206676 9776.19077354925
1341.426237064028 9683.62287256773
1342.2472227088037 9683.410282548793
1343.0680075105338 9341.491146916333
1343.888591524741 9483.269186342828
1344.7089748069138 9726.722227336602
1345.5291574125276 9368.944078633336
1346.3491393970307 9324.839201873636
1347.168920815846 9556.200823906798
1347.9885017243778 9461.160689524622
1348.8078821780036 9368.986902781526
1349.6270622320844 9370.679647173012
1350.4460419419447 9434.719478177522
1351.2648213629054 9504.4888794334
1352.0834005502438 9266.27579309371
1352.90177955923 9270.888369029793
1353.7199584451064 9948.528436878732
1354.5379372630887 9358.479281966698
1355.355716068374 9356.495677936795
1356.1732949161305 9363.723801157817
1356.9906738615155 9477.066441852043
1357.8078529596478 9476.665218181563
1358.6248322656375 9331.771586605979
1359.441611834567 9173.733425384402
1360.2581917214866 9609.084326634455
1361.0745719814367 9211.85505823786
1361.890752669433 9341.608800725491
1362.7067338404577 9226.296861526433
1363.5225155494845 9485.240284752015
1364.3380978514506 9530.439665103051
1365.1534808012839 9189.998816260651
1365.9686644538815 9183.1351960752
1366.783648864117 9485.84622962691
1367.5984340868417 9497.795204533451
1368.413020176893 9384.809774701807
1369.2274071890715 9269.7102277095
1370.0415951781652 9468.554579928157
1370.8555841989346 9257.937706376555
1371.6693743061223 9242.943296625255
1372.48296555444 9320.217995109784
1373.2963579985844 9536.368348144322
1374.1095516932255 9402.079552918836
1374.9225466930166 9315.605064835694
1375.7353430525782 9294.189373955123
1376.5479408265164 9297.396483037273
1377.36034006941 9578.39181656438
1378.1725408358216 9501.24743727034
1378.9845431802805 9249.743036699938
1379.796347157304 9715.360593595897
1380.6079528213813 9497.402433494797
1381.4193602269788 9370.755729650084
1382.230569428546 9390.779026903858
1383.0415804805016 9787.276651457865
1383.852393437246 9607.916972336921
1384.6630083531563 9498.691763925804
1385.4734252825892 9308.680225903496
1386.2836442798798 9588.139293754448
1387.0936653993322 9490.739407661302
1387.9034886952395 9362.384205617429
1388.713114221864 9503.402406581143
1389.5225420334482 9623.388964774938
1390.331772184214 9366.078612607032
1391.1408047283585 9345.074306503393
1391.9496397200564 9305.007789684216
1392.758277213461 9577.217261549187
1393.5667172627054 9572.012949963913
1394.3749599218918 9208.56137037671
1395.1830052451114 9021.863216992599
1395.9908532864265 9316.990668961695
1396.7985040998774 9451.11885526044
1397.6059577394808 9128.866067386898
1398.4132142592352 9306.364395520231
1399.2202737131156 9026.851252606455
1400.027136155073 9180.148785253587
1400.8338016390353 9065.494460892756
1401.6402702189134 9127.155933015772
1402.446541948586 9164.36661661229
1403.2526168819204 8936.625003806017
1404.058495072757 8966.919424438298
1404.8641765749107 8882.03737355441
1405.6696614421799 8866.450963855988
1406.4749497283356 9088.988163251384
1407.280041487129 8852.486646534619
1408.084936772295 8583.570955273464
1408.8896356375335 8845.14343238097
1409.6941381365323 8797.975336203193
1410.498444322955 8497.22009250922
1411.3025542504402 8516.647492135015
1412.106467972606 8621.339174914578
1412.9101855430508 8543.048531791992
1413.7137070153458 8383.954446316715
1414.5170324430437 8342.303593282439
1415.320161879672 8445.848103908655
1416.1230953787435 8621.565721326038
1416.925832993742 8204.661816180334
1417.7283747781275 8047.876632420279
1418.5307207853439 8384.192176209935
1419.3328710688093 8177.168771260875
1420.134825681922 8074.017810436027
1420.9365846780584 8012.014367955009
1421.7381481105713 8315.890417113378
1422.539516032788 8211.634858067566
1423.3406884980232 7929.684131983042
1424.1416655595604 7950.124097523307
1424.942447270665 8069.8750933840465
1425.7430336845828 8101.718161908143
1426.5434248545298 7967.643395925637
1427.3436208337116 7996.873278487564
1428.143621675301 8159.749764349517
1428.9434274324558 8198.538246907538
1429.7430381583108 7730.518652974766
1430.5424539059713 7731.38162509673
1431.3416747285337 8342.570602701382
1432.1407006790632 8036.560577260454
1432.9395318106053 8005.816691416153
1433.7381681761835 7806.374795380807
1434.5366098288014 7807.200134676035
1435.3348568214424 7951.249054321555
1436.1329092070573 7770.768831897156
1436.9307670385879 7680.895620376519
1437.7284303689503 7901.246222046783
1438.5258992510335 8099.422795884498
1439.3231737377118 7727.210074987232
1440.1202538818306 7794.330105168539
1440.9171397362225 7904.585127056821
1441.7138313536925 7957.825355526127
1442.5103287870243 7739.9739788967245
1443.3066320889775 7703.143260443457
1444.1027413122956 8004.950095731268
1444.8986565096966 7792.343822789221
1445.694377733882 7845.791173970152
1446.4899050375207 7650.750128085929
1447.2852384732687 7740.643924099485
1448.0803780937622 7976.740572279816
1448.8753239516063 7583.505048573575
1449.6700760993954 7594.845803373491
1450.464634589689 7498.312875438732
1451.2589994750397 7786.30771588317
1452.0531708079689 7522.262144445548
1452.8471486409799 7517.939191620901
1453.6409330265524 7825.306329185367
1454.4345240171442 7613.591923523605
1455.2279216651987 7691.225683263688
1456.0211260231263 7614.520529699688
1456.8141371433194 7735.244325823953
1457.6069550781594 7735.710419045301
1458.3995798799897 7513.026673252262
1459.1920116011424 7438.05186926673
1459.98425029393 7589.4552875603895
1460.7762960106338 7404.4804760113275
1461.5681488035225 7445.941974727427
1462.3598087248392 7559.455670160317
1463.1512758268036 7611.828977771668
1463.942550161617 7564.499255766046
1464.7336317814625 7437.160849751441
1465.524520738496 7515.666776374576
1466.3152170848552 7410.914104782612
1467.1057208726506 7584.155968644845
1467.8960321539817 7355.180441611296
1468.6861509809169 7253.795896678637
1469.4760774055085 7305.335061428246
1470.265811479785 7623.052523807126
1471.055353255755 7401.575913258557
1471.844702785409 7398.384456212945
1472.6338601207044 7330.66420313346
1473.4228253135934 7948.511616502734
1474.2115984159936 7372.610644347301
1475.0001794798063 7189.595493642296
1475.7885685569145 7441.274733537201
1476.576765699172 7418.933636550835
1477.3647709584238 7308.985095191512
1478.1525843864802 7477.439412357647
1478.9402060351367 7509.056611481782
1479.7276359561693 7486.011905200379
1480.514874201328 7309.647716736037
1481.3019208223468 7224.855052981929
1482.0887758709323 7364.309323979648
1482.8754393987747 7583.020005683264
1483.6619114575406 7227.7615420260045
1484.4481920988783 7490.0676392969135
1485.2342813744108 7542.109918233948
1486.0201793357446 7672.043383563903
1486.8058860344572 7365.50922067051
1487.591401522117 7341.716478494015
1488.3767258502594 7487.791011666035
1489.1618590704056 7521.89318114679
1489.9468012340494 7378.395552398506
1490.7315523926754 7526.6461471711245
1491.5161125977356 7755.926878912525
1492.3004819006637 7560.173254148043
1493.084660352877 7427.168091674002
1493.8686480057622 7586.017323655894
1494.6524449106964 7897.674386216431
1495.4360511190262 7830.008825447194
1496.219466682087 7635.655340092683
1497.0026916511779 7671.723449673458
1497.7857260775945 7597.810436400464
1498.5685700125996 7622.506736949026
1499.3512235074395 7548.489143418237
1500.133686613337 7593.035121980564
1500.9159593814966 7676.73524316953
1501.698041863101 7923.282330431217
1502.4799341093094 7536.205973714455
1503.2616361712662 7415.008310480046
1504.043148100087 7786.95094236476
1504.8244699468742 7657.677975279645
1505.6056017626997 7514.211617206309
1506.3865435986281 7508.306791809569
1507.1672955056893 7758.52078947728
1507.9478575348967 7465.28749137971
1508.7282297372512 7661.135650619069
1509.5084121637192 7601.752345546904
1510.2884048652577 7506.676492664225
1511.0682078927948 7598.051012035068
1511.8478212972423 7486.0993524348905
1512.6272451294917 7423.5139934591225
1513.4064794404076 7714.216929185462
1514.1855242808433 7557.260703343421
1514.9643797016215 7577.901301192821
1515.743045753552 7586.900294533965
1516.5215224874191 7578.415729112549
1517.2998099539836 7354.782312078304
1518.077908203999 7541.964885611604
1518.8558172881785 7547.106946652292
1519.633537257234 7729.031738748692
1520.4110681618404 7629.094034654341
1521.1884100526604 7678.957896880818
1521.9655629803365 7595.186521924579
1522.7425269954856 7766.983951203927
1523.5193021487103 7811.619499813537
1524.2958884905856 7525.955876139315
1525.0722860716687 7586.114165586619
1525.848494942502 7735.201446393521
1526.624515153595 7646.743693901078
1527.4003467554485 7715.992413149742
1528.175989798534 7817.873992930933
1528.9514443333064 7775.236756893934
1529.726710410203 7932.543689153645
1530.5017880796331 7495.458724845646
1531.276677391992 7636.542357527733
1532.0513783976457 8055.258302985043
1532.825891146953 7864.432841741534
1533.6002156902414 7927.058347391137
1534.3743520778207 8006.980255043351
1535.1483003599806 7845.8845923241115
1535.9220605869923 7907.532173470038
1536.6956328091019 8041.417523261176
1537.4690170765407 7982.665307385125
1538.242213439511 8146.266793016747
1539.015221948208 8084.009526600154
1539.78804265279 7941.118930613573
1540.560675603405 7840.245335727084
1541.3331208501804 8129.576876351229
1542.1053784432224 8200.405792364934
1542.8774484326168 8114.534549696555
1543.649330868422 8025.107084337331
1544.4210258006842 8227.37882050611
1545.1925332794308 7995.696151760237
1545.9638533546604 8185.769717139776
1546.7349860763552 7996.026896788137
1547.5059314944829 8504.830675056659
1548.27668965898 8178.352355669696
1549.0472606197673 8287.789216273111
1549.817644426752 8175.98608556848
1550.5878411298072 8291.234202965175
1551.3578507787988 8349.921559856222
1552.1276734235635 8190.9088032786285
1552.8973091139233 8202.888070171848
1553.6667578996767 8389.530766430671
1554.436019830604 8399.179538892624
1555.20509495646 8357.504982797527
1555.9739833269869 8077.710336174964
1556.7426849919011 8174.615827018572
1557.511200000903 8681.90806973329
1558.2795284036674 8298.023565522375
1559.0476702498509 8161.793526416264
1559.8156255890954 8520.729573977926
1560.5833944710157 8562.435888993561
1561.3509769452048 8363.41945494314
1562.1183730612447 8297.042888577098
1562.8855828686865 8403.070659279381
1563.6526064170703 8585.731315474546
1564.4194437559127 8476.68017793355
1565.1860949347047 8206.848794643438
1565.9525600029283 8595.112051380127
1566.7188390100328 8606.030664047425
1567.4849320054564 8298.405332684672
1568.250839038612 8366.436015453419
1569.0165601588997 8301.300527507885
1569.7820954156887 8535.264942768501
1570.5474448583373 8257.82590269767
1571.31260853618 8121.096018164516
1572.0775864985299 8184.782849297189
1572.8423787946813 8332.363420395337
1573.6069854739108 8133.332488560528
1574.371406585471 8265.372133253088
1575.1356421785986 8297.778242422792
1575.899692302506 8198.714719190106
1576.6635570063845 8275.61072575358
1577.4272363394157 8143.588729392565
1578.190730350747 8282.790359616458
1578.9540390895163 8132.206157066507
1579.7171626048384 7956.8858223536035
1580.480100945806 7936.06742664573
1581.2428541614918 8225.18060264365
1582.0054223009538 8218.898318554424
1582.767805413223 8122.084750069203
1583.5300035473156 8082.3632760390465
1584.292016752228 8321.101219187336
1585.0538450769309 8091.246354638693
1585.8154885703807 7883.218999990732
1586.5769472815136 7887.1776205248725
1587.3382212592405 8148.209759071833
1588.099310552463 8208.399976311057
1588.8602152100484 7764.80741119947
1589.6209352808564 8204.587584806988
1590.3814708137234 8227.091370034988
1591.14182185746 7766.306474018944
1591.9019884608679 8139.83826428294
1592.6619706727215 7863.9383333261385
1593.4217685417734 8037.588554992956
1594.1813821167616 8465.164306432993
1594.9408114464022 7912.965924383525
1595.7000565793933 8093.367090424264
1596.459117564409 8254.85380921854
1597.2179944501113 8130.474680826026
1597.9766872851324 8080.258421576965
1598.735196118092 8011.127617310987
1599.4935209975883 8348.290379951495
1600.2516619721973 8309.330675644846
1601.0096190904787 8047.131449588049
1601.7673924009723 8198.95123309659
1602.524981952196 8133.697327684391
1603.2823877926476 8092.008006525034
1604.0396099708087 8113.721569588163
1604.7966485351371 7975.8174813751375
1605.5535035340745 8174.593164960645
1606.3101750160404 8244.574725942046
1607.0666630294363 8121.552480459092
1607.822967622642 7893.323644602261
1608.5790888440224 8202.463167740161
1609.3350267419137 8255.531098287085
1610.0907813646445 8096.826135722961
1610.8463527605145 8136.207423073346
1611.601740977805 8163.850280868142
1612.356946064785 7941.5097392808875
1613.1119680696902 7842.2312307912025
1613.8668070407512 7934.575801314306
1614.6214630261748 8035.155651057115
1615.375936074137 7994.373553750714
1616.1302262328118 8060.766712044917
1616.8843335503425 7968.642494050403
1617.638258074854 7964.76318419293
1618.391999854457 7829.129630452755
1619.1455589372363 7985.568106102762
1619.8989353712623 7977.9523233636555
1620.65212920458 7755.438401291909
1621.4051404852235 7849.009597498936
1622.1579692611976 7834.857876572989
1622.9106155804966 7616.418889096109
1623.663079491087 7738.041882949993
1624.4153610409248 7795.610098326487
1625.1674602779385 7795.720497764987
1625.9193772500403 7598.777378253176
1626.6711120051277 7998.138886617227
1627.4226645910676 7774.939280595399
1628.174035055721 7535.54859899948
1628.9252234469168 7732.380974539554
1629.676229812474 7665.841940279832
1630.4270542001905 8066.766936616279
1631.1776966578382 7697.078679816977
1631.9281572331747 7724.2097798598115
1632.678435973945 7803.561030961862
1633.4285329278573 7692.2021089530435
1634.1784481426203 7597.221664885731
1634.9281816659113 7720.136506717446
1635.677733545388 7964.548632292659
1636.4271038286934 7609.484571159772
1637.176292563452 7811.309987112615
1637.9252997972635 7808.780423020417
1638.674125577716 7982.534441254529
1639.4227699523672 8134.570432384935
1640.171232968767 7528.577360006781
1640.9195146744423 7866.2880192748835
1641.6676151168977 7870.088886673757
1642.4155343436178 7854.215431542051
1643.1632724020765 7859.634248682361
1643.9108293397167 7840.789068658252
1644.658205203974 7765.219199858395
1645.4054000422566 8179.57471128934
1646.1524139019566 7915.683499536544
1646.8992468304423 7917.443360521817
1647.6458988750728 7910.78983996364
1648.3923700831765 7999.587079100258
1649.1386605020743 7916.900453158973
1649.8847701790564 8187.271620598889
1650.6306991614038 8029.216030011647
1651.3764474963682 8147.1531591707535
1652.1220152311944 7826.760509132715
1652.867402413096 7941.715763922579
1653.6126090892776 8011.41652721835
1654.3576353069184 8293.311323816779
1655.1024811131829 7904.338636585671
1655.8471465552066 7941.500182613823
1656.5916316801213 8171.41650079937
1657.3359365350298 8005.488563802173
1658.0800611670165 7959.171985796194
1658.824005623148 7946.861007265181
1659.5677699504722 7731.194781518114
1660.3113541960192 8016.442802645608
1661.054758406799 7893.229571940152
1661.7979826297997 7725.21888673475
1662.5410269119966 7810.573150384253
1663.283891300338 8019.072790283926
1664.0265758417645 7733.757499023266
1664.7690805831826 7775.777259051853
1665.5114055714948 7883.889511430636
1666.2535508535748 8019.985099269467
1666.9955164762814 7554.924427530481
1667.7373024864555 7437.297956659723
1668.478908930916 7785.128374143387
1669.220335856462 7499.435733365052
1669.9615833098778 7501.500174554666
1670.7026513379296 7275.131089576227
1671.44353998736 7528.819611011086
1672.1842493048916 7575.234224718307
1672.9247793372379 7373.54726359295
1673.6651301310812 7389.01011074988
1674.4053017330934 7143.907257310765
1675.1452941899242 7366.132816977561
1675.885107548207 7042.593557964549
1676.6247418545518 7047.7364092948455
1677.3641971555535 6956.613394221628
1678.1034734977893 7097.2993016850405
1678.8425709278108 7126.411858388805
1679.5814894921605 7092.527622400312
1680.320229237359 6886.263922895984
1681.0587902098978 7096.004199781273
1681.7971724562685 6873.031620893067
1682.5353760229264 6864.331995903386
1683.2734009563173 6816.654490645172
1684.0112473028657 6655.665871085184
1684.7489151089794 6706.114158804751
1685.4864044210462 6771.25487489434
1686.2237152854377 6454.408072891618
1686.960847748498 6761.014555640763
1687.6978018565642 6353.154222831318
1688.434577655944 6230.418792518815
1689.1711751929379 6328.177790151395
1689.9075945138156 6358.7073704798295
1690.6438356648396 6219.232761673525
1691.3798986922448 5922.978286164375
1692.1157836422499 6163.857846247027
1692.851490561059 6068.159741284909
1693.587019494853 6094.3065940878405
1694.3223704897991 5963.2035290419435
1695.0575435920364 5723.528161888665
1695.792538847696 6128.824096380298
1696.527356302886 5794.267728890222
1697.2619960036936 5678.599713438993
1697.9964579961907 5914.64552796164
1698.730742326432 5404.034207294278
1699.4648490404488 5445.703564776419
1700.1987781842563 5515.364793983291
1700.9325298038548 5840.26544646496
1701.6661039452174 5730.074892474087
1702.3995006543082 5630.209109341843
1703.1327199770658 5605.335026640461
1703.865761959416 5408.024872997905
1704.598626647261 5722.501801131019
1705.3313140864866 5333.479745741281
1706.0638243229587 5390.36959615364
1706.7961574025303 5557.303566807119
1707.528313371029 5372.503593627231
1708.260292274268 5200.470287579313
1708.9920941580403 5388.491706091798
1709.7237190681226 5324.199140597526
1710.4551670502697 5332.717789158334
1711.18643815022 5027.02540915839
1711.9175324136959 5514.37759421222
1712.6484498863938 5174.363010573855
1713.379190614005 5036.718319751218
1714.109754642188 5277.080183046446
1714.8401420165883 4977.393844862914
1715.570352782839 5392.083937705462
1716.3003869865497 5233.2007739524715
1717.0302446733076 5030.920289996471
1717.7599258886876 5039.944307925746
1718.4894306782444 5271.249507225247
1719.2187590875183 5027.103297939967
1719.9479111620203 5254.1356251377
1720.6768869472544 5040.8894131512525
1721.4056864887025 5269.8409730890235
1722.1343098318284 5250.41984383351
1722.8627570220742 5035.969123735682
1723.591028104871 4875.895766155893
1724.3191231256242 4885.952654387174
1725.0470421297232 4902.512649900375
1725.7747851625427 5080.520222143163
1726.5023522694337 5007.62916642592
1727.2297434957363 4919.980943492532
1727.9569588867635 4902.849619704519
1728.6839984878152 5099.089305871665
1729.4108623441734 4613.7040317927585
1730.1375505011038 4987.349472134557
1730.8640630038426 4874.089179407243
1731.5903998976264 4722.7676104993
1732.316561227657 4882.144417597489
1733.0425470391274 4788.444802789987
1733.7683573772065 4888.275281094147
1734.4939922870508 4752.106745640907
1735.2194518137949 4804.868149164364
1735.9447360025606 4861.295281585406
1736.669844898439 4689.562314820189
1737.3947785465189 4736.8688106737745
1738.1195369918605 4632.631216615104
1738.8441202795093 4633.312140581811
1739.5685284544943 4847.7971746560415
1740.292761561821 4873.993290243819
1741.0168196464838 4832.593042184211
1741.7407027534518 4761.921672374494
1742.464410927687 4814.643696042198
1743.187944214118 4593.651799481731
1743.9113026576688 4604.487371246279
1744.634486303241 4714.758581340579
1745.3574951957125 4576.374771206958
1746.0803293799509 4743.6240117390935
1746.8029889008048 4526.224566830206
1747.5254738031017 4889.274567682585
1748.2477841316504 4480.404023968043
1748.969919931249 4552.137683279763
1749.6918812466665 4668.0851532916695
1750.4136681226646 4842.356853915368
1751.1352806039777 4673.687865317333
1751.856718735331 4488.5156279283465
1752.5779825614281 4589.727171416778
1753.2990721269507 4649.3324309455
1754.0199874765676 4871.050185346927
1754.7407286549314 4465.7917974155735
1755.4612957066693 4632.852915369598
1756.1816886763954 4508.539982269318
1756.9019076087097 4589.056350832835
1757.6219525481865 4727.0477800099425
1758.3418235393856 4581.324882416316
1759.061520626854 4665.262961662846
1759.7810438551096 4709.797001590904
1760.5003932686614 4384.253364372995
1761.2195689119999 4756.400334127517
1761.938570829594 4458.217719270617
1762.657399065898 4472.439995433029
1763.376053665348 4505.8380007163705
1764.0945346723602 4478.324769046361
1764.812842131334 4661.94503608113
1765.5309760866512 4448.565605549299
1766.2489365826787 4466.7675614535265
1766.9667236637597 4642.1938684378365
1767.684337374223 4156.47799725334
1768.401777758383 4250.10941070314
1769.1190448605284 4268.138885913647
1769.836138724937 4314.858834836259
1770.5530593958665 4563.216004327998
1771.2698069175603 4635.882419563882
1771.9863813342326 4459.842894945608
1772.702782690094 4456.662028289638
1773.4190110293293 4407.781525082475
1774.1350663961111 4528.233841204636
1774.8509488345844 4395.565276884086
1775.5666583888924 4366.15393857374
1776.2821951031437 4608.952402130708
1776.9975590214362 4426.597942970274
1777.7127501878585 4701.736579921848
1778.4277686464684 4467.3626859229225
1779.1426144413108 4627.974788614442
1779.8572876164162 4497.191974911394
1780.571788215797 4474.837324013248
1781.2861162834415 4316.0430218504325
1782.0002718633277 4391.125133920718
1782.7142549994132 4317.378370714495
1783.4280657356376 4403.715998733467
1784.141704115922 4266.494186782549
1784.855170184177 4395.962471019776
1785.5684639842839 4396.881350021042
1786.2815855601148 4130.8032094703885
1786.9945349555237 4520.503168836631
1787.707312214343 4271.259804085106
1788.4199173803918 4397.119463862842
1789.132350497468 4298.900092026832
1789.8446116093583 4165.155271137059
1790.556700759822 4396.377659214215
1791.2686179926077 4037.5425652083604
1791.9803633514493 4306.039764864314
1792.6919368800554 4150.202239624388
1793.4033386221236 4453.578231267689
1794.1145686213295 4320.248941656857
1794.8256269213307 4567.004320079001
1795.536513565774 4320.35575397231
1796.247228598284 4067.4359303145698
1796.9577720624693 4175.073179587339
1797.6681440019165 4046.26041991665
1798.3783444602013 4214.7705660713555
1799.0883734808776 4338.15803027663
1799.7982311074884 4315.698203002912
1800.5079173835475 4163.471970707121
1801.2174323525633 4307.004660179824
1801.9267760580187 4163.9369700812185
1802.635948543386 4338.637291836183
1803.3449498521113 4185.126295471271
1804.0537800276325 4202.6149524011325
1804.7624391133668 4148.07772045816
1805.47092715271 3891.3679056374217
1806.1792441890484 4026.5472597609705
1806.8873902657433 4303.872362980181
1807.5953654261448 4208.114079453018
1808.3031697135812 4015.0807598886504
1809.0108031713662 4172.591497397174
1809.71826584279 4143.046024520551
1810.425557771141 4132.4537729181375
1811.1326789996747 4623.08440599496
1811.839629571632 4291.416946501964
1812.5464095302468 4034.2196216870907
1813.2530189187182 4242.1072196615805
1813.959457780249 4055.293712286932
1814.6657261580076 4157.997190943786
1815.371824095153 4003.5411727878063
1816.0777516348262 4289.429494611095
1816.78350882015 3855.8625995403454
1817.4890956942272 3838.5773911478377
1818.1945123001533 4023.095177689173
1818.8997586809928 4041.250331624291
1819.6048348798067 4004.97718683825
1820.3097409396287 4036.49254553011
1821.0144769034796 4352.229042590061
1821.7190428143622 4105.829222646404
1822.423438715261 4302.214559006435
1823.1276646491478 4013.127791637811
1823.8317206589727 4114.255357707006
1824.5356067876692 4135.462717440241
1825.2393230781581 4001.106033924684
1825.942869573335 3945.647165844399
1826.646246316086 3761.5299529328076
1827.3494533492758 4070.9937180130755
1828.052490715756 4049.2615377519205
1828.7553584583547 3917.397241877085
1829.458056619891 4020.3824306832166
1830.1605852431585 3803.662475649864
1830.8629443709433 3853.090709753787
1831.5651340460063 3922.968504699017
1832.2671543110919 4014.2015312938483
1832.9690052089318 3918.5318395576082
1833.6706867822395 3812.07650125848
1834.3721990737104 4192.2987442927115
1835.0735421260233 4142.580906323163
1835.774715981841 4101.102697163342
1836.4757206838058 4265.451961090561
1837.1765562745459 3679.6777923183095
1837.8772227966747 3722.87620713925
1838.5777202927839 4114.828861520122
1839.2780488054523 3889.689391261824
1839.9782083772352 4008.9481858573135
1840.6781990506806 4247.326943121248
1841.378020868313 4008.174144381769
1842.0776738726418 4045.3540716999814
1842.777158106157 4016.4708869959454
1843.4764736113375 3813.661799626443
1844.1756204306403 3981.660088839681
1844.8745986065078 4100.432986809235
1845.5734081813607 3737.7589569236493
1846.2720491976124 3741.80055687509
1846.970521697649 3930.8447139310942
1847.6688257238511 3764.437100175421
1848.3669613185684 3924.4760266548496
1849.0649285241452 3733.7674453276004
1849.7627273829057 3843.7000425358347
1850.460357937156 3978.922059728592
1851.1578202291857 3612.469222358851
1851.8551143012664 3873.03224079351
1852.5522401956569 3873.422151929711
1853.2491979545957 3995.170269997366
1853.9459876203055 3703.458485816279
1854.6426092349902 3656.0017887185363
1855.3390628408451 3706.412152056152
1856.0353484800362 3978.969096590566
1856.7314661947203 3809.2572296805365
1857.4274160270397 3676.5605193903248
1858.123198019115 3752.9765975383903
1858.8188122130487 3723.0651621151583
1859.5142586509319 3881.0250148451246
1860.209537374838 3708.0927446703026
1860.9046484268183 3580.824806714582
1861.599591848917 4039.287498438816
1862.294367683151 3659.1777586746916
1862.988975971528 3757.4710893432903
1863.6834167560355 3918.5013503840382
1864.3776900786452 3965.677881705133
1865.0717959813119 3672.2639616275337
1865.7657345059724 3689.732819031222
1866.4595056945564 3831.2151646811326
1867.1531095889586 3904.935620112542
1867.846546231076 3745.578008610587
1868.5398156627743 4088.1194380528696
1869.2329179259123 3681.0759494422186
1869.9258530623283 4132.839565798742
1870.618621113843 3574.2257590399277
1871.3112221222636 3675.417567434232
1872.0036561293764 3676.5298036858126
1872.695923176956 3913.998366114385
1873.3880233067594 3850.0776866463993
1874.0799565605212 3588.0140262398445
1874.7717229799673 3698.2509315201437
1875.4633226068036 4012.39087324672
1876.1547554827175 3750.9268636281695
1876.8460216493859 3789.3056742379536
1877.5371211484617 3709.31684360016
1878.2280540215852 3752.116525682337
1878.9188203103804 3505.460534350007
1879.6094200564548 3696.019138000044
1880.299853301396 3591.5869381061034
1880.9901200867826 3843.6296360865067
1881.6802204541673 3752.3806540778032
1882.3701544450942 3702.699450704339
1883.059922101087 3589.754725018572
1883.7495234636517 3833.4137453954413
1884.4389585742792 3681.9886196036614
1885.1282274744517 3620.3043739545997
1885.8173302056166 4022.167106588302
1886.506266809225 3661.7150126846886
1887.195037326701 3518.672179229332
1887.8836417994517 3695.3531473086027
1888.5720802688702 3937.6406746953667
1889.260352776333 3793.8349173668184
1889.9484593632042 3811.084245114558
1890.63640007082 3567.658143956453
1891.3241749405151 3632.43910415546
1892.0117840135954 3633.6460185769515
1892.6992273313572 3608.8269637338576
1893.3865049350788 3538.085513067081
1894.0736168660223 3920.6847791691566
1894.7605631654333 3540.0784168228674
1895.4473438745408 3443.5153173890744
1896.133959034556 3738.926171832113
1896.820408686679 3671.784735546781
1897.506692872088 3768.7679746668196
1898.192811631945 3682.3958652701867
1898.8787650073991 3524.5504337605803
1899.5645530395832 3856.881169021617
1900.2501757696118 3799.737305058511
1900.9356332385796 3415.784652749911
1901.620925487574 3701.4373948454872
1902.3060525576602 3660.314555852292
1902.9910144898859 3756.517266209931
1903.6758113252872 3389.4499844672805
1904.3604431048789 3608.805952319598
1905.0449098696663 3655.6058431687898
1905.7292116606295 3531.044237398592
1906.4133485187394 3676.4944974292603
1907.0973204849488 3206.0394313334646
1907.7811276001976 3576.447377098821
1908.4647699053967 3520.6059272870907
1909.1482474414588 3615.8151314908014
1909.8315602492694 3395.279215220591
1910.5147083696957 3734.5580297454485
1911.1976918436012 3517.9328977954838
1911.880510711815 3585.121732478857
1912.5631650151681 3670.680625949074
1913.2456547944657 3555.364975879625
1913.927980090495 3319.0259052709857
1914.6101409440362 3495.797196427281
1915.2921373958416 3612.8253774508426
1915.9739694866603 3488.8664645853546
1916.655637257214 3717.165279585524
1917.3371407482136 3393.250031002129
1918.0184800003572 3748.7187144989884
1918.6996550543154 3600.3462312892925
1919.3806659507554 3514.6866097849024
1920.0615127303208 3698.832967489393
1920.7421954336423 3729.776311345288
1921.4227141013343 3649.1035793093056
1922.103068773993 3483.678261447818
1922.783259492202 3670.6764976429613
1923.4632862965227 3387.0470293819476
1924.1431492275078 3212.208860403581
1924.8228483256917 3387.732907893628
1925.5023836315922 3652.2716452025998
1926.1817551857057 3048.385981662748
1926.8609630285227 3743.9726023251906
1927.5400072005123 3422.743442197929
1928.218887742125 3461.4007571178763
1928.8976046938005 3145.3487936865117
1929.5761580959588 3544.2975308826544
1930.2545479890086 3542.5836546796845
1930.9327744133352 3270.389118851658
1931.6108374093164 3568.753115488618
1932.2887370173066 3677.543339054265
1932.9664732776473 3032.0311068645706
1933.6440462306673 3531.129645941814
1934.3214559166754 3238.1899578844404
1934.9987023759659 3638.0681056408234
1935.675785648813 3488.4152332005424
1936.3527057754836 3099.5098716461775
1937.029462796223 3599.1773650659316
1937.70605675126 3301.8494328424736
1938.3824876808085 3315.957527326992
1939.058755625072 3196.8482896178275
1939.7348606242267 3339.6997524018416
1940.4108027184448 3293.9168234716335
1941.0865819478713 3718.1699847732225
1941.7621983526478 3120.688187418248
1942.4376519728921 3171.174360632458
1943.1129428487038 3365.5467920040014
1943.7880710201734 3408.610955580373
1944.4630365273733 3487.2255396264454
1945.1378394103576 3103.1988716901606
1945.8124797091714 3113.552388570697
1946.4869574638324 3123.817572701346
1947.161272714353 3324.5492998392047
1947.8354255007234 3541.9893398998174
1948.5094158629272 3466.908113607441
1949.1832438409183 3479.6955134394425
1949.8569094746435 3450.861107235957
1950.530412804037 3582.8393871142594
1951.2037538690092 3559.844988828217
1951.8769327094578 3279.489713402011
1952.5499493652678 3378.484571662055
1953.222803876306 3495.980143066948
1953.895496282421 3250.495974142629
1954.5680266234522 3268.402742489511
1955.2403949392155 3437.248645760739
1955.9126012695142 3071.8134041918142
1956.5846456541403 3322.590054055815
1957.2565281328643 3245.6501021477584
1957.9282487454457 3442.295701282246
1958.5998075316202 3652.071592674748
1959.27120453112 3555.0479373616677
1959.9424397836501 3304.2315285937307
1960.613513328908 3437.2611896170083
1961.2844252065697 3548.8983785559894
1961.9551754563017 3281.689126575568
1962.6257641177453 3170.135888175868
1963.29619123054 3195.8972929031147
1963.966456834296 3146.76954051028
1964.6365609686181 3060.058705607441
1965.306503673086 3307.975620977314
1965.976284987275 3261.4616215032083
1966.645904950734 3230.5808081397167
1967.315363603002 3129.530408563129
1967.9846609836077 3249.2684446401613
1968.6537971320486 3412.3756825697355
1969.3227720878222 3179.494468857357
1969.9915858904042 3106.416277317257
1970.660238579252 3271.4742092239258
1971.3287301938108 3227.3022498497817
1971.997060773514 2874.8508609463975
1972.665230357772 3253.6347616163484
1973.3332389859843 2927.2385114915187
1974.0010866975335 3044.6028289797714
1974.6687735317864 3277.380490225735
1975.3362995280932 3240.518230870245
1976.003664725793 3287.909401779763
1976.6708691642052 2837.957676847728
1977.3379128826364 3148.3477880564924
1978.004795920373 3359.365114400006
1978.6715183166925 3588.428548452726
1979.3380801108524 2964.482176924908
1980.0044813420973 3246.5235806152064
1980.6707220496555 2954.2278666480966
1981.3368022727373 3022.3119603880027
1982.0027220505417 3338.652476951618
1982.66848142225 2821.384397847007
1983.3340804270283 2866.152339623385
1983.999519104027 3213.860178608519
1984.6647974923835 3323.484017750504
1985.329915631215 3338.8726382685445
1985.99487355963 3230.518022403341
1986.6596713167146 3217.422372079077
1987.3243089415428 3167.9026100248566
1987.9887864731754 3406.5410639211536
1988.6531039506553 2996.7485434490463
1989.3172614130071 3319.438102185354
1989.9812588992481 3256.6311780402884
1990.645096448372 3034.9412628753153
1991.3087740993633 3185.5277954328662
1991.9722918911848 3179.3402336368463
1992.635649862792 3112.3116083527075
1993.2988480531185 3357.9657359478465
1993.9618865010852 3305.3839628510495
1994.6247652455968 3070.715947601145
1995.287484325545 3014.9771589669936
1995.9500437798033 2981.695926435837
1996.6124436472292 2960.707847205118
1997.2746839666706 3205.4980067668503
1997.936764776954 3088.6250864591243
1998.598686116895 3081.068515666898
1999.2604480252903 3389.3790499856464
1999.9220505409212 2920.8251383262023
2000.5834937025593 2943.5369464351306
2001.2447775489582 3081.364853100513
2001.9059021188514 3128.564819721124
2002.5668674509616 2933.2834029917153
2003.2276735839987 3118.1803226961592
2003.8883205566508 3406.413167131193
2004.5488084075987 2967.5202616833512
2005.2091371755014 2980.92943149061
2005.8693068990033 2982.0698443711753
2006.5293176167397 3188.478113814218
2007.1891693673224 2971.603406111197
2007.848862189354 2903.9890965506206
2008.5083961214223 3082.6416204447623
2009.1677712020955 2969.724725673411
2009.8269874699254 2906.7097342023203
2010.4860449634598 3397.237614111936
2011.1449437212177 2825.604954647132
2011.8036837817108 3157.763888006912
2012.4622651834325 3287.95481326931
2013.1206879648653 3229.9608965270904
2013.7789521644736 3404.960278449637
2014.4370578207036 2971.670280218135
2015.0950049719922 2974.0749565302544
2015.7527936567585 3123.016813424789
2016.4104239134067 3132.8685240229743
2017.067895780323 3483.240468541769
2017.725209295886 3444.1671816264547
2018.3823644984514 3404.9012468652923
2019.0393614263648 2914.5742753023064
2019.6962001179545 2848.3165515181577
2020.3528806115355 3114.162688828321
2021.0094029454067 2917.8933130829264
2021.6657671578487 2966.765660881162
2022.321973287133 2933.5272759724603
2022.9780213715148 2827.4956715556336
2023.6339114492293 3017.3580457053804
2024.2896435585026 2938.3291178796835
2024.9452177375442 3105.623698261735
2025.600634024544 3241.271903342819
2026.2558924576842 3077.2820104023444
2026.9109930751292 3017.685991393569
2027.565935915025 2840.863379288432
2028.2207210155066 3305.911774481304
2028.8753484146964 3188.6539319746757
2029.529818150695 2808.435350044786
2030.1841302615903 3023.4121241533585
2030.8382847854573 2853.201381249575
2031.4922817603601 2869.2432106096435
2032.1461212243357 3044.899338173016
2032.7998032154192 2752.3674231800132
2033.4533277716218 2996.72187081005
2034.1066949309443 2762.1803651883283
2034.7599047313688 3020.7175637372416
2035.4129572108704 3371.932544412272
2036.0658524074006 3299.5851117534235
2036.7185903589016 3038.6905690197136
2037.3711711032956 3080.8671224642458
2038.023594678496 2902.5420341329495
2038.675861122394 2888.8376270610065
2039.3279704728757 3094.4564447368307
2039.9799227678031 2725.952979065172
2040.6317180450278 2804.784857316806
2041.2833563423865 2977.182501992509
2041.9348376977014 2986.546598622014
2042.5861621487784 2969.0911838170828
2043.2373297334088 3037.206638878036
2043.8883404893695 2895.4441545356376
2044.5391944544208 3195.3918735040725
2045.1898916663158 2981.3582018635807
2045.8404321627804 3266.762893733702
2046.4908159815368 2910.803423103782
2047.1410431602853 3005.5914580900358
2047.7911137367173 2720.3181296098205
2048.441027748504 3000.9184910762424
2049.090785233302 2703.8788088829638
2049.7403862287592 2724.1689571624643
2050.389830772503 2693.9686254396993
2051.0391189021466 2663.8158767260948
2051.688250655294 2918.1613330490236
2052.337226069527 2801.8108342948935
2052.986045182417 3000.6868306192027
2053.634708031521 2588.4618481845027
2054.283214654375 2967.142145689383
2054.931565088511 2644.7736715660967
2055.579759371436 2685.4782146777143
2056.2277975406523 2961.209072462753
2056.8756796336384 3337.768634912417
2057.5234056878617 2632.451800312379
2058.1709757407752 2864.6649508696473
2058.8183898298194 2999.2547929243256
2059.465647992416 3076.93680295992
2060.1127502659747 2977.6549302937165
2060.759696687888 2766.0613609922466
2061.4064872955405 3038.3655068358166
2062.053122126292 3103.4373959808217
2062.699601217497 2623.4045065347796
2063.345924606485 2962.070937238367
2063.992092330587 3095.7922729475235
2064.638104427102 2771.2700782282527
2065.283960933324 3091.4116148132357
2065.92966188653 3038.191033170073
2066.5752073239855 3131.528673516278
2067.2205972829397 2645.223889186826
2067.86583180062 2840.863628263246
2068.5109109142522 2714.7230494626224
2069.15583466104 2933.399618456889
2069.8006030781708 2865.2974080180725
2070.445216202821 2969.16164975968
2071.089674072153 3163.1453361648028
2071.7339767233116 2795.0950632067975
2072.3781241934303 2967.5243849617796
2073.0221165196253 3014.617363978697
2073.6659537390024 2917.962901061499
2074.3096358886505 2896.734198398258
2074.953163005637 2512.0015273921704
2075.596535127028 2697.765819750756
2076.2397522898664 2516.321952664135
2076.882814531182 2797.4603973769945
2077.5257218879924 2855.4263508485537
2078.1684743973 2669.128027665811
2078.8110720960885 2628.317454584013
2079.453515021336 3055.9555378114346
2080.095803209997 2977.2645323325505
2080.7379366990135 2876.542799763478
2081.37991552532 2744.5826196388066
2082.0217397258275 2957.7123167944237
2082.6634093374414 2633.3683121375384
2083.3049243970418 2885.982549962034
2083.9462849415067 2762.1216571922077
2084.587491007689 2744.4484050724477
2085.2285426324324 2933.618627772789
2085.869439852564 2915.276337153834
2086.510182704902 2480.6583899076913
2087.1507712262483 2919.2001617863
2087.791205453381 2567.1996619953375
2088.4314854230743 2898.621345530756
2089.0716111720867 2704.8887385238827
2089.7115827371617 2496.9253551416473
2090.351400155023 2521.165088304961
2090.991063462385 2545.5759928338266
2091.6305726959527 2619.0901864790153
2092.2699278924047 3041.439094247563
2092.9091290884153 2684.072148930417
2093.548176320641 2616.8940683834053
2094.187069625721 2949.5731100503403
2094.8258090402887 2615.6135660138357
2095.464394600951 2911.5171274807735
2096.102826344313 2849.0181894607344
2096.741104306955 3060.105434978012
2097.379228525453 2589.5812942901757
2098.017199036358 2539.4827775506874
2098.6550158762147 3043.197254019688
2099.2926790815527 2791.664932915819
2099.9301886888825 2867.907995003788
2100.5675447347076 2920.6261183349534
2101.2047472555114 3104.827238844702
2101.841796287761 2778.7115464463077
2102.47869186792 2771.0049279693203
2103.1154340324265 2681.374885127652
2103.752022817709 2626.045414886922
2104.388458260184 2680.1023372420223
2105.024740396251 2871.3211744105515
2105.660869262292 2477.360751818895
2106.296844894685 3071.282407893689
2106.93266732978 2984.011479441776
2107.5683366039284 2580.6150326338666
2108.2038527534532 2644.8824163106
2108.8392158146726 2915.742353675406
2109.4744258238843 2635.8902221667645
2110.1094828173755 2788.423130534759
2110.744386831422 3260.5889105437413
2111.3791379022787 2757.11167360913
2112.01373606619 3063.895213621672
2112.648181359389 2700.326270366544
2113.28247381809 2751.0721772189513
2113.916613478492 2673.3317041325927
2114.550600376786 2829.5394298821457
2115.1844345491445 2954.361843445938
2115.818116031729 2691.186914192007
2116.451644860679 2768.2976760055167
2117.085021072133 2697.9043058731118
2117.718244702204 2600.391092129247
2118.3513157869984 2763.938146767904
2118.984234362604 2615.930139843084
2119.617000465092 2580.1248561387542
2120.249614130529 2823.3541880512157
2120.8820753949585 2603.801874818383
2121.5143842944162 2632.9262865515348
2122.14654086492 2487.9828711937594
2122.7785451424734 2742.3162144838734
2123.4103971630702 2330.841329095694
2124.042096962681 2914.943993975106
2124.6736445772767 2662.2755529455303
2125.305040042802 2607.864846823688
2125.936283395191 2648.5074689003864
2126.567374670365 2670.550155676513
2127.198313904233 2558.528508002935
2127.8291011326855 3009.3430044409074
2128.4597363916037 2480.654675859761
2129.0902197168507 2796.1306601893866
2129.720551144279 2426.287413997484
2130.3507307097225 2894.928281331883
2130.980758449008 3006.428386364683
2131.6106343979427 2543.192656916919
2132.2403585923203 2767.8313043806356
2132.8699310679276 2970.139373816247
2133.499351860526 2725.60952561864
2134.1286210058715 2834.3621460142194
2134.7577385397053 2492.1205774103173
2135.3867044977487 2814.8980519683196
2136.0155189157176 2902.9870213315407
2136.644181829308 3047.7281502871674
2137.2726932742025 2612.6840624047704
2137.901053286074 2987.2482379478433
2138.5292619005777 2541.6874470756293
2139.1573191533535 2679.594103415152
2139.7852250800315 2959.89181999015
2140.4129797162295 2788.939802597403
2141.0405830975433 2486.703224665634
2141.6680352595613 2448.7194104904065
2142.2953362378576 2410.690681931988
2142.9224860679915 2497.6844231496552
2143.549484785508 2506.4511587527986
2144.1763324259373 2707.626221291591
2144.803029024799 2669.6402429287236
2145.429574617594 2630.183185369867
2146.0559692398165 2796.092138739409
2146.682212926942 2456.5058906173535
2147.308305714432 2463.2318392706725
2147.9342476377333 2787.768564539005
2148.5600387322847 2903.9254261624096
2149.185679033506 2713.413164975681
2149.8111685768017 2706.3031371376333
2150.4365073975678 2454.603657644477
2151.061695531187 2645.610468895838
2151.686733013021 2731.191817013124
2152.311619878423 2639.374956037474
2152.9363561627342 2680.533200062642
2153.560941901278 2443.611306708949
2154.1853771293663 2711.3503234235973
2154.809661882293 2735.340223547408
2155.433796195348 2748.7240250853924
2156.0577801037944 2887.7221688400823
2156.681613642895 2692.279943010844
2157.3052968478896 2816.7778461679995
2157.928829754006 2623.5243081983544
2158.552212396462 2655.4662281731025
2159.1754448104566 2687.625040379755
2159.7985270311783 2494.5885303591426
2160.4214590938027 2317.041244940613
2161.0442410334927 2222.0508217119072
2161.6668728853874 2623.0190500420495
2162.289354684628 2574.965575619963
2162.911686466332 2608.3707533268466
2163.533868265602 2766.1094100031232
2164.1559001175337 3104.182322879656
2164.7777820572046 2949.765766701933
2165.399514119681 2483.4356577810495
2166.021096340013 2234.6149215359064
2166.6425287532384 2396.971057541845
2167.263811394385 2559.733163619299
2167.8849442984574 2685.874384554752
2168.505927500455 2426.5835802589436
2169.126761035366 2676.101463087837
2169.7474449381552 2495.156355786253
2170.367979243778 2378.0562087049593
2170.9883639871823 2594.9384842477875
2171.608599203293 2530.2784507844326
2172.2286849270276 2983.181857979335
2172.8486211932886 3058.213232060246
2173.4684080369625 2561.4721500179503
2174.0880454929265 2312.717142482499
2174.7075335960417 2380.3219311030357
2175.3268723811543 2867.355595389788
2175.9460618831 2599.506816422227
2176.565102136701 2532.57833381593
2177.1839931767627 2521.961483615834
2177.802735038078 2511.3527969582133
2178.421327755432 2328.3164953871924
2179.0397713635866 2544.643627556818
2179.658065897298 2290.29786757065
2180.276211391305 2664.6044158552786
2180.8942078803357 2456.3567566974875
2181.5120553991 2646.664767876403
2182.129753982299 2427.023312239143
2182.7473036646206 2674.057024140471
2183.3647044807367 2537.3523526047948
2183.9819564653044 2510.758862337286
2184.599059652968 2671.445671089504
2185.216014078367 2868.9783766818928
2185.832819776113 2837.349124444977
2186.4494767808137 2805.482447714856
2187.065985127063 2751.646321180217
2187.682344849436 2681.1761672317707
2188.298555982501 2956.1234655736152
2188.9146185608097 2721.070142648962
2189.530532618901 2485.567559302292
2190.1462981912937 2686.0387715576717
2190.761915312507 2756.320929460312
2191.377384017036 2777.8211613591275
2191.9927043393654 2657.74305581295
2192.6078763139667 2185.5616434830577
2193.2228999753006 2249.8849169376804
2193.837775357808 2314.3775850951347
2194.452502495922 2312.635725144703
2195.0670814240602 2351.974892763762
2195.6815121766285 2476.387130035621
2196.2957947880186 2424.6629340416084
2196.9099292926057 2372.8427610816307
2197.523915724758 2620.1014208722722
2198.137754118825 2536.1422421478846
2198.7514445091456 2854.5822154949647
2199.3649869300443 2419.031637371357
2199.9783814158327 2800.45994374156
2200.5916280008096 3198.1148318753053
2201.2047267192593 2966.6527605424776
2201.8176776054515 2762.383290167927
2202.430480693649 2416.0004982236815
2203.0431360180955 2825.084650335072
2203.6556436130195 2663.1396526323083
2204.268003512645 2238.7773645027873
2204.8802157511727 2738.8689403834237
2205.492280362796 2651.956238326586
2206.1041973816937 2331.0497410182525
2206.715966842032 2502.7238296842816
2207.3275887779655 2365.87023541132
2207.93906322363 2605.197333182772
2208.550390213153 2756.0732732586603
2209.1615697806465 2779.997754935015
2209.7726019602105 2092.7842471627296
2210.3834867859277 2149.272610510106
2210.9942242918787 2600.89683549504
2211.6048145121167 2479.19398279599
2212.2152574806914 3209.4523359331492
2212.825553231638 2744.2594389974747
2213.435701798975 2636.693495989711
2214.045703216707 2529.2971783308567
2214.655557518832 2269.1269847347176
2215.2652647393297 2300.925159129403
2215.874824912169 2177.009229233611
2216.4842380713 2611.4576657761813
2217.09350425067 2422.6384760362357
2217.7026234842033 2256.2147384547497
2218.311595805819 2775.3262164752273
2218.9204212494133 2633.032137275666
2219.52909984888 2810.4347214382087
2220.137631638092 2778.369488995434
2220.7460166509154 2746.061732916639
2221.354254921198 2519.2742739556443
2221.9623464827764 2669.44813200096
2222.5702913694713 2597.2234590194957
2223.178089615096 2632.7105844961325
2223.7857412534486 2410.6490366237076
2224.39324631831 2372.546108888298
2225.000604843457 2259.339980279039
2225.607816862641 2868.811644828599
2226.214882409611 2663.144147737886
2226.8218015180973 2571.157715626631
2227.4285742218217 2525.1225858590037
2228.0352005544864 2661.2071228624886
2228.6416805497847 2329.654837702949
2229.248014241399 2545.2791732168434
2229.8542016629945 2178.4709845758107
2230.460242848223 2703.1854954389887
2231.0661378307304 2916.5985109843687
2231.671886644139 2555.384866554293
2232.277489322065 2272.2298821142176
2232.8829458981127 2282.4064942305076
2233.48825640587 2544.271536936497
2234.0934208789095 3157.3062223881816
2234.6984393507955 2974.430586237374
2235.3033118550793 2926.9420854928976
2235.9080384252975 2632.9643472826765
2236.5126190949723 2392.656844537949
2237.1170538976166 2233.8592264091853
2237.721342866729 2093.8515701180686
2238.32548603579 2350.195150295991
2238.9294834382763 2671.369419895462
2239.533335107646 2255.7586564066005
2240.1370410773434 2892.6873081367858
2240.740601380803 2552.898072392366
2241.3440160514474 2488.806914480277
2241.9472851226783 2654.03707542889
2242.550408627896 2712.157485322955
2243.1533866004793 2770.4205235171885
2243.756219073799 2615.0831593201024
2244.3589060812064 2298.6886110652777
2244.961447656049 2426.2673483666304
2245.5638438316564 2539.351947093709
2246.166094641343 2379.0108806443086
2246.7682001184166 2399.095050111915
2247.3701602961664 2511.1634419658667
2247.971975207871 2825.2593236616917
2248.5736448867974 2842.8561164468583
2249.175169366197 2692.3737006633783
2249.7765486793123 2490.874057603946
2250.3777828593684 2704.3464710709436
2250.9788719395783 2768.9401680995857
2251.579815953146 2469.5922008441953
2252.1806149332606 2314.484686167906
2252.781268913097 2411.466178651409
2253.381777925817 2008.0284618355915
2253.9821420045737 2553.4174651511867
2254.5823611825035 2782.391061930707
2255.1824354927303 2365.0629752188333
2255.782364968365 2376.397950911057
2256.38214964251 2387.8226605051923
2256.9817895482483 2415.0962312120537
2257.5812847186553 2684.1906262100774
2258.180635186791 2232.631339365822
2258.779840985704 2479.625325079307
2259.37890214843 2520.919793006542
2259.97781870799 2402.6522457811634
2260.5765906973957 2284.192910302398
2261.175218149645 2425.070599107025
2261.773701097718 2776.102169018101
2262.3720395745895 2350.6645061413797
2262.970233613216 2438.8253627313347
2263.568283246548 2527.0326224208566
2264.1661885075137 2441.020430739969
2264.763949429038 2500.3712114086275
2265.3615660440246 2669.012668532387
2265.959038385374 2326.198098849207
2266.5563664859637 2616.588859260051
2267.153550378669 2323.598549449608
2267.7505900963424 2506.660771844775
2268.3474856718312 2259.115325934413
2268.9442371379664 2470.2270455974603
2269.5408445275643 2217.8637771190774
2270.1373078734377 2631.258154167096
2270.7336272083758 2418.381815166845
2271.32980256516 2192.782116461503
2271.925833976562 2527.679222188709
2272.5217214753357 2869.3401524234932
2273.117465094223 2334.613218946475
2273.7130648659586 2260.0331772311065
2274.308520823257 2428.446749792064
2274.903832998827 2763.549508931938
2275.4990014253563 2255.8443575496653
2276.094026135528 2665.4430333202777
2276.6889071620117 2222.980067598908
2277.2836445374614 2517.1409486288035
2277.878238294519 2602.759144028177
2278.472688465812 2445.2609970739454
2279.066995083962 2287.4426555970217
2279.6611581815705 2479.8736973808323
2280.255177791232 2717.645484375593
2280.8490539455233 2461.9550539926336
2281.442786677013 2846.4923829267436
2282.0363760182554 2749.5332812014703
2282.6298220017943 2341.059588260702
2283.223124660155 2686.564934028136
2283.816284025859 2361.747637559468
2284.4093001314086 2143.3411782020535
2285.002173009292 2937.556092618299
2285.5949026919952 2730.3252164119576
2286.1874892119777 2233.204578438713
2286.7799326016993 2419.3826991801825
2287.3722328936 2060.4451635182013
2287.964390120109 2263.840055530739
2288.556404313642 2519.418911400953
2289.1482755066027 2454.577429862334
2289.7400037313873 2389.52221767183
2290.3315890203703 2427.704234781134
2290.9230314059205 2914.611730210249
2291.5143309203904 2445.8697674528185
2292.1054875961236 2273.9425794788667
2292.6965014654506 2537.4121062627646
2293.287372560684 2514.5732979501913
2293.878100914131 2945.7446391852177
2294.468686558086 2427.789054056374
2295.059129524827 2330.2578089465396
2295.649429846617 2735.6776562770274
2296.239587555716 2716.2823549196937
2296.8296026843636 2567.4529538219153
2297.419475264791 3138.5304183737985
2298.0092053292137 2741.6922167846305
2298.598792909839 2684.787517987108
2299.1882380388597 2497.915286913565
2299.777540748455 2600.6253207006603
2300.3667010707904 2703.3072127745436
2300.9557190380256 2639.1131023989547
2301.544594682302 2908.6204316744997
2302.1333280357503 2859.571533381648
2302.721919130485 2810.520916899578
2303.3103679986198 2842.781758330488
2303.898674672242 2650.0892439738645
2304.486839183437 2193.3174774020727
2305.0748615642697 2687.0111064934686
2305.6627418468015 2225.1040552318836
2306.2504800630704 2497.3416326031265
2306.8380762451143 2414.483545558124
2307.425530424949 2494.1661725960726
2308.012842634582 2574.0122626638504
2308.6000129060103 2732.7221187451873
2309.187041271214 3091.6278756216225
2309.773927762164 2442.9894767813935
2310.3606724108213 2779.715071153034
2310.9472752491274 2290.7066492610647
2311.5337363090184 2589.0028580192457
2312.120055622414 2621.6449437020065
2312.706233221221 2204.3418559722318
2313.2922691373424 2090.73787610465
2313.8781634026564 2154.824652457416
2314.463916049037 2219.034926299216
2315.049527108342 2614.729093249514
2315.6349966124235 2897.709982440032
2316.2203245931123 2808.771948609031
2316.8055110822315 2353.2091817149144
2317.3905561115935 2332.716683868282
2317.9754597129977 2183.1554823951624
2318.560221918229 2259.288439909915
2319.1448427590603 2335.643484989225
2319.729322267256 2140.9179008970445
2320.313660474563 2585.5768823489066
2320.8978574127195 2589.76066094405
2321.481913113452 2594.084742757021
2322.0658276084705 2097.1723335623033
2322.6496009294806 2270.559395200954
2323.233233108165 2856.0425371084443
2323.8167241762058 2617.114488422799
2324.4000741652617 2459.6254913124167
2324.983283106987 2946.648253542687
2325.5663510330232 2982.1590516863807
2326.1492779749933 2668.851814403764
2326.7320639645204 2533.2188152571093
2327.3147090332004 2336.2866471192237
2327.897213212629 2454.4614925607784
2328.4795765343843 2572.6121463640893
2329.0617990300307 2308.832721148141
2329.643880731124 2744.9416633195283
2330.22582166921 2684.186502169189
2330.807621875816 2682.8156671242746
2331.3892813824623 2259.586105013305
2331.9708002206517 2305.7634684390523
2332.5521784218818 2498.241195424837
2333.133416017634 2691.219976064017
2333.7145130393765 2535.7886590186395
2334.295469518571 2582.819758257889
2334.876285486658 2473.0718455168994
2335.456960975076 2209.4481858321747
2336.037496015242 2692.2722334973564
2336.6178906385667 2407.854946218181
2337.198144876451 2631.688241730116
2337.778258760278 2212.804540201232
2338.3582323214214 2053.9685877331585
2338.938065591243 2752.662190330827
2339.517758601087 2786.726569928243
2340.0973113822965 2376.1882711567077
2340.676723966193 2361.4251057342135
2341.255996384094 2248.154269494999
2341.835128667295 2741.3215023731495
2342.4141208470883 2539.942888869552
2342.992972954751 2494.0407208881034
2343.5716850215467 2593.6529892864246
2344.1502570787306 2006.1563863771012
2344.7286891575386 2292.9065933905936
2345.3069812892045 2722.5851493468112
2345.885133504944 2759.5507520438396
2346.4631458359618 2383.7064885028017
2347.04101831345 2421.8755239036095
2347.6187509685915 2550.6569010044905
2348.196343832553 2330.648322767868
2348.7737969364935 2206.384047664319
2349.351110311558 2410.38229866113
2349.9282839888765 2261.658311852205
2350.5053179995757 2369.9435116508257
2351.0822123747585 2266.7129597244034
2351.658967145526 2275.557860274718
2352.2355823429643 2284.5506560063873
2352.812057998144 2507.7850802862786
2353.3883941421263 2304.712693816008
2353.9645908059647 2762.5093069130517
2354.540648020693 2672.1548879083266
2355.116565817336 2292.6645418682397
2355.6923442269126 2602.161709932486
2356.2679832804224 2260.6273399167917
2356.8434830088518 2213.5482326090564
2357.41884344318 2576.881436679783
2357.994064614377 2561.714345858064
