#exp_cfg={"servo_angle": 0.0, "laser_lim": 100.0, "servo_angle_to": 18.0, "laser_wup": 0.0, "bt_dev": "EnSpectr-25AE3", "laser_wdn_max": 0.0, "frames": 10.0, "servo_used": 0, "servo_calib_use": 0, "laser_wdn_min": 0.0, "servo_pix_from": 90.0, "cooler_tout": 300.0, "servo_angle_from": 0.0, "servo_calib": "[-1.9174921013161362e-09, 3.9322238269163779e-05, -0.27385609119055809, 653.59552119713567]", "laser_autoctl": 0, "servo_pix_to": 3682.0, "laser_pw": 100.0, "cooler_on": 0, "laser_volt": 4.0, "cooler_autoctl": 0, "cooler_curr": 70.0, "cooler_startup": 10.0, "laser_fixed_pw": 0, "gain": 1.3, "offset": 2.53059635486, "servo_calib_degree": 3.0, "laser_curr": 55.0, "shutter": 8200.0, "servo_calib_step": 1.0, "laser_fixed_curr": 0, "exp": 2000.0, "ccd_volt": 4.7, "bt_addr": "00:06:66:62:5A:E3", "servo_delay": 500.0, "laser_autooff": 1}
#proc_cfg={"flat_auto_wnd": 200.0, "flat_auto_fr": 200.0, "flat_auto_shift": 5.0, "yconv": 1, "flatten": 1, "flatten_strength": 100.0, "xfrom": 300.0, "auto_max_frame": 2000.0, "auto_signal": 48000.0, "flat_auto_tol": 0.1, "autoclip": 1, "xrel_range": 0.0, "flat_auto_to": 4000.0, "intensity_adj": 1.0, "xrel": 7852.0, "rmhot": 1, "flat_auto_slit": 4.999999999999997, "auto_ini_exp": 300.0, "auto_off": 0, "xto": 2860.0, "flat_auto_ref": "", "flat_auto_rank": 1, "autobackg": 0, "xrel_adj": 0.0, "auto_black_lvl": 1, "base_wnd": 100.0, "sub_baseline": 0, "xconv": 2, "auto_max_exp": 1000.0, "auto_total_exp": 10000.0, "auto_exp": 0, "rmripple": 0, "black_lvl": 8285.071875, "shutter_clip_adj": 0.0, "auto_bckg": 0, "flat_auto_thr": 0.9, "subbackg": 1}
316.8218498245369 26733.392525389743
317.89969571804795 26393.3294452062
318.977263876126 26258.402851848008
320.05455438786703 26107.64743456133
321.1315673423287 25904.966584942285
322.2083028285215 25835.109355623033
323.2847609354267 25723.216389604153
324.3609417519747 25501.915483024954
325.43684536705587 25432.02070371106
326.5124718695279 25178.778218293424
327.58782134820103 25167.90228275024
328.66289389184385 25002.008100319777
329.7376895891921 24767.404573684886
330.8122085289342 24774.401183133567
331.88645079971866 24612.314608745863
332.9604164901575 24401.164245736847
334.03410568881554 24385.986409243593
335.1075184842266 24485.743495052808
336.18065496487543 24074.02641119369
337.2535152192122 24047.689546535068
338.32609933564163 24157.262481591242
339.39840740253203 23829.370031351085
340.4704395082099 23728.659923598017
341.5421957409617 23807.23436823881
342.6136761890357 23774.371179120404
343.6848809406365 23563.79949907628
344.75581008392874 23458.981485696626
345.82646370703696 23447.660198039986
346.8968418980512 23409.369885587388
347.96694474501055 23478.174724528588
349.0367723359268 23266.48188957305
350.106324758759 23330.903427919355
351.1756021014353 23156.07270030989
352.2446044518383 23201.94018793044
353.31333189781435 23366.7663373471
354.38178452716966 23137.712647676264
355.449962427665 23267.274454799342
356.51786568702846 23293.955511992062
357.58549439294256 23476.572534409835
358.6528486330535 23429.53103425225
359.71992849496564 23357.933526873767
360.7867340662433 23410.18635909335
361.8532654344144 23484.853240184802
362.9195226869597 23713.818817388048
363.9855059113288 23498.345060981643
365.05121519492604 23576.851702639437
366.11665062511565 23740.657658083124
367.1818122892273 23821.265827886473
368.2467002745434 23946.429594419875
369.31131466831175 23939.73775027738
370.375655557742 24098.748075933378
371.4397230299983 24110.452918239185
372.5035171722102 24075.481099763012
373.5670380714637 24123.716450071286
374.6302858148101 24328.67812801938
375.6932604892554 24253.200550488513
376.7559621817709 24324.656805803344
377.81839097928605 24146.599878351393
378.8805469686886 24234.264764648335
379.94243023683157 23951.789191279946
381.0040408705263 24070.38378188439
382.0653789565458 24101.87740220631
383.1264445816196 24117.334384314374
384.1872378324406 24044.372863153138
385.2477587956637 24097.949325690457
386.3080075579037 23922.12459337445
387.3679842057336 23900.913082557232
388.4276888256918 23947.173789580953
389.48712150426945 23843.340220550737
390.54628232792857 23751.62605683617
391.6051713830857 23650.264603942058
392.66378875611736 23667.478978327134
393.7221345333637 23655.880570840767
394.7802088011249 23395.13504752486
395.838011645661 23449.457072088426
396.89554315319765 23245.235431795583
397.9528034099112 23141.98576504674
399.00979250194723 23068.133713472926
400.06651051541485 22910.701836685927
401.1229575363741 22894.941746635122
402.17913365085224 22894.74068706161
403.23503894483656 22826.82446126682
404.2906735042761 22713.919315848558
405.3460374150818 22580.14652557279
406.401130763119 22574.05400839533
407.455953634224 22527.40679227502
408.5105061141876 22405.506308127027
409.56478828876243 22069.260101125452
410.6188002436629 22172.370416251622
411.6725420645689 22018.613260198134
412.72601383711117 22102.303336130797
413.77921564689314 22042.081673954304
414.8321475794728 21802.917057070597
415.88480972036814 21743.84919585001
416.93720215506437 21870.57358504706
417.9893249690049 21576.785868286697
419.04117824759123 21529.975252952805
420.09276207619223 21512.738823971005
421.144076540133 21407.738523991084
422.1951217247042 21377.487553408657
423.24589771515275 21364.851000748597
424.2964045966928 21165.138147345006
425.34664245449494 21210.623925563355
426.3966113736933 21119.15210363106
427.4463114393875 21098.082499793465
428.49574273662984 21001.55603556717
429.5449053504417 20940.74314578699
430.5937993658026 21003.153035551957
431.6424248676558 20790.105410972945
432.6907819409007 20844.87376868338
433.73887067040596 20828.480215568197
434.7866911409965 20806.858526081684
435.8342434374608 20711.31674465676
436.88152764455117 20511.106949841436
437.9285438469724 20521.982484788456
438.9752921294057 20459.059554261916
440.02177257648145 20530.205748936693
441.06798527279716 20246.313386901315
442.1139303029122 20473.793782628833
443.1596077513459 20349.433047182894
444.2050177025794 20501.072029517345
445.25016024105753 20389.671308394965
446.2950354511886 20382.11676005234
447.33964341733736 20269.478998256378
448.383984223834 20306.094655845656
449.4280579549686 20196.230249185686
450.471864694995 20287.30546538144
451.5154045281306 20212.660649318543
452.5586775385509 20171.068166595745
453.60168381039693 20173.530302020074
454.64442342776783 20304.30719436576
455.6868964747264 20059.572760577783
456.7291030353008 20023.124483226344
457.77104319347563 20094.12875437894
458.8127170332027 20027.070937616794
459.854124638392 20015.367815457717
460.895266092919 20201.024571504113
461.93614148061897 20071.835377971154
462.97675088529104 20151.41383174928
464.01709439069236 20193.519690557558
465.0571720805492 20089.643977229694
466.0969840385442 20170.664525107517
467.1365303483253 20389.69696549924
468.17581109350067 20031.96682457534
469.2148263576437 20158.254899719504
470.2535762242878 20256.843397952274
471.29206077693016 20503.0800164568
472.33028009902773 20629.815610057336
473.3682342740012 20663.394661303213
474.40592338523857 20783.183196060465
475.4433475160804 20998.015477669862
476.4805067498364 21125.378684445117
477.51740116978 21494.76222434551
478.5540308591426 21756.37490109558
479.59039590112116 22142.50013844682
480.6264963788726 22420.93113012102
481.6623323755193 23113.122580786734
482.6979039741436 23498.430364538865
483.7332112577915 24147.061330395798
484.76825430947247 24829.550626412303
485.80303321215797 25339.351674553876
486.837548048783 25692.460875905446
487.8717989022425 26465.80256648124
488.90578585539697 26682.96484405531
489.9395089910686 27124.405873409716
490.97296839203955 27067.059404768683
492.00616414106116 27108.73687514696
493.0390963208429 27068.581315284333
494.0717650140559 27056.521423494793
495.10417030333883 26546.02196897027
496.1363122712901 26256.28255945962
497.16819100046814 25740.028472761893
498.1998065734024 25277.34599975915
499.2311590725767 24619.28569970172
500.26224858044407 24192.04761560233
501.2930751794156 23596.905648358945
502.3236389518679 23097.443826103645
503.35393998014115 22575.150470000346
504.38397834653733 22475.48098563095
505.4137541333221 21975.76346890319
506.4432674227228 21616.048553299795
507.4725182969323 21303.078445808133
508.5015068381035 21114.631741013924
509.53023312835467 21063.486609918087
510.55869724976765 20883.071774728913
511.58689928438434 20567.713213235875
512.6148393142121 20595.861173998044
513.6425174212218 20512.42447295656
514.6699336873462 20503.97088369656
515.6970881944835 20497.209634672403
516.7239810244901 20266.531609019345
517.7506122591931 20300.181104933643
518.7769819803761 20350.223994073
519.8030902697901 20306.95223091585
520.8289372091476 20471.745200304336
521.8545228801249 20515.01660238569
522.8798473643619 20426.57907951301
523.9049107434621 20350.829186056744
524.9297130989908 20396.265811672776
525.9542545124805 20363.535803638802
526.9785350654201 20368.49577170671
528.0025548392696 20344.78092548029
529.0263139154504 20252.53513633513
530.0498123753423 20246.342336921145
531.073050300296 20024.62404447111
532.0960277716204 20019.82360158857
533.1187448705896 19872.49538339768
534.1412016784416 19682.87341326857
535.1633982763833 19704.09182683886
536.1853347455726 19449.072866728966
537.2070111671401 19363.336488242698
538.2284276221817 19272.420601150432
539.2495841917516 19117.807129962974
540.2704809568677 18914.591352075116
541.2911179985167 18948.13047219292
542.3114953976419 18744.065209814966
543.3316132351592 18631.05557521093
544.3514715919409 18479.651264382523
545.3710705488247 18453.37921531668
546.3904101866156 18365.27012626294
547.4094905860784 18405.737389554655
548.4283118279418 18276.674057665055
549.4468739929034 18332.42231857947
550.4651771616191 18225.737334061712
551.4832214147063 18166.918197649567
552.501006832761 18183.40401845779
553.5185334963226 18113.678200839633
554.5358014859103 18113.212471557406
555.5528108820035 18082.312590419213
556.5695617650363 18038.862732306174
557.5860542154242 18037.306302646575
558.6022883135283 18007.565150440307
559.6182641396881 17909.776193198748
560.6339817741991 17990.633354240046
561.6494412973225 18065.371425774712
562.6646427892883 18062.65775765278
563.6795863302796 17886.0587493888
564.694272000459 17884.750382018505
565.7086998799423 18077.263212050977
566.7228700488104 18025.260283754
567.7367825871115 17948.90674170306
568.7504375748576 18010.40925295461
569.7638350920224 18059.85975791676
570.7769752185486 18038.0261295712
571.7898580343353 18148.90266838655
572.802483619258 18134.604802568927
573.8148520531431 18490.94011368316
574.8269634157932 18523.5303864236
575.8388177869692 18528.86244230582
576.8504152463938 18765.917684841716
577.8617558737587 19139.45190674703
578.8728397487175 19284.4759592387
579.883666950891 19545.97417268736
580.8942375598654 19855.075364587577
581.9045516551851 20310.660772890864
582.9146093163617 20633.98755833338
583.924410622878 20807.087932537812
584.9339556541727 20932.159948406766
585.9432444896538 21336.31534974093
586.9522772086875 21240.522071723834
587.9610538906127 21339.84858206692
588.9695746147318 21116.41103204102
589.9778394603054 21300.985031734006
590.985848506567 21092.70619587511
591.9936018327098 20838.507112904394
593.0010995178891 20458.796227946586
594.0083416412344 20458.657819446205
595.0153282818283 20046.350095586975
596.0220595187293 19890.92760995446
597.0285354309508 19508.810254729957
598.0347560974806 19403.111567059117
599.0407215972609 19203.587643465275
600.0464320092051 18983.70065447015
601.0518874121954 18906.79831580158
602.0570878850685 18752.149976689943
603.062033506636 18723.511714377946
604.0667243556636 18761.149833056887
605.0711605108936 18508.447247234275
606.0753420510264 18800.02508226272
607.0792690547278 18665.455767874457
608.082941600629 18711.93440146609
609.0863597673306 18605.43295914441
610.0895236333909 18932.97367278195
611.0924332773357 19014.66899623271
612.0950887776617 19276.858645704346
613.0974902128219 19324.070344124426
614.0996376612384 19755.70101755349
615.1015312013005 19877.92176839152
616.1031709113595 20313.035614013246
617.1045568697336 20282.720947104397
618.1056891547069 20897.376637342393
619.1065678445229 21363.116394958208
620.1071930173985 21987.80503972667
621.1075647515099 22267.495988836337
622.1076831250048 22900.335849417323
623.1075482159849 23470.699084743017
624.1071601025305 24060.674597750876
625.1065188626781 24619.106571246033
626.105624574433 25521.01360745414
627.1044773157682 25959.642318428036
628.1030771646128 26564.900293338207
629.1014241988742 27002.258071572996
630.0995184964158 27677.609165122103
631.0973601350688 28078.66519562509
632.0949491926294 28499.239608567237
633.0922857468631 28338.039440835226
634.089369875499 28636.05492415696
635.0862016562278 28709.660973091388
636.0827811667077 28490.579268152702
637.0791084845641 28224.700065904686
638.0751836873878 27898.774394511234
639.0710068527369 27459.5052326628
640.0665780581294 26965.8711373147
641.0618973810506 26431.317113948036
642.0569648989604 25875.673323363786
643.0517806892676 25096.86897171262
644.0463448293649 24558.382616140407
645.040657396592 23902.84436548272
646.0347184682723 23329.891119479485
647.0285281216875 22694.70668789067
648.0220864340772 22181.875922014213
649.0153934826558 21616.15967462374
650.0084493446047 21136.411851961097
651.0012540970674 20784.008240365336
651.9938078171526 20285.56888934931
652.9861105819346 19946.77851594343
653.9781624684565 19688.763239012005
654.9699635537254 19326.39318154171
655.9615139147136 19187.72864643207
656.9528136283589 18781.83104989346
657.9438627715699 18791.014562343295
658.9346614212154 18552.06547568576
659.925209654135 18196.628976554082
660.9155075471263 18256.457142857143
661.9055551769616 18046.658315567332
662.895352620375 18107.708911084053
663.8848999540678 17912.600750391244
664.8741972547068 17643.952780338535
665.863244598926 17658.560034260983
666.8520420633213 17559.497744141834
667.8405897244611 17508.106045889668
668.8288876588758 17263.444167012585
669.8169359430613 17549.333253015575
670.8047346534822 17418.225711167066
671.7922838665672 17307.90647492806
672.7795836587156 17383.36563646046
673.766634106285 17488.443728509043
674.7534352856092 17263.633232192642
675.7399872729766 17409.16410290015
676.7262901446538 17427.370271672666
677.712343976862 17364.227971475146
678.6981488457986 17436.260271983196
679.6837048276229 17364.77404060532
680.6690119984596 17369.17759809309
681.6540704344043 17372.756816270597
682.6388802115107 17217.005417981818
683.6234414058108 17204.92510043395
684.6077540932874 17038.01726306931
685.591818349907 17017.93299654498
686.575634251587 16818.944864211935
687.5592018742263 16782.457856065543
688.5425212936734 16608.13372284818
689.5255925857564 16689.11829614316
690.5084158262707 16514.8266414708
691.4909910909646 16464.83400151522
692.4733184555644 16341.732108185333
693.4553979957618 16332.037946187857
694.4372297872123 16181.430748729235
695.4188139055404 16156.18750959569
696.4001504263324 16073.896833967718
697.3812394251509 16198.777674046705
698.3620809775111 15944.778374916033
699.3426751589104 15945.34149570379
700.3230220448004 15839.316527414063
701.3031217106054 15957.05074552042
702.2829742317172 16023.409558316416
703.2625796834873 15849.532352929979
704.2419381412474 15737.989503577483
705.22104968028 15808.980227840695
706.1999143758458 15750.707440595903
707.178532303169 15654.429123213358
708.1569035374378 15758.086705526639
709.1350281538107 15843.769777400908
710.1129062274158 15801.215157184715
711.0905378333373 16009.916726321138
712.0679230466376 15963.044427676625
713.0450619423427 16146.83226558017
714.0219545954424 16273.039817905335
714.9986010808989 16143.67695782923
715.9750014736292 16393.904526392704
716.9511558485392 16530.565724411736
717.9270642804786 16572.21521966705
718.9027268442787 16613.46405296839
719.8781436147328 16658.473424449305
720.8533146666014 16618.384687557147
721.828240074612 16710.456026609718
722.8029199134635 16641.771724345854
723.7773542578125 16576.54344167837
724.751543182294 16488.592101289792
725.7254867615029 16498.980373694394
726.6991850700015 16309.850119946106
727.6726381823228 16138.084143349994
728.6458461729599 16155.223810458952
729.6188091163858 16055.303823641592
730.5915270870246 16007.70588066118
731.5640001592856 15785.797547745266
732.536228407529 15969.420242787592
733.5082119060917 15837.25049746334
734.4799507292755 15881.776326423545
735.4514449513481 15843.126596184466
736.4226946465496 15883.146095803382
737.3936998890786 15990.412009295196
738.3644607531078 15837.812221032364
739.3349773127793 15767.974757870854
740.3052496421951 15912.347153434763
741.27527781543 15739.80518156241
742.2450619065221 15706.760282759356
743.2146019894826 15732.537893065222
744.183898138288 15745.321795470145
745.1529504268801 15633.90841185224
746.1217589291682 15559.354467680949
747.0903237190341 15468.705667663578
748.058644870318 15660.231474794791
749.0267224568397 15419.690510751572
749.994556552374 15316.59144910649
750.9621472306771 15388.681231512004
751.9294945654583 15536.54800440871
752.8965986304011 15467.221147948318
753.8634594991636 15359.710211042364
754.8300772453586 15512.09705635669
755.7964519425768 15524.311017670898
756.762583664371 15555.32165289256
757.7284724842611 15511.024398207923
758.6941184757416 15522.945000483462
759.6595217122667 15596.685119509217
760.6246822672638 15569.973986673815
761.5896002141235 15452.00190500363
762.5542756262093 15567.065622050413
763.5187085768503 15599.846295779993
764.4828991393406 15422.379346605016
765.4468473869474 15378.745017341784
766.4105533929032 15356.484498961665
767.3740172304078 15279.833072400768
768.3372389726283 15226.865186056213
769.3002186926988 14992.922548251921
770.2629564637282 14870.268383066423
771.2254523587872 14938.920168856252
772.1877064509154 14698.298695184267
773.1497188131179 14563.441904071486
774.1114895183728 14448.32599433349
775.0730186396268 14396.288703430555
776.0343062497905 14283.800176275396
776.9953524217381 14272.54242516809
777.9561572283274 14231.780501439065
778.9167207423689 14219.464869202533
779.8770430366476 14143.960670014476
780.8371241839159 14095.81961209635
781.7969642568951 14169.652846991652
782.7565633282757 14427.506516006397
783.7159214707099 14130.811334016678
784.6750387568281 14196.017443014207
785.6339152592227 14181.30380390293
786.5925510504512 14174.008133537713
787.5509462030477 14276.525257718065
788.5091007895098 14230.243535122723
789.4670148823006 14366.239029466884
790.4246885538596 14343.583268994855
791.3821218765861 14254.198661681428
792.3393149228505 14269.667765511616
793.2962677649975 14396.712408872267
794.2529804753303 14530.025900992836
795.20945312613 14531.884188824217
796.1656857896378 14561.748895162711
797.1216785380675 14664.63673938461
798.0774314435985 14922.973763503443
799.0329445783846 15146.465474038876
799.9882180145414 15160.924221508732
800.9432518241574 15299.789864557131
801.89804607929 15641.238733372305
802.852600851962 15856.084906388238
803.8069162141637 15940.306981900707
804.760992237856 16126.051354330795
805.714828994971 16236.586655611804
806.6684265574077 16354.000047485486
807.6217849970271 16389.942616282675
808.574904385674 16273.867528291643
809.527784795142 16262.385796440838
810.4804262972102 16215.813145366154
811.4328289636178 16094.650158537504
812.3849928660748 15761.104313975273
813.3369180762638 15610.468368955957
814.2886046658241 15481.273354067642
815.2400527063783 15198.650125712727
816.1912622695108 14938.872143718758
817.1422334267718 14782.065413676584
818.0929662496856 14559.384007270191
819.0434608097457 14320.995793042002
819.9937171784059 14109.10713142666
820.9437354271013 13829.673553048799
821.8935156272255 13882.797659991576
822.8430578501484 13626.884835512708
823.7923621672016 13351.952867921826
824.7414286496896 13331.325652144922
825.6902573688876 13352.108504181018
826.6388483960363 13247.840129042108
827.5872018023492 13174.456615184976
828.5353176590033 13216.461434438874
829.4831960371503 13047.013498058153
830.4308370079016 13028.007051249368
831.3782406423525 13103.385805941283
832.3254070115545 13059.24468101753
833.2723361865319 12846.178408696844
834.2190282382799 12921.379822391431
835.1654832377644 12911.826728980512
836.1117012559116 12863.318548215673
837.0576823636256 12999.362277567077
838.003426631778 12794.033491092729
838.9489341312074 12729.811393557462
839.8942049327197 12885.328857640563
840.8392391070975 12852.632133666786
841.7840367250865 12834.523646889862
842.7285978573982 12700.60840779459
843.672922574724 12889.03632703579
844.6170109477152 12746.684128948691
845.560863046996 12780.31052657864
846.5044789431595 12792.141799060686
847.4478587067697 12758.584865019393
848.3910024083561 12921.059812468162
849.333910118421 12711.620458571548
850.2765819074339 12766.798281027797
851.2190178458332 12920.580323472206
852.161218004032 12897.958800857095
853.1031824524016 12831.528901430731
854.0449112612987 12793.65619681327
854.9864045010327 12991.685952017617
855.9276622418947 12734.266336556875
856.8686845541379 12819.399294897996
857.8094715079915 12810.363139940413
858.7500231736467 13053.64950818556
859.690339621271 12920.163642276204
860.6304209209939 12966.540137384447
861.5702671429244 12845.917526525593
862.5098783571284 13027.981374646248
863.4492546336569 13076.796599331667
864.3883960425155 13010.462890197367
865.3273026536863 13056.346881617475
866.2659745371238 13213.027838652453
867.2044117627465 13354.417593055685
868.1426144004472 13263.117241107864
869.0805825200823 13479.957246615537
870.0183161914847 13606.643417922882
870.9558154844526 13734.84251321287
871.8930804687552 13747.313397261885
872.8301112141307 13879.4318727838
873.7669077902865 14080.256050277652
874.7034702669062 14247.860509650694
875.6397987136315 14301.466823391136
876.5758932000863 14453.935097910658
877.5117537958522 14562.251788377169
878.4473805704911 14550.93733642114
879.3827735935283 14595.549907539296
880.3179329344603 14726.481084650582
881.2528586627541 14869.297257641432
882.1875508478479 14843.24118948806
883.1220095591489 14795.852786490863
884.0562348660296 14723.443329315403
884.9902268378391 14933.29317549703
885.9239855438955 14724.893235606569
886.8575110534839 14643.011573259815
887.7908034358588 14560.42465383509
888.7238627602474 14613.951883260403
889.6566890958475 14517.633563462561
890.5892825118208 14190.320316762776
891.5216430773125 14227.12050950139
892.4537708614189 13943.671202833493
893.3856659332196 13832.379544167794
894.3173283617652 13589.654827825492
895.2487582160684 13528.055714789802
896.179955565116 13432.339158661987
897.110920477864 13158.367730286413
898.0416530232451 13061.811853824318
898.9721532701478 12891.226293265372
899.9024212874428 12891.749663794231
900.8324571439662 12629.862169444454
901.7622609085302 12573.075320159309
902.6918326499072 12392.967206301348
903.6211724368477 12437.86410649062
904.5502803380696 12370.878500922798
905.4791564222614 12479.152684156386
906.4078007580792 12188.48799207499
907.3362134141571 12151.194213020704
908.2643944590909 12255.517856661008
909.1923439614493 12044.56046686092
910.1200619897754 12012.3013408082
911.0475486125779 12177.187141010238
911.9748038983344 11993.316081358596
912.9018279155007 11968.894482163412
913.8286207324982 11859.658551026925
914.7551824177117 11855.667205809423
915.6815130395116 11889.256313153928
916.6076126662283 11731.786965102408
917.533481366163 11753.436302740056
918.4591192075914 11739.522051404407
919.3845262587565 11851.523297087366
920.3097025878706 11709.004751865417
921.2346482631237 11687.416966777
922.1593633526682 11712.363772422488
923.0838479246304 11754.182252277154
924.0081020471061 11825.272650765302
924.9321257881656 11517.705731818449
925.8559192158464 11529.456346271507
926.7794823981512 11675.67515079775
927.7028154030686 11506.647964179008
928.6259182985414 11472.366655331982
929.5487911524906 11592.812218259169
930.4714340328119 11576.522428690161
931.3938470073608 11366.942377325217
932.3160301439748 11594.695572940984
933.2379835104548 11473.398196175483
934.1597071745709 11500.68357011196
935.0812012040769 11542.68488532353
936.002465666681 11522.49070561947
936.9235006300696 11609.904475683168
937.8443061619055 11451.918572880462
938.7648823298077 11315.717386872278
939.6852292013809 11413.769156015094
940.6053468441951 11506.527880517144
941.5252353257874 11263.99964921299
942.4448947136698 11433.09484897192
943.364325075323 11371.807730818411
944.2835264782043 11475.9838148753
945.2024989897309 11361.737381280847
946.1212426773054 11419.672481556194
947.0397576082851 11344.259703243473
947.9580438500125 11459.535060925798
948.8761014697939 11457.894463390838
949.7939305349064 11492.349516316051
950.7115311125999 11334.120632574439
951.6289032700952 11286.7124033878
952.5460470745875 11432.099965118132
953.4629625932339 11287.832619938281
954.3796498931715 11455.645419814526
955.2961090415029 11406.171588323214
956.2123401053068 11425.102602084418
957.1283431516276 11335.34707612628
958.0441182474842 11337.736066229656
958.9596654598663 11379.102608473735
959.8749848557309 11363.626757948969
960.7900765020167 11265.155478645413
961.7049404656209 11232.152643334693
962.6195768134185 11239.661792333665
963.5339856122537 11255.555944136177
964.4481669289453 11282.633031800606
965.3621208302793 11222.941454883006
966.2758473830145 11274.843661886563
967.1893466538822 11425.616565707529
968.1026187095813 11216.056167076833
969.0156636167867 11310.720918777928
969.9284814421426 11334.203733255421
970.8410722522622 11214.67617887293
971.753436113735 11135.78325194673
972.6655730931161 11185.879470365275
973.5774832569368 11339.030350981891
974.4891666716958 11211.324008128155
975.4006234038698 11229.316565682788
976.3118535198955 11186.934111784978
977.2228570861935 11405.367422684543
978.1336341691494 11302.262568755814
979.0441848351202 11220.457512953693
979.9545091504333 11351.134149316951
980.864607181391 11390.466510225897
981.7744789942699 11296.046652633078
982.6841246553086 11408.296525064161
983.5935442307236 11433.152524291301
984.5027377867027 11492.600176154167
985.4117053894024 11521.52534846768
986.3204471049557 11473.680181853879
987.2289629994648 11560.67934611522
988.1372531390007 11643.772533533767
989.0453175896091 11397.04550746894
989.9531564173067 11552.15120265522
990.860769688079 11553.457562223335
991.7681574678918 11690.863042305715
992.6753198226706 11700.376134559196
993.582256818323 11687.389925738027
994.4889685207218 11833.405308154273
995.3954549957143 12018.19805927947
996.301716309119 12019.147256847387
997.2077525267232 11946.935766307652
998.1135637142943 11946.548954927826
999.0191499375615 12098.587655277694
999.924511262232 12125.412869113457
1000.8296477539861 12231.098632204517
1001.7345594784656 12172.409435052348
1002.6392465012996 12272.383153854793
1003.5437088880753 12275.639101720695
1004.4479467043584 12278.244564454897
1005.3519600156869 11911.459954573307
1006.2557488875718 12178.805469859675
1007.1593133854858 12112.976714983848
1008.0626535748888 12139.098183481485
1008.9657695212009 12030.18284351624
1009.8686612898182 12243.417004942432
1010.7713289461135 12142.666157321619
1011.6737725554212 12080.036671649228
1012.5759921830577 12032.325094341646
1013.4779878943027 12051.950596754115
1014.379759754418 12037.486387291652
1015.2813078286254 11835.562667111979
1016.18263218213 11673.678572781664
1017.0837328801026 11827.511553510265
1017.9846099876886 11792.844040415996
1018.8852635700023 11589.798682649278
1019.7856936921362 11412.301914271837
1020.6859004191447 11595.970873372753
1021.5858838160675 11515.581741411916
1022.4856439479063 11325.978627077555
1023.3851808796389 11259.374868341863
1024.2844946762143 11375.069169684006
1025.183585402554 11182.894489454364
1026.082453123554 11017.700304541413
1026.9810979040776 11023.044236172938
1027.8795198089647 10962.381915185677
1028.777718903024 11033.247180313057
1029.6756952510368 10953.960795810364
1030.5734489177648 10825.848703770414
1031.4709799679313 10866.26898690156
1032.3682884662358 10966.213505870324
1033.2653744773506 10790.961330999742
1034.1622380659192 10702.008979130911
1035.058879296559 10782.786164982434
1035.9552982338591 10879.84175450691
1036.8514949423825 10782.380628103241
1037.7474694866614 10777.277130803679
1038.6432219312028 10804.686786071257
1039.5387523404825 10951.811897225762
1040.4340607789582 10874.254177568968
1041.3291473110476 10909.790460455408
1042.2240120011465 11166.89018105499
1043.1186549136273 11109.010751984486
1044.0130761128294 11134.28908810605
1044.9072756630649 11291.115835250055
1045.8012536286205 11382.421129329605
1046.6950100737577 11484.493407762415
1047.588545062701 11546.363447015345
1048.481858659663 11485.045037148355
1049.3749509288118 11682.929338129175
1050.2678219343034 11631.224038113778
1051.1604717402515 11752.036893880413
1052.0529004107575 11625.190456158023
1052.9451080098825 11737.713995687533
1053.8370946016694 11699.257273892325
1054.7288602501267 11788.108620262265
1055.6204050192446 11699.44021265573
1056.511728972977 11769.61792057273
1057.402832175254 11778.88537439514
1058.2937146899785 11673.478188249288
1059.1843765810263 11598.965655640393
1060.0748179122456 11866.222125220494
1060.9650387474576 11690.44945945243
1061.855039150456 11809.482800267613
1062.7448191850071 11826.416257189205
1063.6343789148505 11710.935192158151
1064.5237184037014 11819.105167326365
1065.412837715241 11602.878358263973
1066.3017369131267 11677.031961695273
1067.190416060992 11679.610978452114
1068.0788752224398 11556.32542632982
1068.9671144610438 11510.379006710107
1069.8551338403558 11592.544165930994
1070.7429334239023 11597.704612926214
1071.6305132751695 11377.146744126101
1072.517873457633 11403.821154218815
1073.4050140347335 11350.018242293318
1074.2919350698776 11246.702217464208
1075.1786366264623 11235.840965811949
1076.0651187678395 11184.934054466745
1076.95138155735 11000.509665216301
1077.8374250582929 10944.142034855417
1078.7232493339507 10969.727510739123
1079.608854447577 10773.296189921693
1080.4942404623907 10711.841915272995
1081.3794074415982 10751.376419914766
1082.2643554483657 10605.974837215941
1083.149084545841 10634.104566319793
1084.033594797138 10466.296137863364
1084.9178862653516 10440.322810418911
1085.8019590135427 10494.912390524612
1086.6858131047484 10327.768207577381
1087.5694486019802 10319.775683441352
1088.4528655682225 10195.450775143088
1089.3360640664287 10313.744839450144
1090.2190441595321 10195.52475495043
1091.1018059104317 10250.740570031481
1091.98434938201 10150.949042998562
1092.866674637111 10175.043359542313
1093.748781738559 10093.31390794592
1094.6306707491512 10051.98616897248
1095.5123417316554 10124.240562737068
1096.3937947488157 10040.052668514058
1097.2750298633455 10032.694168090075
1098.156047137938 9984.928930568432
1099.0368466352556 10094.177347264482
1099.9174284179317 10156.70023402555
1100.7977925485757 9997.984998655349
1101.6779390897755 9949.16667652149
1102.5578681040806 10026.372568660614
1103.4375796540226 10054.288435857245
1104.3170738021054 9978.859975700927
1105.1963506108077 9899.90952639401
1106.0754101425773 10039.20677308959
1106.9542524598382 10105.515971102406
1107.8328776249855 10027.739205741293
1108.7112857003904 10112.11625338603
1109.5894767483987 10120.44832790607
1110.4674508313292 10289.562753086368
1111.3452080114657 10228.739340980908
1112.2227483510815 10360.107079864634
1113.1000719124077 10544.1098632209
1113.9771787576592 10678.416850449483
1114.854068949022 10736.581450713204
1115.7307425486542 10791.872589048431
1116.6071996186893 11086.506264388476
1117.483440221229 11427.792092779498
1118.3594644183577 11276.807647419668
1119.235272272128 11541.133193920752
1120.1108638445658 11835.893815956664
1120.9862391976712 12124.94774017438
1121.8613983934229 12125.249380964542
1122.7363414937627 12420.282101688108
1123.6110685606182 12551.72299883651
1124.485579655884 12853.232756329064
1125.359874841426 13048.688698779133
1126.2339541790916 12987.96093932565
1127.1078177306936 13431.152329143166
1127.9814655580267 13286.105317249583
1128.854897722851 13475.192828773554
1129.7281142869106 13688.821472124144
1130.6011153119125 13684.248488984074
1131.473900859548 13807.32940935446
1132.3464709914697 13751.515846077931
1133.2188257693178 13610.454287385208
1134.0909652546961 13607.948413889953
1134.96288950919 13413.163960297292
1135.8345985943506 13470.552477193149
1136.7060925717087 13099.100477629809
1137.57737150277 13161.335056914224
1138.4484354490069 12829.849200322946
1139.3192844718778 12777.849549957597
1140.1899186327992 12406.607779643575
1141.060337993178 12443.651850829901
1141.930542614382 12113.027120148665
1142.8005325577597 12042.118159166545
1143.670307884635 11585.974852533158
1144.5398686563003 11617.288604658486
1145.409214934025 11262.93407417463
1146.2783467790541 10987.266559927077
1147.1472642526023 10885.807819244617
1148.0159674158622 10906.801813397109
1148.8844563300026 10573.723672653958
1149.7527310561618 10352.67188421844
1150.6207916554504 10191.91062289779
1151.4886381889592 10120.397155438844
1152.3562707177498 10240.486549308185
1153.2236893028585 9958.952008181765
1154.090894005296 9845.393835524324
1154.9578848860474 9740.229915294061
1155.8246620060709 9778.684482126722
1156.6912254262988 9575.236221971185
1157.5575752076438 9462.995697702094
1158.42371141098 9642.247803550385
1159.2896340971656 9535.44988603581
1160.1553433270346 9433.211661078783
1161.0208391613887 9382.035437997454
1161.8861216610057 9402.614915855009
1162.75119088664 9407.166457977266
1163.6160468990201 9200.793386867055
1164.4806897588442 9155.355197749885
1165.3451195267917 9375.623119019026
1166.2093362635114 9293.992247505723
1167.0733400296285 9148.309864637951
1167.9371308857444 9121.971355910558
1168.8007088924278 9117.605467014035
1169.6640741102328 9239.248618173722
1170.5272265996773 9063.570592829672
1171.390166421259 8946.24352714512
1172.252893635452 9220.9179298717
1173.1154083026995 9258.340579546966
1173.977710483421 9156.662470236653
1174.8398002380145 9012.994569206005
1175.7016776268483 9163.862568876697
1176.563342710264 9199.043876502028
1177.4247955485826 9055.1136835026
1178.2860362020947 9049.795824682991
1179.147064731069 9121.152319042467
1180.0078811957483 9212.259438297307
1180.8684856563486 9161.644152215138
1181.7288781730604 9267.412031754979
1182.589058806052 9414.568242437284
1183.4490276154593 9483.364185919201
1184.3087846614017 9485.084030619604
1185.1683300039676 9494.754077207337
1186.027663703222 9795.018640550577
1186.8867858192025 9645.460659590943
1187.7456964119228 9760.96831781904
1188.6043955413716 9908.638239550653
1189.4628832675116 10147.615884159144
1190.3211596502842 10225.051804903753
1191.179224749596 10271.227690445761
1192.0370786253388 10262.516141939515
1192.8947213373758 10610.090444140344
1193.7521529455407 10635.466097054583
1194.6093735096438 10526.882463070357
1195.466383089477 10683.561094811055
1196.3231817447977 10883.291640701458
1197.1797695353398 10949.951984233203
1198.0361465208189 10870.697902938618
1198.8923127609214 10801.924311958548
1199.7482683153048 10973.972021350663
1200.6040132436028 11078.13229419188
1201.459547605431 10962.158836079896
1202.3148714603722 10829.063480425153
1203.1699848679855 11058.139554933328
1204.0248878878065 10972.418210195632
1204.8795805793507 10728.386844542963
1205.7340630020935 10784.559953149455
1206.5883352155033 10874.092981475322
1207.4423972790064 10668.678070920256
1208.2962492520237 10558.645314726367
1209.1498911939307 10504.100495137398
1210.0033231640937 10477.898713136066
1210.8565452218427 10359.856841382421
1211.7095574264913 10185.657906224073
1212.5623598373222 9954.01092738918
1213.4149525135963 9984.016274333862
1214.2673355145507 9934.152374146102
1215.1195088993936 9861.068216766555
1215.9714727273113 9668.251816823478
1216.8232270574663 9712.453397851656
1217.6747719489904 9504.399583751745
1218.5261074609934 9467.675686272563
1219.3772336525653 9438.82566762743
1220.2281505827668 9416.531774525518
1221.0788583106296 9414.738558217992
1221.9293568951707 9147.412282895888
1222.7796463953746 9116.029464993939
1223.629726870202 9251.049978666433
1224.4795983785934 9231.771592794954
1225.3292609794553 9114.477051991253
1226.1787147316809 9040.722087297676
1227.0279596941327 9158.384139532887
1227.8769959256424 9166.114360066375
1228.7258234850306 9039.019438375448
1229.5744424310833 8907.45338121246
1230.422852822563 9011.970473015448
1231.2710547182105 9154.0436194756
1232.119048176739 8914.56757210373
1232.9668332568417 8800.083910935191
1233.8144100171812 9004.734640356557
1234.6617785163999 8941.759934448735
1235.508938813111 8781.486362099387
1236.3558909659114 8803.204592462493
1237.2026350333617 9041.210601903918
1238.049171074008 9040.55150308404
1238.8954991463652 8855.824514695893
1239.741619308932 8820.31831275249
1240.587531620169 9932.459518365762
1241.4332361385277 9007.057119861714
1242.2787329224248 8876.714572164517
1243.1240220302534 8870.856417403344
1243.9691035203869 8805.725663395988
1244.813977451171 8970.801609792255
1245.6586438809263 8929.17932206833
1246.5031028679496 8706.587095415478
1247.3473544705157 9030.622050864746
1248.1913987468706 8858.313536115918
1249.0352357552383 8782.072385993743
1249.8788655538228 8784.543119080465
1250.7222882007918 8926.35936451211
1251.565503754302 8915.56310580748
1252.4085122724755 8783.989202610912
1253.2513138134182 8924.987958967413
1254.0939084352049 8983.335653682883
1254.9362961958905 8850.061821969126
1255.7784771535007 8811.019239852858
1256.6204513660432 8828.634363722525
1257.4622188915 8992.956165735384
1258.3037797878242 8903.210467409164
1259.1451341129468 8765.119493376473
1259.9862819247755 8905.179019158859
1260.8272232811978 8791.755308445578
1261.6679582400666 8998.06371661781
1262.5084868592203 8732.670296842487
1263.34880919647 8599.969395294573
1264.1889253095997 8782.912259023196
1265.0288352563712 8929.797796231882
1265.8685390945266 8732.30988712584
1266.7080368817751 8696.371143143018
1267.5473286758115 8886.892202653336
1268.386414534294 8746.604001153004
1269.2252945148703 8490.359419359917
1270.0639686751547 8585.584614264291
1270.9024370727402 8558.736034896387
1271.7406997651997 8495.694368946048
1272.5787568100714 8365.045825784733
1273.4166082648808 8491.239273099776
1274.2542541871244 8510.792269260073
1275.091694634275 8683.270222276979
1275.9289296637817 8322.138464944539
1276.7659593330663 8390.361632455386
1277.6027836995308 8418.068080831323
1278.4394028205552 8540.711378520691
1279.2758167534867 8382.800784822606
1280.112025555658 8352.867700700843
1280.9480292843746 8432.918348180083
1281.7838279969128 8301.740804055178
1282.6194217505326 8220.86995802482
1283.4548106024686 8168.5618617343425
1284.289994609926 8204.364679013814
1285.1249738300921 8400.72940284173
1285.959748320127 8068.601628476613
1286.7943181371702 8239.104241942601
1287.6286833383328 8219.36473448825
1288.4628439807038 8326.404459529575
1289.2968001213521 8171.532333504336
1290.1305518173194 8194.291989649619
1290.9640991256183 8368.657627305607
1291.7974421032523 8244.974530065409
1292.630580807183 8327.988498957198
1293.463515294361 8387.916962871856
1294.29624562171 8353.779720297742
1295.12877184613 8161.251818662315
1295.961094024493 8292.67164068152
1296.79321221365 8437.654485795978
1297.6251264704333 8395.964448780918
1298.4568368516466 8622.969087293834
1299.2883434140658 8522.433885865641
1300.1196462144526 8357.267510698814
1300.9507453095375 8489.69181848448
1301.7816407560313 8516.597787271194
1302.6123326106172 8424.242318410881
1303.4428209299622 8397.445287319557
1304.2731057707024 8664.073768236076
1305.1031871894502 8442.375537206248
1305.933065242798 8767.315101079212
1306.7627399873181 8634.009071693325
1307.5922114795467 8987.4401704804
1308.4214797760123 9028.95615899022
1309.2505449332057 8757.670218155854
1310.0794070076026 8846.233075514736
1310.9080660556538 9009.468315449518
1311.736522133786 9016.005948614187
1312.5647752983987 8956.476082683454
1313.3928256058734 8889.13208656767
1314.2206731125661 8997.754214334318
1315.048317874809 9091.363951370162
1315.8757599489109 9039.465114424667
1316.7029993911547 9049.55847612662
1317.5300362578055 9322.23835373131
1318.356870605101 9013.966425043458
1319.183502489257 9097.189181725656
1320.0099319664623 9214.1114295619
1320.836159092889 9338.57528360919
1321.66218392468 9353.539671758354
1322.4880065179532 9228.832725626056
1323.3136269288134 9301.144383185632
1324.1390452133292 9473.405353570699
1324.9642614275563 9455.874069711617
1325.7892756275214 9386.881429309182
1326.6140878692295 9232.529713445456
1327.4386982086617 9643.300197121427
1328.2631067017755 9432.630744183294
1329.0873134045069 9386.189752497801
1329.911318372764 9342.233230593356
1330.735121662441 9366.296217206678
1331.558723329399 9351.049203348175
1332.3821234294774 9296.482870602129
1333.2053220185007 9279.570440792322
1334.0283191522612 9304.084775551531
1334.851114886529 9418.479224710758
1335.6737092770582 9269.667271601862
1336.4961023795695 9228.78184263688
1337.3182942497697 9260.623740223313
1338.1402849433325 9204.251860665241
1338.962074515921 9077.5198910566
1339.7836630231632 9039.966833069095
1340.6050505206676 9482.692300213832
1341.426237064028 9272.21342446443
1342.2472227088037 9362.59501536617
1343.0680075105338 9038.002538923163
1343.888591524741 9082.797661271714
1344.7089748069138 9246.722257950878
1345.5291574125276 9005.159757953865
1346.3491393970307 8807.797299598129
1347.168920815846 9033.57176491768
1347.9885017243778 9072.128429602733
1348.8078821780036 8945.359371024711
1349.6270622320844 9041.4042317568
1350.4460419419447 8907.933326688883
1351.2648213629054 9117.44282978283
1352.0834005502438 8838.817544088033
1352.90177955923 8935.970810742494
1353.7199584451064 9484.426035608269
1354.5379372630887 9098.285713396053
1355.355716068374 9018.194522113987
1356.1732949161305 8910.548610068672
1356.9906738615155 9023.500357894456
1357.8078529596478 9039.989825830142
1358.6248322656375 9031.627845277812
1359.441611834567 8896.408911591063
1360.2581917214866 9166.420637658219
1361.0745719814367 8787.695860369651
1361.890752669433 8843.28651281817
1362.7067338404577 8949.459185324637
1363.5225155494845 9120.532452766178
1364.3380978514506 9151.661209701324
1365.1534808012839 8814.054532905033
1365.9686644538815 8703.149165834911
1366.783648864117 9103.964257824646
1367.5984340868417 9082.210347535041
1368.413020176893 9043.163604369518
1369.2274071890715 8851.36690985792
1370.0415951781652 9005.293169562437
1370.8555841989346 8717.82267819642
1371.6693743061223 8871.107246196694
1372.48296555444 8803.932364177785
1373.2963579985844 9057.067056188122
1374.1095516932255 8887.87835159623
1374.9225466930166 8725.949495016257
1375.7353430525782 8899.430362042665
1376.5479408265164 8796.734084164189
1377.36034006941 8990.38958420901
1378.1725408358216 8907.018711202658
1378.9845431802805 8722.527733629075
1379.796347157304 9068.528095374833
1380.6079528213813 8932.085639592045
1381.4193602269788 8745.648121262844
1382.230569428546 8635.067044731524
1383.0415804805016 9053.639800655988
1383.852393437246 8932.871733533693
1384.6630083531563 8816.805475862215
1385.4734252825892 8794.00470368918
1386.2836442798798 8853.326777033504
1387.0936653993322 8800.695103743219
1387.9034886952395 8797.884741239848
1388.713114221864 8912.232578512001
1389.5225420334482 8856.86685805351
1390.331772184214 8781.877542642746
1391.1408047283585 8638.755065248932
1391.9496397200564 8621.567616215041
1392.758277213461 8952.300867310241
1393.5667172627054 8936.580233652543
1394.3749599218918 8672.248135031585
1395.1830052451114 8544.236356086407
1395.9908532864265 8679.214040312027
1396.7985040998774 8936.385382053162
1397.6059577394808 8606.379239066207
1398.4132142592352 8575.931654300126
1399.2202737131156 8693.952961531011
1400.027136155073 8690.081048439055
1400.8338016390353 8492.298588236587
1401.6402702189134 8505.382664075583
1402.446541948586 8621.90201823846
1403.2526168819204 8410.013122336295
1404.058495072757 8362.67929643494
1404.8641765749107 8414.270104642976
1405.6696614421799 8403.658536466646
1406.4749497283356 8623.550823451837
1407.280041487129 8317.310242746975
1408.084936772295 8100.847469418093
1408.8896356375335 8308.957166400356
1409.6941381365323 8297.950506833782
1410.498444322955 7936.508419657541
1411.3025542504402 8089.136724159883
1412.106467972606 8159.408249807903
1412.9101855430508 8110.864887682625
1413.7137070153458 7885.928698888942
1414.5170324430437 7811.865520607405
1415.320161879672 7836.677196283648
1416.1230953787435 7983.693070425608
1416.925832993742 7578.338327530917
1417.7283747781275 7526.486395438789
1418.5307207853439 7771.704772250836
1419.3328710688093 7648.25432579889
1420.134825681922 7300.467713927161
1420.9365846780584 7464.988087809087
1421.7381481105713 7653.5134641959985
1422.539516032788 7553.02570410173
1423.3406884980232 7303.168210356464
1424.1416655595604 7297.317682211049
1424.942447270665 7355.056031457566
1425.7430336845828 7407.298124116544
1426.5434248545298 7140.134952304472
1427.3436208337116 7255.672903017206
1428.143621675301 7373.003679659419
1428.9434274324558 7416.00970010353
1429.7430381583108 7043.052269717868
1430.5424539059713 7221.683808417523
1431.3416747285337 7674.99497889375
1432.1407006790632 7339.014738327225
1432.9395318106053 7180.253799585296
1433.7381681761835 7073.505418400755
1434.5366098288014 7062.84271308976
1435.3348568214424 7224.213356255505
1436.1329092070573 7140.8392567108485
1436.9307670385879 7044.134318416468
1437.7284303689503 7274.073826858235
1438.5258992510335 7373.541160887864
1439.3231737377118 7174.298478449566
1440.1202538818306 7059.580818034728
1440.9171397362225 7145.149664967636
1441.7138313536925 7043.784489653495
1442.5103287870243 6925.2342496526835
1443.3066320889775 6922.291050400449
1444.1027413122956 7194.076764642423
1444.8986565096966 6908.50457541745
1445.694377733882 6953.003873614861
1446.4899050375207 6825.279358899839
1447.2852384732687 6804.225965877292
1448.0803780937622 7165.247917498164
1448.8753239516063 6812.128836336856
1449.6700760993954 6748.0619133160435
1450.464634589689 6809.756188791558
1451.2589994750397 7029.245563985077
1452.0531708079689 6832.094448554895
1452.8471486409799 6822.075451306681
1453.6409330265524 7012.3113913016105
1454.4345240171442 6865.890337537816
1455.2279216651987 6848.751128901908
1456.0211260231263 6840.302871928313
1456.8141371433194 6914.145448154311
1457.6069550781594 6977.748418295307
1458.3995798799897 6710.425679122268
1459.1920116011424 6776.442755651539
1459.98425029393 6728.723187995041
1460.7762960106338 6713.398053247809
1461.5681488035225 6746.2127474996105
1462.3598087248392 6864.470873721233
1463.1512758268036 6926.85027877629
1463.942550161617 6823.690924208751
1464.7336317814625 6672.529207924492
1465.524520738496 6755.192825544509
1466.3152170848552 6710.081944981927
1467.1057208726506 6770.070341115927
1467.8960321539817 6711.317079789731
1468.6861509809169 6675.070599908555
1469.4760774055085 6618.557163488139
1470.265811479785 6852.15859710412
1471.055353255755 6522.492265722341
1471.844702785409 6694.214384817411
1472.6338601207044 6633.809727230497
1473.4228253135934 7244.287864433386
1474.2115984159936 6657.447742939298
1475.0001794798063 6417.020937027002
1475.7885685569145 6716.392696396877
1476.576765699172 6801.1916651187
1477.3647709584238 6614.844922916101
1478.1525843864802 6891.791593586235
1478.9402060351367 6877.0256777025015
1479.7276359561693 6842.96849681484
1480.514874201328 6743.561717597459
1481.3019208223468 6817.925456370406
1482.0887758709323 6612.715796265041
1482.8754393987747 6883.084737092731
1483.6619114575406 6577.160983043516
1484.4481920988783 6845.049322338384
1485.2342813744108 7009.821025984775
1486.0201793357446 6987.203475131246
1486.8058860344572 6929.208308813131
1487.591401522117 6768.719469647261
1488.3767258502594 6884.148696684853
1489.1618590704056 6863.801766773757
1489.9468012340494 6735.90608466876
1490.7315523926754 6942.009328424805
1491.5161125977356 7084.617873707028
1492.3004819006637 6859.259861665322
1493.084660352877 6805.66784958642
1493.8686480057622 6964.742238986594
1494.6524449106964 7258.736183007206
1495.4360511190262 7154.29153882135
1496.219466682087 7005.534603897412
1497.0026916511779 7050.801176194231
1497.7857260775945 6899.39873789822
1498.5685700125996 7055.313204785246
1499.3512235074395 6828.920885610134
1500.133686613337 6941.327558881252
1500.9159593814966 6924.546740856276
1501.698041863101 7337.934255980224
1502.4799341093094 6867.643745048165
1503.2616361712662 6804.209987828583
1504.043148100087 7140.805608351482
1504.8244699468742 7086.773418844935
1505.6056017626997 6827.177555230471
1506.3865435986281 6760.934044095782
1507.1672955056893 6914.457376411335
1507.9478575348967 6808.164332162063
1508.7282297372512 6945.889257337777
1509.5084121637192 6950.533443124322
1510.2884048652577 6916.014876490209
1511.0682078927948 6824.990852560685
1511.8478212972423 6806.499809888561
1512.6272451294917 6815.120684301469
1513.4064794404076 7016.199967992284
1514.1855242808433 6909.370696221745
1514.9643797016215 6932.185254923718
1515.743045753552 6910.52484890384
1516.5215224874191 6840.311198370148
1517.2998099539836 6566.427505917412
1518.077908203999 6773.904714929088
1518.8558172881785 6798.086748685576
1519.633537257234 7009.999745339478
1520.4110681618404 6908.31674697304
1521.1884100526604 6999.1551390587465
1521.9655629803365 6906.899484837448
1522.7425269954856 7082.433232302285
1523.5193021487103 7097.760835001522
1524.2958884905856 6750.2858572989835
1525.0722860716687 6811.707285826556
1525.848494942502 6965.753832855972
1526.624515153595 6903.766514593131
1527.4003467554485 7072.647429386913
1528.175989798534 7048.03782649176
1528.9514443333064 6971.648471952826
1529.726710410203 7252.783985893306
1530.5017880796331 6873.77646941744
1531.276677391992 7005.211392967651
1532.0513783976457 7200.219900352083
1532.825891146953 7068.1366410587625
1533.6002156902414 7147.592583810746
1534.3743520778207 7189.9911114581655
1535.1483003599806 7030.897890419296
1535.9220605869923 7105.665659302288
1536.6956328091019 7218.602335255225
1537.4690170765407 7159.8885557522835
1538.242213439511 7374.9398250444965
1539.015221948208 7340.599282244734
1539.78804265279 7160.444588256927
1540.560675603405 7043.3780029432255
1541.3331208501804 7455.235348114982
1542.1053784432224 7493.81100760093
1542.8774484326168 7469.120381732867
1543.649330868422 7337.504576708246
1544.4210258006842 7393.374294790192
1545.1925332794308 7335.278801286247
1545.9638533546604 7324.991214215248
1546.7349860763552 7297.718570981444
1547.5059314944829 7697.0422579732085
1548.27668965898 7373.566849577515
1549.0472606197673 7432.078584169729
1549.817644426752 7346.426254083302
1550.5878411298072 7607.219942744984
1551.3578507787988 7530.103792641194
1552.1276734235635 7481.078806973912
1552.8973091139233 7525.153100576541
1553.6667578996767 7595.801913063589
1554.436019830604 7587.049044168261
1555.20509495646 7638.112515521188
1555.9739833269869 7328.622645020465
1556.7426849919011 7450.235233037342
1557.511200000903 7996.887860406632
1558.2795284036674 7610.0189683294475
1559.0476702498509 7544.992096368235
1559.8156255890954 7735.468612374304
1560.5833944710157 7892.176645718767
1561.3509769452048 7539.613429215833
1562.1183730612447 7616.865576391545
1562.8855828686865 7725.466522086109
1563.6526064170703 7919.5681672625915
1564.4194437559127 7850.626953353429
1565.1860949347047 7500.994386017832
1565.9525600029283 7807.367859775036
1566.7188390100328 7892.285542698429
1567.4849320054564 7563.460646095511
1568.250839038612 7639.771288197911
1569.0165601588997 7577.205415731049
1569.7820954156887 7762.442529988219
1570.5474448583373 7616.737977603458
1571.31260853618 7451.904271812577
1572.0775864985299 7342.721209981086
1572.8423787946813 7635.170098624483
1573.6069854739108 7479.404503675818
1574.371406585471 7565.106065504342
1575.1356421785986 7496.16362095361
1575.899692302506 7461.5006991533955
1576.6635570063845 7324.722419318679
1577.4272363394157 7378.670066778583
1578.190730350747 7512.318027826461
1578.9540390895163 7382.129787642516
1579.7171626048384 7060.825842900538
1580.480100945806 7243.980824616314
1581.2428541614918 7330.928474227267
1582.0054223009538 7304.196848181491
1582.767805413223 7386.165693583564
1583.5300035473156 7278.594824488171
1584.292016752228 7448.148979957313
1585.0538450769309 7480.1256464532225
1585.8154885703807 7207.585823676338
1586.5769472815136 7226.214646709501
1587.3382212592405 7353.141572065392
1588.099310552463 7460.054067237116
1588.8602152100484 7004.823276426636
1589.6209352808564 7538.014094707488
1590.3814708137234 7387.256149259001
1591.14182185746 7071.236510663373
1591.9019884608679 7454.8426800124635
1592.6619706727215 7121.221158498801
1593.4217685417734 7428.140049857449
1594.1813821167616 7676.025551852396
1594.9408114464022 7048.144910109011
1595.7000565793933 7415.468392225857
1596.459117564409 7352.649934368104
1597.2179944501113 7234.316685063396
1597.9766872851324 7342.221477912897
1598.735196118092 7474.4082060178025
1599.4935209975883 7525.075505254649
1600.2516619721973 7532.505686809958
1601.0096190904787 7314.0852705829875
1601.7673924009723 7415.464724917301
1602.524981952196 7293.04083457951
1603.2823877926476 7321.140657954069
1604.0396099708087 7354.22498070398
1604.7966485351371 7240.407343741036
1605.5535035340745 7373.356056647247
1606.3101750160404 7516.854775135222
1607.0666630294363 7375.36107030351
1607.822967622642 7122.647771624359
1608.5790888440224 7258.964418408369
1609.3350267419137 7578.28039189317
1610.0907813646445 7281.483569137816
1610.8463527605145 7410.865534950365
1611.601740977805 7447.622516567784
1612.356946064785 7413.194459907199
1613.1119680696902 7137.600827320003
1613.8668070407512 7125.8677963177715
1614.6214630261748 7286.488451168969
1615.375936074137 7347.35324783688
1616.1302262328118 7431.637585344058
1616.8843335503425 7315.840070505452
1617.638258074854 7241.99397473343
1618.391999854457 7055.169086512947
1619.1455589372363 7312.1172982645485
1619.8989353712623 7403.019600843283
1620.65212920458 6993.4916056612155
1621.4051404852235 7030.186006127445
1622.1579692611976 7180.958028144533
1622.9106155804966 7147.125156940133
1623.663079491087 7180.035934443481
1624.4153610409248 7308.553101128005
1625.1674602779385 7183.904992913866
1625.9193772500403 6911.992754530407
1626.6711120051277 7372.967154683991
1627.4226645910676 7195.991355957752
1628.174035055721 7053.778591296183
1628.9252234469168 7168.307307642497
1629.676229812474 7096.050191478175
1630.4270542001905 7749.8085507886235
1631.1776966578382 7305.93556169841
1631.9281572331747 7208.495294326797
1632.678435973945 7361.602293142586
1633.4285329278573 7420.0137482407645
1634.1784481426203 7099.458278670861
1634.9281816659113 7312.623343473958
1635.677733545388 7564.914789586066
1636.4271038286934 7351.493291392568
1637.176292563452 7470.487125559599
1637.9252997972635 7533.977991612921
1638.674125577716 7739.643136511369
1639.4227699523672 7882.547677353818
1640.171232968767 7395.564382591785
1640.9195146744423 7584.25260550051
1641.6676151168977 7852.875857376064
1642.4155343436178 7789.5513493512935
1643.1632724020765 7750.190751117708
1643.9108293397167 7741.591415614994
1644.658205203974 7608.76932545131
1645.4054000422566 8309.825735057922
1646.1524139019566 7882.534807526744
1646.8992468304423 7756.6364635099135
1647.6458988750728 7799.618773861281
1648.3923700831765 7929.8021616050855
1649.1386605020743 7886.460799911389
1649.8847701790564 8049.679492530045
1650.6306991614038 8053.380104010142
1651.3764474963682 8055.055583158336
1652.1220152311944 7831.566080513554
1652.867402413096 7957.618261114633
1653.6126090892776 7980.840256908212
1654.3576353069184 8244.647159275328
1655.1024811131829 7966.17275721997
1655.8471465552066 8002.700399273943
1656.5916316801213 8077.320504453627
1657.3359365350298 8059.847142382181
1658.0800611670165 7913.739135530721
1658.824005623148 7746.153125169627
1659.5677699504722 7684.244383072441
1660.3113541960192 7843.241018655346
1661.054758406799 7761.210674183749
1661.7979826297997 7537.4922016629935
1662.5410269119966 7461.421808272647
1663.283891300338 7841.437889572006
1664.0265758417645 7371.75576954214
1664.7690805831826 7502.3659413436635
1665.5114055714948 7632.811072139906
1666.2535508535748 7466.39908014348
1666.9955164762814 7081.590309518001
1667.7373024864555 7254.29951044114
1668.478908930916 7327.344019371658
1669.220335856462 6966.760968710022
1669.9615833098778 6955.685379384251
1670.7026513379296 6775.192486148881
1671.44353998736 6918.984155207079
1672.1842493048916 6878.11722517528
1672.9247793372379 6666.645472697301
1673.6651301310812 6756.396098456949
1674.4053017330934 6472.15833411602
1675.1452941899242 6664.415598084066
1675.885107548207 6170.62913492411
1676.6247418545518 6346.712897334546
1677.3641971555535 6429.769624070172
1678.1034734977893 6470.95887192891
1678.8425709278108 6264.735321279715
1679.5814894921605 6414.848105591811
1680.320229237359 6042.694794548849
1681.0587902098978 6337.497767692039
1681.7971724562685 6211.9658699809515
1682.5353760229264 6140.17090882113
1683.2734009563173 6111.512858412845
1684.0112473028657 5838.2709641855035
1684.7489151089794 6179.830374746239
1685.4864044210462 6027.195164571015
1686.2237152854377 5756.081093507828
1686.960847748498 5990.534878220782
1687.6978018565642 5737.703720091085
1688.434577655944 5562.259275436136
1689.1711751929379 5633.302164469226
1689.9075945138156 5667.54549858721
1690.6438356648396 5597.918038776169
1691.3798986922448 5233.4702309793665
1692.1157836422499 5454.109778083795
1692.851490561059 5384.080358685826
1693.587019494853 5470.2506923293095
1694.3223704897991 5152.016370079838
1695.0575435920364 4979.029762802136
1695.792538847696 5367.148106384984
1696.527356302886 5106.011223739845
1697.2619960036936 4941.045070197644
1697.9964579961907 5078.008021862034
1698.730742326432 4692.084161825108
1699.4648490404488 4737.035543916575
1700.1987781842563 4924.230119475437
1700.9325298038548 5154.250454059187
1701.6661039452174 5091.317103758231
1702.3995006543082 4886.855308242843
1703.1327199770658 4999.525263682963
1703.865761959416 4766.510781193321
1704.598626647261 4951.807950713663
1705.3313140864866 4605.5723618552265
1706.0638243229587 4707.504125569575
1706.7961574025303 4870.151237842253
1707.528313371029 4697.29736238928
1708.260292274268 4276.568930130478
1708.9920941580403 4653.080098864672
1709.7237190681226 4614.900663270215
1710.4551670502697 4615.574182086971
1711.18643815022 4255.413291699102
1711.9175324136959 4731.9609089928545
1712.6484498863938 4459.691185375953
1713.379190614005 4295.629012486645
1714.109754642188 4718.074528897422
1714.8401420165883 4373.374101133235
1715.570352782839 4683.452801759597
1716.3003869865497 4613.981473756677
1717.0302446733076 4361.971392611965
1717.7599258886876 4356.970346005742
1718.4894306782444 4749.599895299334
1719.2187590875183 4233.14623366032
1719.9479111620203 4534.999637819584
1720.6768869472544 4293.462345872175
1721.4056864887025 4664.788277533929
1722.1343098318284 4533.180343149966
1722.8627570220742 4249.849018024447
1723.591028104871 4132.640715812596
1724.3191231256242 4139.075473009079
1725.0470421297232 4431.764287035612
1725.7747851625427 4317.4922248435405
1726.5023522694337 4323.183535828406
1727.2297434957363 4364.731601253524
1727.9569588867635 4050.362402488986
1728.6839984878152 4397.747728299606
1729.4108623441734 4002.520283263875
1730.1375505011038 4313.866662796677
1730.8640630038426 4240.130808287046
1731.5903998976264 4100.328392498246
1732.316561227657 4343.842383958488
1733.0425470391274 4053.9873333845308
1733.7683573772065 4288.0065346566225
1734.4939922870508 4119.204759103661
1735.2194518137949 4111.891231616784
1735.9447360025606 4258.916146452392
1736.669844898439 4111.7044909778
1737.3947785465189 4061.542626436185
1738.1195369918605 3903.245731729106
1738.8441202795093 4045.501744983626
1739.5685284544943 4178.481063083392
1740.292761561821 4154.480363514888
1741.0168196464838 4200.708526040455
1741.7407027534518 4126.593270941765
1742.464410927687 4208.835536286768
1743.187944214118 4030.426891504939
1743.9113026576688 3830.498535048688
1744.634486303241 4122.292228891929
1745.3574951957125 4001.10769806194
1746.0803293799509 4080.099693287068
1746.8029889008048 3876.7113414900714
1747.5254738031017 4333.206343241004
1748.2477841316504 3858.1632127051657
1748.969919931249 3914.589203002899
1749.6918812466665 3923.9277924319076
1750.4136681226646 4273.21151734179
1751.1352806039777 4041.1801698628506
1751.856718735331 3772.321944816055
1752.5779825614281 4065.3824940340514
1753.2990721269507 3989.092622089561
1754.0199874765676 4200.716375179068
1754.7407286549314 3769.765412235914
1755.4612957066693 3971.190937339853
1756.1816886763954 3976.6505813210592
1756.9019076087097 4027.7841185180832
1757.6219525481865 4089.477139401908
1758.3418235393856 4019.2750620882675
1759.061520626854 4118.570813572234
1759.7810438551096 4081.357214935022
1760.5003932686614 3793.15716330514
1761.2195689119999 4222.285593391866
1761.938570829594 3775.548227124736
1762.657399065898 3933.845408041986
1763.376053665348 3924.4918125355553
1764.0945346723602 3832.113981710189
1764.812842131334 4137.958069224094
1765.5309760866512 3766.6654551499996
1766.2489365826787 3792.132380511958
1766.9667236637597 3985.0591820273867
1767.684337374223 3703.9852783511756
1768.401777758383 3574.24755874306
1769.1190448605284 3672.2591417954886
1769.836138724937 3756.341273382846
1770.5530593958665 3872.418934329743
1771.2698069175603 4003.8474566208993
1771.9863813342326 3919.3025440734027
1772.702782690094 3793.802179880063
1773.4190110293293 3999.9283217598254
1774.1350663961111 4048.255005461631
1774.8509488345844 3714.119012718392
1775.5666583888924 3871.0390288193717
1776.2821951031437 3914.5231897561034
1776.9975590214362 3752.483288292641
1777.7127501878585 4191.184878675015
1778.4277686464684 3854.7418461848147
1779.1426144413108 4045.3207765370416
1779.8572876164162 3900.403691723859
1780.571788215797 3789.9941387394674
1781.2861162834415 3869.2007815157267
1782.0002718633277 3770.8958018866933
1782.7142549994132 3607.9639393926673
1783.4280657356376 3862.8725383747415
1784.141704115922 3541.2446254658194
1784.855170184177 3655.5818771575955
1785.5684639842839 3781.170509557902
1786.2815855601148 3599.545451822583
1786.9945349555237 3874.782019708354
1787.707312214343 3671.2085304235297
1788.4199173803918 3803.0606015373805
1789.132350497468 3529.9140602349094
1789.8446116093583 3629.236596447994
1790.556700759822 3784.296470271341
1791.2686179926077 3491.5039905076083
1791.9803633514493 3747.1649244968858
1792.6919368800554 3500.178546831971
1793.4033386221236 3808.5543721767767
1794.1145686213295 3798.760322599738
1794.8256269213307 3953.3284551866236
1795.536513565774 3793.6716265715863
1796.247228598284 3488.5478066403643
1796.9577720624693 3523.3591936101284
1797.6681440019165 3570.516729681526
1798.3783444602013 3701.545150190593
1799.0883734808776 3831.8509480191306
1799.7982311074884 3827.885475374922
1800.5079173835475 3584.541976562821
1801.2174323525633 3950.443019829384
1801.9267760580187 3655.987449521802
1802.635948543386 3655.9733741433397
1803.3449498521113 3656.662103967693
1804.0537800276325 3682.097632358833
1804.7624391133668 3565.142397092876
1805.47092715271 3467.963134448403
1806.1792441890484 3490.948909131091
1806.8873902657433 3752.148362709458
1807.5953654261448 3680.076288633905
1808.3031697135812 3422.6943488917327
1809.0108031713662 3593.913579653197
1809.71826584279 3727.8574890562363
1810.425557771141 3582.961877574306
1811.1326789996747 3935.81709469384
1811.839629571632 3589.6027529665575
1812.5464095302468 3513.8382279998027
1813.2530189187182 3702.302204357299
1813.959457780249 3459.3412186812757
1814.6657261580076 3723.776625860412
1815.371824095153 3491.4566828561924
1816.0777516348262 3617.508706960455
1816.78350882015 3355.852446474951
1817.4890956942272 3426.14362236971
1818.1945123001533 3518.377508541019
1818.8997586809928 3570.584093638676
1819.6048348798067 3509.74877083499
1820.3097409396287 3446.2655397487406
1821.0144769034796 3840.5443768943396
1821.7190428143622 3505.8037763928587
1822.423438715261 3853.89232233924
1823.1276646491478 3514.268463594321
1823.8317206589727 3536.291938543618
1824.5356067876692 3631.290410068444
1825.2393230781581 3560.688132033557
1825.942869573335 3316.8464238334323
1826.646246316086 3418.45008784147
1827.3494533492758 3586.5593410903516
1828.052490715756 3573.963272758995
1828.7553584583547 3452.9109629157947
1829.458056619891 3580.1665451589884
1830.1605852431585 3404.5536349321205
1830.8629443709433 3366.2432237631756
1831.5651340460063 3428.3319716685473
1832.2671543110919 3506.6836376704546
1832.9690052089318 3448.6938837088005
1833.6706867822395 3284.561321256736
1834.3721990737104 3630.6265678974314
1835.0735421260233 3598.1856778027054
1835.774715981841 3638.226795725974
1836.4757206838058 3842.6660386810763
1837.1765562745459 3236.739865767196
1837.8772227966747 3178.8411723602394
1838.5777202927839 3411.2259187713194
1839.2780488054523 3359.4566832810187
1839.9782083772352 3268.557336150184
1840.6781990506806 3617.4676634879265
1841.378020868313 3436.1384540603312
1842.0776738726418 3300.5343929064024
1842.777158106157 3428.3247456339427
1843.4764736113375 3343.169651585794
1844.1756204306403 3540.161067304075
1844.8745986065078 3515.8398414749354
1845.5734081813607 3209.430279060296
1846.2720491976124 3176.4073069504634
1846.970521697649 3293.099120278918
1847.6688257238511 3352.8368849704916
1848.3669613185684 3389.6981397406926
1849.0649285241452 3139.9012033371423
1849.7627273829057 3372.7777956259793
1850.460357937156 3553.139911118097
1851.1578202291857 3098.194090009153
1851.8551143012664 3393.3699414077746
1852.5522401956569 3509.1857306914885
1853.2491979545957 3616.2641025532457
1853.9459876203055 3246.931866365583
1854.6426092349902 3259.5866760807044
1855.3390628408451 3273.555545614726
1856.0353484800362 3443.1519902264554
1856.7314661947203 3384.417557065016
1857.4274160270397 3164.1209957637852
1858.123198019115 3381.9485972201146
1858.8188122130487 3388.9564117318287
1859.5142586509319 3322.331933247594
1860.209537374838 3301.5178842105283
1860.9046484268183 3243.333369853537
1861.599591848917 3613.862325495839
1862.294367683151 3200.423115941987
1862.988975971528 3175.799872148995
1863.6834167560355 3515.6347803213807
1864.3776900786452 3526.830569466495
1865.0717959813119 3148.5960713699415
1865.7657345059724 3380.166240804078
1866.4595056945564 3327.719240980653
1867.1531095889586 3374.850651444257
1867.846546231076 3238.6556232583525
1868.5398156627743 3386.5945564133144
1869.2329179259123 3276.584354700448
1869.9258530623283 3522.102343022701
1870.618621113843 3244.4582726540216
1871.3112221222636 3093.5093628480663
1872.0036561293764 3227.667760495134
1872.695923176956 3412.9375770770885
1873.3880233067594 3414.612965434295
1874.0799565605212 3084.4398667977857
1874.7717229799673 3226.0037566802157
1875.4633226068036 3408.405260721213
1876.1547554827175 3324.6901880079904
1876.8460216493859 3209.948565427714
1877.5371211484617 3163.0719921234804
1878.2280540215852 3426.559385481027
1878.9188203103804 3082.2713356877093
1879.6094200564548 3359.3177301294445
1880.299853301396 3211.1832672517094
1880.9901200867826 3371.5494899068485
1881.6802204541673 3234.6635586877796
1882.3701544450942 3374.7590820876917
1883.059922101087 3202.8912954784696
1883.7495234636517 3555.729280000254
1884.4389585742792 3251.8482018147147
1885.1282274744517 3185.420100385016
1885.8173302056166 3751.054230098165
1886.506266809225 3185.208025851863
1887.195037326701 3046.305394194184
1887.8836417994517 3192.2789738302536
1888.5720802688702 3390.392219778079
1889.260352776333 3340.129394303773
1889.9484593632042 3229.8737498503037
1890.63640007082 3149.09011284325
1891.3241749405151 3214.428326382508
1892.0117840135954 3123.7304945088017
1892.6992273313572 3234.1427726553784
1893.3865049350788 3160.3937606318227
1894.0736168660223 3600.278806210029
1894.7605631654333 3200.513212538138
1895.4473438745408 3026.1997424980827
1896.133959034556 3355.5983122290295
1896.820408686679 3179.0287876100615
1897.506692872088 3583.6139299123597
1898.192811631945 3199.905791228023
1898.8787650073991 3231.6100323908604
1899.5645530395832 3291.4984800648685
1900.2501757696118 3387.8464147814293
1900.9356332385796 3071.5227448777914
1901.620925487574 3325.163121346086
1902.3060525576602 3329.976611382789
1902.9910144898859 3235.125657618626
1903.6758113252872 3025.718269228294
1904.3604431048789 3210.0966061687773
1905.0449098696663 3124.3379762862864
1905.7292116606295 3174.325305058709
1906.4133485187394 3302.9435708632745
1907.0973204849488 2693.1256878368777
1907.7811276001976 3053.833513157036
1908.4647699053967 3196.2461728946664
1909.1482474414588 2875.7215987596837
1909.8315602492694 2970.2382631800165
1910.5147083696957 3346.8047951994618
1911.1976918436012 3246.628643834224
1911.880510711815 3172.81202861366
1912.5631650151681 3282.9269979852807
1913.2456547944657 3207.8805782078753
1913.927980090495 3188.0147583780827
1914.6101409440362 3193.9639940628413
1915.2921373958416 3101.135433510695
1915.9739694866603 3140.384156955496
1916.655637257214 3459.9858144064374
1917.3371407482136 3104.404944313749
1918.0184800003572 3366.1006952235402
1918.6996550543154 3281.411080619114
1919.3806659507554 3256.755085521689
1920.0615127303208 3331.2121313071425
1920.7421954336423 3361.0127887796652
1921.4227141013343 3402.7983800501584
1922.103068773993 3087.5574529962273
1922.783259492202 3343.178387036924
1923.4632862965227 3052.844893084213
1924.1431492275078 2993.2845793804972
1924.8228483256917 3044.707476418635
1925.5023836315922 3160.7048872864625
1926.1817551857057 2793.5176726860836
1926.8609630285227 3379.605508214794
1927.5400072005123 3087.0486000197825
1928.218887742125 2904.5611280201592
1928.8976046938005 2751.887484083194
1929.5761580959588 3286.3865944836043
1930.2545479890086 3226.1893507301693
1930.9327744133352 2844.6159377712765
1931.6108374093164 3193.2836875556686
1932.2887370173066 3310.1069280169045
1932.9664732776473 2708.492639804313
1933.6440462306673 2991.0155141018167
1934.3214559166754 2936.6181588659047
1934.9987023759659 3283.1908835675044
1935.675785648813 3140.745828764845
1936.3527057754836 2766.6491545110334
1937.029462796223 3202.373280893232
1937.70605675126 2928.3722550880434
1938.3824876808085 3001.0438185230064
1939.058755625072 2917.7668621897296
1939.7348606242267 3057.4388737419868
1940.4108027184448 2938.789924563226
1941.0865819478713 3288.0983119970733
1941.7621983526478 2877.6318285537636
1942.4376519728921 2895.2769235259384
1943.1129428487038 3046.191399294077
1943.7880710201734 3112.9012364861796
1944.4630365273733 3168.1357543544127
1945.1378394103576 2738.5657897620604
1945.8124797091714 2735.0706549283377
1946.4869574638324 2731.472928860636
1947.161272714353 2954.987440823054
1947.8354255007234 3256.0977862073178
1948.5094158629272 3002.917989189077
1949.1832438409183 3110.0927424904694
1949.8569094746435 3089.641446231969
1950.530412804037 3223.2350213904065
1951.2037538690092 3081.5817545491673
1951.8769327094578 2871.677206671421
1952.5499493652678 3012.1055556130696
1953.222803876306 3264.4747820630882
1953.895496282421 2986.697301989624
1954.5680266234522 2986.885261038118
1955.2403949392155 2996.689752671934
1955.9126012695142 2729.464676188929
1956.5846456541403 3065.8943576989695
1957.2565281328643 2767.138849685729
1957.9282487454457 3003.5202504286954
1958.5998075316202 3278.492047058604
1959.27120453112 3105.835387473121
1959.9424397836501 2995.6839749548567
1960.613513328908 3080.4382920279177
1961.2844252065697 3189.8274518837525
1961.9551754563017 2940.0101192113116
1962.6257641177453 2876.343274585042
1963.29619123054 2828.1749517383746
1963.966456834296 2827.0143752204635
1964.6365609686181 2717.4753401457197
1965.306503673086 3033.1521774735984
1965.976284987275 2885.001748160136
1966.645904950734 2874.632812094875
1967.315363603002 2753.6884037370696
1967.9846609836077 2953.190821600429
1968.6537971320486 2901.98762894847
1969.3227720878222 2777.552553568771
1969.9915858904042 2724.1023662396383
1970.660238579252 2928.5548441563396
1971.3287301938108 2960.3578964500703
1971.997060773514 2709.635941112597
1972.665230357772 2878.534114771702
1973.3332389859843 2760.811237358385
1974.0010866975335 2718.47502350739
1974.6687735317864 2833.919862074542
1975.3362995280932 2993.2475287023162
1976.003664725793 2973.8613917162943
1976.6708691642052 2482.9022238030743
1977.3379128826364 2811.957672980687
1978.004795920373 2942.1203179408326
1978.6715183166925 2733.5990172598563
1979.3380801108524 2524.831228653239
1980.0044813420973 2953.2268554463403
1980.6707220496555 2671.7173512754352
1981.3368022727373 2673.6748920889486
1982.0027220505417 3023.7170889218073
1982.66848142225 2500.1642814520587
1983.3340804270283 2561.648689809711
1983.999519104027 2918.074271262706
1984.6647974923835 3096.6376693921934
1985.329915631215 3041.4854600292606
1985.99487355963 2945.912199895857
1986.6596713167146 2962.7433138888164
1987.3243089415428 2765.934045537402
1987.9887864731754 3050.600873219567
1988.6531039506553 2602.1640393168773
1989.3172614130071 3133.559162214715
1989.9812588992481 2844.182680185209
1990.645096448372 2676.7549659130514
1991.3087740993633 2799.677450376561
1991.9722918911848 2704.96027249351
1992.635649862792 2732.8464646110406
1993.2988480531185 2871.520177926221
1993.9618865010852 3128.4640993720336
1994.6247652455968 2848.844510780809
1995.287484325545 2632.9484864382575
1995.9500437798033 2884.7576675415803
1996.6124436472292 2701.3268687807904
1997.2746839666706 2933.5392014653817
1997.936764776954 2892.068076628754
1998.598686116895 2771.565602958673
1999.2604480252903 3217.9994684062794
1999.9220505409212 2761.573925945152
2000.5834937025593 2582.598965555674
2001.2447775489582 2704.620657530003
2001.9059021188514 2903.927787781566
2002.5668674509616 2586.7925229854222
2003.2276735839987 2920.00510488417
2003.8883205566508 2902.459688385219
2004.5488084075987 2753.5710401705346
2005.2091371755014 2844.3810468058273
2005.8693068990033 2645.7204069020895
2006.5293176167397 2951.2709790478757
2007.1891693673224 2537.2512776237627
2007.848862189354 2511.74566038961
2008.5083961214223 2838.4996238457743
2009.1677712020955 2728.4215939676737
2009.8269874699254 2596.4012921712747
2010.4860449634598 2496.002804430853
2011.1449437212177 2395.488278760806
2011.8036837817108 2974.776122153152
2012.4622651834325 3060.736828024079
2013.1206879648653 2884.9888071037067
2013.7789521644736 3216.955128939958
2014.4370578207036 2715.0272236839037
2015.0950049719922 2594.877766715922
2015.7527936567585 2802.316948571032
2016.4104239134067 2887.750081050593
2017.067895780323 3213.4427090496843
2017.725209295886 3199.413105229542
2018.3823644984514 3185.266553896742
2019.0393614263648 2821.037578101574
2019.6962001179545 2538.7429382708633
2020.3528806115355 2867.007976456152
2021.0094029454067 2651.2062894707924
2021.6657671578487 2645.2459032213224
2022.321973287133 2767.694219745526
2022.9780213715148 2799.5821844571797
2023.6339114492293 2682.624915546143
2024.2896435585026 2662.1557252416774
2024.9452177375442 2690.1819626379756
2025.600634024544 3067.661209650716
2026.2558924576842 2799.7192711746065
2026.9109930751292 2859.7036400968227
2027.565935915025 2657.6889074879173
2028.2207210155066 3001.9518544745183
2028.8753484146964 2930.9279610409058
2029.529818150695 2439.2088626952086
2030.1841302615903 2731.0371557078824
2030.8382847854573 2562.5697225594085
2031.4922817603601 2734.6277921553356
2032.1461212243357 2725.0069234409452
2032.7998032154192 2461.710295647482
2033.4533277716218 2681.613272993416
2034.1066949309443 2565.440937327734
2034.7599047313688 2712.748975206422
2035.4129572108704 3050.517711268535
2036.0658524074006 2906.3414171721624
2036.7185903589016 2846.8436059547903
2037.3711711032956 2969.388377901395
2038.023594678496 2786.5479974417767
2038.675861122394 2560.541786361385
2039.3279704728757 2449.9393612234235
2039.9799227678031 2339.310166486978
2040.6317180450278 2494.1818288066092
2041.2833563423865 2577.3422279814395
2041.9348376977014 2778.5529749791503
2042.5861621487784 2718.5358465250574
2043.2373297334088 2769.639879705317
2043.8883404893695 2835.122401316145
2044.5391944544208 3148.4131350632247
2045.1898916663158 2888.505158878094
2045.8404321627804 3059.7234046852113
2046.4908159815368 2629.728967560323
2047.1410431602853 2479.010826420842
2047.7911137367173 2299.926980665946
2048.441027748504 2686.8509518733126
2049.090785233302 2634.2483198471555
2049.7403862287592 2653.3849007714225
2050.389830772503 2500.750210844152
2051.0391189021466 2348.042468943586
2051.688250655294 2657.300079447063
2052.337226069527 2629.650187637221
2052.986045182417 2877.93273929722
2053.634708031521 2296.6544515155306
2054.283214654375 2846.4469876449803
2054.931565088511 2450.63272879142
2055.579759371436 2421.151156383769
2056.2277975406523 2701.1849647400572
2056.8756796336384 2507.4972731484736
2057.5234056878617 2313.227408254937
2058.1709757407752 2567.937180637522
2058.8183898298194 2678.6443096078065
2059.465647992416 2872.9452959337896
2060.1127502659747 2829.154588093709
2060.759696687888 2439.6383577964953
2061.4064872955405 2856.96737966763
2062.053122126292 2920.8780878763073
2062.699601217497 2216.331826920413
2063.345924606485 2616.1227116291484
2063.992092330587 2682.797815501588
2064.638104427102 2540.827395894008
2065.283960933324 2830.2225275444257
2065.92966188653 2792.793220046967
2066.5752073239855 2840.5754583630624
2067.2205972829397 2482.5971841387855
2067.86583180062 2551.929714910311
2068.5109109142522 2498.475333792677
2069.15583466104 2644.200223593015
2069.8006030781708 2612.4058715840447
2070.445216202821 2622.7262260720163
2071.089674072153 2981.834415431933
2071.7339767233116 2659.317418995023
2072.3781241934303 2659.4055636569965
2073.0221165196253 2789.6767981744365
2073.6659537390024 2755.719024493182
2074.3096358886505 2876.0942530497096
2074.953163005637 2477.6287254271147
2075.596535127028 2555.8270699573595
2076.2397522898664 2355.9751175890574
2076.882814531182 2686.2693655095068
2077.5257218879924 2775.113902552156
2078.1684743973 2433.9161384637396
2078.8110720960885 2295.402025907037
2079.453515021336 3008.7983885174167
2080.095803209997 2719.7989459659884
2080.7379366990135 2648.830865999228
2081.37991552532 2454.638631138091
2082.0217397258275 2749.3345789113146
2082.6634093374414 2447.9127442435056
2083.3049243970418 2669.31784205695
2083.9462849415067 2629.476989754529
2084.587491007689 2695.9245038373238
2085.2285426324324 2701.4892710838603
2085.869439852564 2694.5074171508795
2086.510182704902 2352.2163747892196
2087.1507712262483 2621.6518304662404
2087.791205453381 2389.8792656667447
2088.4314854230743 2660.861929663596
2089.0716111720867 2588.776370699539
2089.7115827371617 2413.234804720766
2090.351400155023 2353.1310043593244
2090.991063462385 2293.039846149872
2091.6305726959527 2474.612251281126
2092.2699278924047 2838.5259120542064
2092.9091290884153 2576.636326230023
2093.548176320641 2463.779479616664
2094.187069625721 2607.9951178005076
2094.8258090402887 2355.618182171872
2095.464394600951 2507.0664918924745
2096.102826344313 2604.8773957850035
2096.741104306955 2927.290398224767
2097.379228525453 2288.4483877646635
2098.017199036358 2318.0727266220247
2098.6550158762147 2407.847323831854
2099.2926790815527 2497.793822453289
2099.9301886888825 2632.779108984249
2100.5675447347076 2563.455419197483
2101.2047472555114 3010.0578027753145
2101.841796287761 2599.709792508122
2102.47869186792 2575.204841957789
2103.1154340324265 2574.4256709594456
2103.752022817709 2376.324425767554
2104.388458260184 2643.1348954788873
2105.024740396251 2654.4083481383022
2105.660869262292 2315.0709601509325
2106.296844894685 2755.959503214674
2106.93266732978 2493.7746175473076
2107.5683366039284 2324.3938334579916
2108.2038527534532 2557.3238655440878
2108.8392158146726 2721.284536723751
2109.4744258238843 2507.264425944919
2110.1094828173755 2459.944359576326
2110.744386831422 2894.344796907906
2111.3791379022787 2554.4139130466037
2112.01373606619 2802.959912244797
2112.648181359389 2610.763836690314
2113.28247381809 2575.4219097419164
2113.916613478492 2491.396629823569
2114.550600376786 2629.1744139469583
2115.1844345491445 2615.2209129907214
2115.818116031729 2545.11520131444
2116.451644860679 2672.0070754735384
2117.085021072133 2458.8813221540668
2117.718244702204 2450.221862295763
2118.3513157869984 2525.6965715341817
2118.984234362604 2313.921616396831
2119.617000465092 2443.028961548404
2120.249614130529 2888.168287066811
2120.8820753949585 2524.079588004091
2121.5143842944162 2418.24223529889
2122.14654086492 2416.7157249388565
2122.7785451424734 2731.1816980440167
2123.4103971630702 2748.9628986521416
2124.042096962681 2767.087862468289
2124.6736445772767 2500.661616096098
2125.305040042802 2289.2132738911887
2125.936283395191 2350.4421879845136
2126.567374670365 2509.521676481948
2127.198313904233 2399.782598576517
2127.8291011326855 2373.2702730125598
2128.4597363916037 2346.420451568276
2129.0902197168507 2482.7470743583563
2129.720551144279 2174.8711572842185
2130.3507307097225 2731.7383725697073
2130.980758449008 2810.739551539402
2131.6106343979427 2309.988746924507
2132.2403585923203 2757.7746843303566
2132.8699310679276 2888.944124652836
2133.499351860526 2494.5476324281685
2134.1286210058715 2644.410540096067
2134.7577385397053 2329.5672009813156
2135.3867044977487 2595.980641829402
2136.0155189157176 2718.9695520106056
2136.644181829308 2769.6730424921207
2137.2726932742025 2420.8836047060513
2137.901053286074 2750.1463823697513
2138.5292619005777 2562.9466229446875
2139.1573191533535 2545.0961926336777
2139.7852250800315 2738.512910237807
2140.4129797162295 2584.976554962727
2141.0405830975433 2248.535885043878
2141.6680352595613 2201.498993693663
2142.2953362378576 2154.397029261928
2142.9224860679915 2339.6840902360723
2143.549484785508 2202.866430549926
2144.1763324259373 2727.800505023164
2144.803029024799 2502.312590065992
2145.429574617594 2269.9438357584263
2146.0559692398165 2240.7289674016138
2146.682212926942 2211.2839834263955
2147.308305714432 2371.6391434928382
2147.9342476377333 2567.669022020514
2148.5600387322847 2537.3557425191543
2149.185679033506 2663.6746845642015
2149.8111685768017 2390.2333057081587
2150.4365073975678 2495.3277637826695
2151.061695531187 2373.6951864408843
2151.686733013021 2593.1471885164074
2152.311619878423 2566.4053177482842
2152.9363561627342 2676.612888255005
2153.560941901278 2253.885455057353
2154.1853771293663 2609.9472321531725
2154.809661882293 2632.572425965163
2155.433796195348 2568.8206798687925
2156.0577801037944 2730.8540837336996
2156.681613642895 2679.3424707441072
2157.3052968478896 2469.423477637979
2157.928829754006 2451.029836610399
2158.552212396462 2526.667105799583
2159.1754448104566 2408.0933631744692
2159.7985270311783 2061.5628805741117
2160.4214590938027 1968.8242437097983
2161.0442410334927 2082.608099922568
2161.6668728853874 2089.5523802449084
2162.289354684628 2096.6030262585864
2162.911686466332 2341.7599406495583
2163.533868265602 2552.3542908605014
2164.1559001175337 2781.370043216936
2164.7777820572046 2718.7883406538404
2165.399514119681 2204.2438746385837
2166.021096340013 1992.8835036066769
2166.6425287532384 2175.200850868679
2167.263811394385 2357.944336123764
2167.8849442984574 2648.01879565993
2168.505927500455 2245.258067561598
2169.126761035366 2506.3158794083924
2169.7474449381552 2268.9552050145094
2170.367979243778 2079.572199845424
2170.9883639871823 2503.1163238676813
2171.608599203293 2349.0872844921996
2172.2286849270276 2874.0230284293752
2172.8486211932886 2946.27723246811
2173.4684080369625 2171.3714049486657
2174.0880454929265 2255.905173316411
2174.7075335960417 2279.8484367165065
2175.3268723811543 2704.5954717930836
2175.9460618831 2387.5437192222357
2176.565102136701 2293.8231577778506
2177.1839931767627 2241.7343208700236
2177.802735038078 2189.540019608453
2178.421327755432 2111.2432486581624
2179.0397713635866 2259.304299885848
2179.658065897298 2013.9372602257506
2180.276211391305 2413.2944018348253
2180.8942078803357 2161.9384512668007
2181.5120553991 2394.772868631081
2182.129753982299 2227.1458744045312
2182.7473036646206 2467.2438161677596
2183.3647044807367 2441.8488560174123
2183.9819564653044 2179.674402228032
2184.599059652968 2445.0362721497763
2185.216014078367 2634.1962663428276
2185.832819776113 2661.0276608274867
2186.4494767808137 2687.770488387543
2187.065985127063 2464.6217279754555
2187.682344849436 2335.6140165725724
2188.298555982501 2539.7405932581573
2188.9146185608097 2380.3426250984353
2189.530532618901 2459.67623055956
2190.1462981912937 2381.4635882316898
2190.761915312507 2485.501514346445
2191.377384017036 2543.5276056844436
2191.9927043393654 2439.5866466483035
2192.6078763139667 1960.3717129103848
2193.2228999753006 2047.0026541318814
2193.837775357808 2133.844513723826
2194.452502495922 2089.4971671971243
2195.0670814240602 2320.38350023938
2195.6815121766285 2340.552633873299
2196.2957947880186 2224.866727793982
2196.9099292926057 2108.9550292922613
2197.523915724758 2419.2097863388567
2198.137754118825 2248.296293451336
2198.7514445091456 2547.1219328084144
2199.3649869300443 2108.4592997296627
2199.9783814158327 2548.9262789623554
2200.5916280008096 2882.6433509736785
2201.2047267192593 2533.063717663239
2201.8176776054515 2429.4793551298053
2202.430480693649 2288.1711615180966
2203.0431360180955 2306.416765312618
2203.6556436130195 2566.9958563647083
2204.268003512645 2529.340974037999
2204.8802157511727 2491.6971861751467
2205.492280362796 2551.214753653729
2206.1041973816937 2360.3628665152914
2206.715966842032 2288.1170138965786
2207.3275887779655 1993.7019984536266
2207.93906322363 2283.1503746656763
2208.550390213153 2563.144625140164
2209.1615697806465 2290.9795233982013
2209.7726019602105 1953.083142388769
2210.3834867859277 1938.9141413675175
2210.9942242918787 2352.2972702945262
2211.6048145121167 2230.4799710603666
2212.2152574806914 3008.6849108017077
2212.825553231638 2266.2938508490543
2213.435701798975 3035.503996271685
2214.045703216707 2448.5316381861985
2214.655557518832 1991.417428277445
2215.2652647393297 1969.0950327839157
2215.874824912169 1728.4623064730845
2216.4842380713 2287.423082587345
2217.09350425067 2234.770188460466
2217.7026234842033 2143.599853505836
2218.311595805819 2444.3657128211767
2218.9204212494133 2026.0889578555264
2219.52909984888 2630.2259589400887
2220.137631638092 1824.4900594262767
2220.7460166509154 2435.1243177360348
2221.354254921198 2360.0273194586616
2221.9623464827764 2495.7007855061393
2222.5702913694713 2273.917261704465
2223.178089615096 2340.7363665473363
2223.7857412534486 1991.753791714879
2224.39324631831 2056.980910358642
2225.000604843457 2116.5091782392224
2225.607816862641 2320.357054404721
2226.214882409611 2457.974453872369
2226.8218015180973 2495.91269113545
2227.4285742218217 2310.9897319822862
2228.0352005544864 2496.147885531601
2228.6416805497847 2047.2258154658878
2229.248014241399 2190.2692259280257
2229.8542016629945 2349.4113849373603
2230.460242848223 2508.7671448583615
2231.0661378307304 2582.767692609572
2231.671886644139 2259.101784547909
2232.277489322065 2135.572833977153
2232.8829458981127 1774.9526618150062
2233.48825640587 2234.3293675033738
2234.0934208789095 2754.000018957833
2234.6984393507955 2683.01431828482
2235.3033118550793 2684.8826631462025
2235.9080384252975 2187.9678452367366
2236.5126190949723 2099.1403303189672
2237.1170538976166 1916.732301404317
2237.721342866729 2122.272827027405
2238.32548603579 2328.152924610229
2238.9294834382763 2319.781908182932
2239.533335107646 2022.6159590156487
2240.1370410773434 2180.425400906985
2240.740601380803 2338.474452669071
2241.3440160514474 2171.370170702299
2241.9472851226783 2192.2456521591475
2242.550408627896 2361.089080498019
2243.1533866004793 2530.254815587353
2243.756219073799 2237.6171325538094
2244.3589060812064 2062.530815295935
2244.961447656049 1966.9120306239063
2245.5638438316564 2070.7062679753158
2246.166094641343 2365.6030534640604
2246.7682001184166 2228.6963623319757
2247.3701602961664 2358.384940054647
2247.971975207871 2329.559117353533
2248.5736448867974 2413.512806018217
2249.175169366197 2295.3377804903175
2249.7765486793123 2225.921093516668
2250.3777828593684 2278.3486118304527
2250.9788719395783 2362.0005961664892
2251.579815953146 2338.2646264560053
2252.1806149332606 1896.560529224064
2252.781268913097 1967.9019856510163
2253.381777925817 1873.4688908950652
2253.9821420045737 2228.9144332253204
2254.5823611825035 2417.29572937562
2255.1824354927303 2109.0037440806236
2255.782364968365 2010.070926725942
2256.38214964251 1911.063812446854
2256.9817895482483 2096.989806037267
2257.5812847186553 2172.179012422731
2258.180635186791 1852.419180336035
2258.779840985704 2115.6324171035585
2259.37890214843 2305.6069047157966
2259.97781870799 2224.053840207227
2260.5765906973957 2142.3731772163783
2261.175218149645 2135.235426772866
2261.773701097718 1961.9059908427364
2262.3720395745895 2312.022151518718
2262.970233613216 2077.1431739732952
2263.568283246548 2059.081142572477
2264.1661885075137 1762.1068883759544
2264.763949429038 2005.9641234038213
2265.3615660440246 2297.167917490762
2265.959038385374 1963.2041478008136
2266.5563664859637 2153.044643883733
2267.153550378669 1900.7545562190248
2267.7505900963424 1935.832322700858
2268.3474856718312 1971.1085887061763
2268.9442371379664 2111.796338865514
2269.5408445275643 2037.6528052084643
2270.1373078734377 2250.684557173924
2270.7336272083758 2025.165322212179
2271.32980256516 2088.5598868514044
2271.925833976562 2159.6980255382073
2272.5217214753357 2488.7114403590267
2273.117465094223 2176.3164591585337
2273.7130648659586 1910.9387668195159
2274.308520823257 2054.3882338723342
2274.903832998827 2386.045411087661
2275.4990014253563 1927.3167851433595
2276.094026135528 2419.9467782609227
2276.6889071620117 2435.2947465708503
2277.2836445374614 2450.559632842361
2277.878238294519 2191.048915277882
2278.472688465812 2041.7503456806076
2279.066995083962 1892.1575320582583
2279.6611581815705 2133.9282148154716
2280.255177791232 2449.043244718396
2280.8490539455233 2097.612888470774
2281.442786677013 2394.0034756598866
2282.0363760182554 2295.070596458457
2282.6298220017943 2164.9544321078574
2283.223124660155 2199.9856132358227
2283.816284025859 2088.4803237456845
2284.4093001314086 1881.4792706756357
2285.002173009292 2356.205527684351
2285.5949026919952 2194.5008507556663
2286.1874892119777 2091.9630142914966
2286.7799326016993 2136.683090308585
2287.3722328936 1753.873397912733
2287.964390120109 1922.3565377728232
2288.556404313642 2320.9162573269014
2289.1482755066027 2201.535318413043
2289.7400037313873 2081.8613743816577
2290.3315890203703 2061.3979187968057
2290.9230314059205 2443.7518609225563
2291.5143309203904 2189.6423794839607
2292.1054875961236 1838.6772136000177
2292.6965014654506 2290.224293008312
2293.287372560684 2200.5489134449836
2293.878100914131 2100.4897203241844
2294.468686558086 2000.2844779064762
2295.059129524827 2018.3969409147437
2295.649429846617 2546.087073651601
2296.239587555716 2355.9246202606364
2296.8296026843636 2201.9419580264944
2297.419475264791 2192.07981733684
2298.0092053292137 2182.063277053919
2298.598792909839 2188.689824425798
2299.1882380388597 2121.5266893942576
2299.777540748455 2261.626679658927
2300.3667010707904 2401.7706097482014
2300.9557190380256 2298.8961283700924
2301.544594682302 2577.849130514496
2302.1333280357503 2418.6105060667933
2302.721919130485 2259.2434257309897
2303.3103679986198 2437.4883890096858
2303.898674672242 2421.5049675791847
2304.486839183437 1826.0535514182181
2305.0748615642697 2404.8306134937607
2305.6627418468015 1852.270040901197
2306.2504800630704 2145.092887609906
2306.8380762451143 2031.10544407194
2307.425530424949 2056.9180375835917
2308.012842634582 2082.773855010473
2308.6000129060103 2494.075475878225
2309.187041271214 2682.1252737304635
2309.773927762164 2075.3008558793335
2310.3606724108213 2263.403759057276
2310.9472752491274 2146.3146865385143
2311.5337363090184 2028.9840730386481
2312.120055622414 2258.696670440893
2312.706233221221 1664.2003683428072
2313.2922691373424 1849.7746011010136
2313.8781634026564 2331.0781534839816
2314.463916049037 2049.7534406650834
2315.049527108342 2043.9904668810177
2315.6349966124235 2243.9759086317395
2316.2203245931123 2013.3447106685114
2316.8055110822315 1782.1310243185485
2317.3905561115935 1908.0325602515045
2317.9754597129977 1905.1959609860437
2318.560221918229 2289.8165678768173
2319.1448427590603 2154.8548990547765
2319.729322267256 1659.5225531226654
2320.313660474563 2105.246986748662
2320.8978574127195 1979.8607943990432
2321.481913113452 1854.2416110418385
2322.0658276084705 1618.2387353099336
2322.6496009294806 2083.330136757461
2323.233233108165 2539.715330212097
2323.8167241762058 2422.6529965453524
2324.4000741652617 2139.064648588079
2324.983283106987 2471.114832066959
2325.5663510330232 2499.3242898281055
2326.1492779749933 2202.3289400641784
2326.7320639645204 2039.2790687193271
2327.3147090332004 1845.3079956916868
2327.897213212629 1888.8507608887387
2328.4795765343843 1932.309591058024
2329.0617990300307 1972.374438898103
2329.643880731124 2332.1645070016466
2330.22582166921 2149.274335497153
2330.807621875816 2216.9432022010606
2331.3892813824623 1896.725902009246
2331.9708002206517 1784.782235894853
2332.5521784218818 1863.8093622733136
2333.133416017634 1943.0803735898091
2333.7145130393765 2018.313330741555
2334.295469518571 2107.3790334631385
2334.876285486658 2305.8197021713813
2335.456960975076 2196.5355491201526
2336.037496015242 2087.0451619591613
2336.6178906385667 1902.9027784367292
2337.198144876451 2136.426274037986
2337.778258760278 1785.5745938493953
2338.3582323214214 2046.9917922585216
2338.938065591243 2308.965196894069
2339.517758601087 2280.5673469699204
2340.0973113822965 2264.077502924559
2340.676723966193 1854.188750617364
2341.255996384094 2025.302955818579
2341.835128667295 2440.463195937572
2342.4141208470883 2055.376979255091
2342.992972954751 2041.8875919319573
2343.5716850215467 2134.1074374998384
2344.1502570787306 1530.5402664450298
2344.7286891575386 1809.8980027658422
2345.3069812892045 2362.594544310653
2345.885133504944 2360.99489193032
2346.4631458359618 1850.7896388772438
2347.04101831345 2040.1905548711384
2347.6187509685915 2137.3519785202957
2348.196343832553 2030.4857651060072
2348.7737969364935 1960.1514133892808
2349.351110311558 2062.6890187138606
2349.9282839888765 1894.5102445156874
2350.5053179995757 1957.0617476515097
2351.0822123747585 1795.75739545734
2351.658967145526 1778.8196957218704
2352.2355823429643 1761.9575018192008
2352.812057998144 2212.848320275353
2353.3883941421263 1710.8583225864545
2353.9645908059647 2183.872630397408
2354.540648020693 2047.133810907042
2355.116565817336 2000.023799759097
2355.6923442269126 1991.646057902987
2356.2679832804224 1773.0691875529017
2356.8434830088518 1759.0592209915922
2357.41884344318 2047.5898126021402
2357.994064614377 1893.715441615252
