#exp_cfg={"servo_angle": 0.0, "laser_lim": 100.0, "servo_angle_to": 18.0, "laser_wup": 0.0, "bt_dev": "EnSpectr-25AE3", "laser_wdn_max": 0.0, "frames": 10.0, "servo_used": 0, "servo_calib_use": 0, "laser_wdn_min": 0.0, "servo_pix_from": 90.0, "cooler_tout": 300.0, "servo_angle_from": 0.0, "servo_calib": "[-1.9174921013161362e-09, 3.9322238269163779e-05, -0.27385609119055809, 653.59552119713567]", "laser_autoctl": 0, "servo_pix_to": 3682.0, "laser_pw": 100.0, "cooler_on": 0, "laser_volt": 4.0, "cooler_autoctl": 0, "cooler_curr": 70.0, "cooler_startup": 10.0, "laser_fixed_pw": 0, "gain": 1.3, "offset": 2.53059635486, "servo_calib_degree": 3.0, "laser_curr": 55.0, "shutter": 8200.0, "servo_calib_step": 1.0, "laser_fixed_curr": 0, "exp": 2000.0, "ccd_volt": 4.7, "bt_addr": "00:06:66:62:5A:E3", "servo_delay": 500.0, "laser_autooff": 1}
#proc_cfg={"flat_auto_wnd": 200.0, "flat_auto_fr": 200.0, "flat_auto_shift": 5.0, "yconv": 1, "flatten": 1, "flatten_strength": 100.0, "xfrom": 300.0, "auto_max_frame": 2000.0, "auto_signal": 48000.0, "flat_auto_tol": 0.1, "autoclip": 1, "xrel_range": 0.0, "flat_auto_to": 4000.0, "intensity_adj": 1.0, "xrel": 7852.0, "rmhot": 1, "flat_auto_slit": 4.999999999999997, "auto_ini_exp": 300.0, "auto_off": 0, "xto": 2860.0, "flat_auto_ref": "", "flat_auto_rank": 1, "autobackg": 0, "xrel_adj": 0.0, "auto_black_lvl": 1, "base_wnd": 100.0, "sub_baseline": 0, "xconv": 2, "auto_max_exp": 1000.0, "auto_total_exp": 10000.0, "auto_exp": 0, "rmripple": 0, "black_lvl": 8279.4125, "shutter_clip_adj": 0.0, "auto_bckg": 0, "flat_auto_thr": 0.9, "subbackg": 1}
316.8218498245369 14718.820802696548
317.89969571804795 14651.200370307812
318.977263876126 14611.407454113165
320.05455438786703 14419.215871182469
321.1315673423287 14429.94217920755
322.2083028285215 14500.83896576853
323.2847609354267 14369.458669209514
324.3609417519747 14336.638861268735
325.43684536705587 14291.008845038808
326.5124718695279 14133.7416337664
327.58782134820103 14304.69192840191
328.66289389184385 14346.285917980542
329.7376895891921 14076.18853198588
330.8122085289342 14255.045584987467
331.88645079971866 14171.43593941539
332.9604164901575 14008.19252639649
334.03410568881554 14043.095093078382
335.1075184842266 14219.163285060577
336.18065496487543 13990.128012046804
337.2535152192122 13970.130432145277
338.32609933564163 14119.309496374437
339.39840740253203 14014.749679751989
340.4704395082099 13974.887257390834
341.5421957409617 13936.093751950011
342.6136761890357 14015.022088647562
343.6848809406365 13923.205442659772
344.75581008392874 13813.88344975551
345.82646370703696 13842.977163379986
346.8968418980512 13733.293962362663
347.96694474501055 13919.180238492374
349.0367723359268 13744.773509407096
350.106324758759 13765.177738204831
351.1756021014353 13624.646879626682
352.2446044518383 13676.079481530393
353.31333189781435 13785.995575539122
354.38178452716966 13606.981682051128
355.449962427665 13629.346670533312
356.51786568702846 13653.047978216211
357.58549439294256 13750.548320618866
358.6528486330535 13789.45633263998
359.71992849496564 13696.039659158787
360.7867340662433 13622.03796577064
361.8532654344144 13581.025130718626
362.9195226869597 13801.99152103902
363.9855059113288 13517.344989455387
365.05121519492604 13531.747952866755
366.11665062511565 13608.779784081582
367.1818122892273 13592.822577451454
368.2467002745434 13515.542328355112
369.31131466831175 13558.227507248273
370.375655557742 13518.54067643692
371.4397230299983 13515.653058113376
372.5035171722102 13498.141394707767
373.5670380714637 13534.98935890957
374.6302858148101 13592.816321468752
375.6932604892554 13565.744346893514
376.7559621817709 13503.85755912007
377.81839097928605 13449.853512680618
378.8805469686886 13471.704285300008
379.94243023683157 13404.214410858645
381.0040408705263 13435.809549431997
382.0653789565458 13377.43938899341
383.1264445816196 13429.867010256621
384.1872378324406 13385.119287268684
385.2477587956637 13457.233132519608
386.3080075579037 13379.512299199157
387.3679842057336 13269.409952540165
388.4276888256918 13368.235530861162
389.48712150426945 13383.75213150403
390.54628232792857 13291.870248946429
391.6051713830857 13274.607640952188
392.66378875611736 13311.361819412374
393.7221345333637 13312.841916187303
394.7802088011249 13258.717137664731
395.838011645661 13196.560668479575
396.89554315319765 13130.895356784207
397.9528034099112 13148.649278992296
399.00979250194723 13075.496741014493
400.06651051541485 13070.728482017152
401.1229575363741 13033.055650306109
402.17913365085224 12979.921240197473
403.23503894483656 13162.70053755895
404.2906735042761 12976.490227038725
405.3460374150818 12918.432949757496
406.401130763119 12941.087956708438
407.455953634224 12950.357921100955
408.5105061141876 12875.518371753824
409.56478828876243 12684.308563120663
410.6188002436629 12752.244285442173
411.6725420645689 12820.967447615969
412.72601383711117 12772.057441003564
413.77921564689314 12886.715232648065
414.8321475794728 12707.530475764124
415.88480972036814 12726.893319021869
416.93720215506437 12688.829294381545
417.9893249690049 12705.07086364691
419.04117824759123 12587.411313067809
420.09276207619223 12578.708432572044
421.144076540133 12527.058079515611
422.1951217247042 12521.549716678495
423.24589771515275 12455.993008685316
424.2964045966928 12385.34160446555
425.34664245449494 12447.125761538442
426.3966113736933 12406.507244050832
427.4463114393875 12415.742811004238
428.49574273662984 12387.79898519781
429.5449053504417 12353.169650764972
430.5937993658026 12340.953560788768
431.6424248676558 12196.7392889328
432.6907819409007 12267.991946585369
433.73887067040596 12256.461669322416
434.7866911409965 12336.797628967324
435.8342434374608 12175.286012050043
436.88152764455117 12212.723218106328
437.9285438469724 12168.97673204209
438.9752921294057 12159.485098218876
440.02177257648145 12098.472713004074
441.06798527279716 12074.319577341575
442.1139303029122 12107.630760683407
443.1596077513459 12157.961288740365
444.2050177025794 12111.14121772656
445.25016024105753 12139.274169622657
446.2950354511886 12080.268783686088
447.33964341733736 12182.117187183681
448.383984223834 12131.49893519824
449.4280579549686 11995.553335168868
450.471864694995 12122.817436333216
451.5154045281306 12233.576809824199
452.5586775385509 12055.43180396486
453.60168381039693 12054.762496553187
454.64442342776783 12146.168760939685
455.6868964747264 12082.104077282274
456.7291030353008 12004.078833003721
457.77104319347563 12105.941145805451
458.8127170332027 12045.797715525201
459.854124638392 12015.852878822969
460.895266092919 12097.117745459862
461.93614148061897 12034.858080509035
462.97675088529104 12121.30645439542
464.01709439069236 12035.456093335868
465.0571720805492 11989.679567725261
466.0969840385442 12114.033602043095
467.1365303483253 12180.785931288898
468.17581109350067 12014.14325686292
469.2148263576437 11986.800987992021
470.2535762242878 12093.10752868986
471.29206077693016 12148.835947654672
472.33028009902773 12214.67468770986
473.3682342740012 12167.512125278632
474.40592338523857 12155.177679112263
475.4433475160804 12181.827591355834
476.4805067498364 12231.82013923592
477.51740116978 12216.554832344078
478.5540308591426 12293.210799399654
479.59039590112116 12357.952170493303
480.6264963788726 12296.545270353698
481.6623323755193 12424.759196379337
482.6979039741436 12451.787692933502
483.7332112577915 12526.529311876106
484.76825430947247 12676.704567072577
485.80303321215797 12661.36454006304
486.837548048783 12695.711492080136
487.8717989022425 12819.53329794719
488.90578585539697 12899.807238212406
489.9395089910686 12942.834156505796
490.97296839203955 12799.09851954825
492.00616414106116 12698.27430574966
493.0390963208429 12686.4830013325
494.0717650140559 12754.764419774732
495.10417030333883 12659.093095862667
496.1363122712901 12663.040279282824
497.16819100046814 12529.350459362411
498.1998065734024 12497.950143264965
499.2311590725767 12379.370212057216
500.26224858044407 12324.58218474848
501.2930751794156 12275.37953309143
502.3236389518679 12306.418160935029
503.35393998014115 12020.633185193878
504.38397834653733 12050.162578195192
505.4137541333221 12114.552007781233
506.4432674227228 11940.851558753511
507.4725182969323 11935.841250996045
508.5015068381035 11969.04326936602
509.53023312835467 11960.875694162329
510.55869724976765 11846.612975150918
511.58689928438434 11780.571988443433
512.6148393142121 11680.950159333366
513.6425174212218 11770.663201687978
514.6699336873462 11766.225283215466
515.6970881944835 11821.106527904743
516.7239810244901 11721.809978940324
517.7506122591931 11767.914687989294
518.7769819803761 11822.896378668007
519.8030902697901 11889.053271466266
520.8289372091476 11868.855414528069
521.8545228801249 11997.602555565538
522.8798473643619 11844.447182505637
523.9049107434621 11857.872149029212
524.9297130989908 11835.532073938328
525.9542545124805 11885.308082245621
526.9785350654201 11812.435274343197
528.0025548392696 11829.242899482082
529.0263139154504 11835.43975399435
530.0498123753423 11928.490838775286
531.073050300296 11767.562795726219
532.0960277716204 11849.330372005332
533.1187448705896 11729.27299771618
534.1412016784416 11816.73813853406
535.1633982763833 11663.90417241225
536.1853347455726 11612.742920326771
537.2070111671401 11635.152999267544
538.2284276221817 11577.32475651996
539.2495841917516 11436.305858961165
540.2704809568677 11412.431451679371
541.2911179985167 11428.807097599716
542.3114953976419 11331.084279527824
543.3316132351592 11274.756819323418
544.3514715919409 11190.058719991099
545.3710705488247 11291.869489810613
546.3904101866156 11170.703485720693
547.4094905860784 11289.40073945105
548.4283118279418 11180.179807535575
549.4468739929034 11248.018108827651
550.4651771616191 11144.092529543725
551.4832214147063 11124.683977314031
552.501006832761 11160.485496645213
553.5185334963226 11164.88041789544
554.5358014859103 11115.95495190557
555.5528108820035 11109.10072301804
556.5695617650363 10911.393200960249
557.5860542154242 11068.981194156016
558.6022883135283 11004.132936844715
559.6182641396881 10938.163740399115
560.6339817741991 11079.714753417238
561.6494412973225 11036.079717063376
562.6646427892883 11003.08272871885
563.6795863302796 10890.532817054918
564.694272000459 10960.247050684779
565.7086998799423 10968.844826187604
566.7228700488104 10947.879566187074
567.7367825871115 10895.632647487671
568.7504375748576 10844.43977268072
569.7638350920224 10933.556814444752
570.7769752185486 10919.874935706972
571.7898580343353 10902.890666756783
572.802483619258 10862.760522852073
573.8148520531431 10960.635088742372
574.8269634157932 11023.686297894948
575.8388177869692 10956.717929423816
576.8504152463938 10967.034366820155
577.8617558737587 11100.368809372125
578.8728397487175 10991.513528218597
579.883666950891 11107.270746569817
580.8942375598654 11134.3691543098
581.9045516551851 11207.686297532791
582.9146093163617 11266.804907955579
583.924410622878 11183.268080691812
584.9339556541727 11227.946191323663
585.9432444896538 11392.579199639858
586.9522772086875 11272.717010443863
587.9610538906127 11285.110149267668
588.9695746147318 11234.284213671106
589.9778394603054 11299.913087922872
590.985848506567 11321.100749301182
591.9936018327098 11249.971411182649
593.0010995178891 11069.922898945779
594.0083416412344 11178.469364826626
595.0153282818283 11070.403973318409
596.0220595187293 11132.91841071445
597.0285354309508 11045.14668295032
598.0347560974806 11009.881170548471
599.0407215972609 11008.608275225346
600.0464320092051 10911.613061311245
601.0518874121954 11066.732183770731
602.0570878850685 10961.905428657348
603.062033506636 11084.404173577957
604.0667243556636 10914.721172708825
605.0711605108936 10901.488315293918
606.0753420510264 11169.207801819906
607.0792690547278 11031.76834639237
608.082941600629 10923.486528172936
609.0863597673306 10885.507613325095
610.0895236333909 11038.184647757731
611.0924332773357 11143.31775999111
612.0950887776617 11140.579926359082
613.0974902128219 11073.795918935904
614.0996376612384 11372.827791785608
615.1015312013005 11371.089111237696
616.1031709113595 11308.526620207605
617.1045568697336 11335.0948714617
618.1056891547069 11426.236177867751
619.1065678445229 11510.378217421432
620.1071930173985 11748.359069003176
621.1075647515099 11631.697488888769
622.1076831250048 11753.55572430994
623.1075482159849 11909.612535655151
624.1071601025305 11887.804715611752
625.1065188626781 12060.930890573418
626.105624574433 12254.125786748951
627.1044773157682 12330.043518343946
628.1030771646128 12315.420556858922
629.1014241988742 12442.277959133144
630.0995184964158 12535.985573432916
631.0973601350688 12558.366694340662
632.0949491926294 12698.969267624114
633.0922857468631 12422.954359534226
634.089369875499 12633.840762305304
635.0862016562278 12528.967064455603
636.0827811667077 12340.12662791274
637.0791084845641 12342.216197373398
638.0751836873878 12143.089517477636
639.0710068527369 12209.391702733144
640.0665780581294 11991.186511137836
641.0618973810506 12052.3494891408
642.0569648989604 11883.730382585056
643.0517806892676 11734.379287448257
644.0463448293649 11652.10428684999
645.040657396592 11557.034533664182
646.0347184682723 11447.004452113753
647.0285281216875 11374.78995764669
648.0220864340772 11282.781094544207
649.0153934826558 11259.637491376152
650.0084493446047 11145.450688023408
651.0012540970674 11213.488606628696
651.9938078171526 11074.42847093814
652.9861105819346 10937.124794975693
653.9781624684565 11042.970582973709
654.9699635537254 10855.384264599325
655.9615139147136 10912.249357387427
656.9528136283589 10855.132775044955
657.9438627715699 10883.96695589164
658.9346614212154 10886.378583049978
659.925209654135 10661.44567291918
660.9155075471263 10723.544647444014
661.9055551769616 10789.26621085604
662.895352620375 11037.579622426976
663.8848999540678 10792.63051354749
664.8741972547068 10756.804405035535
665.863244598926 10759.607558845744
666.8520420633213 10953.858474770257
667.8405897244611 10901.632062076835
668.8288876588758 10997.6935092758
669.8169359430613 11186.50346497184
670.8047346534822 11202.554351798586
671.7922838665672 11147.662891315775
672.7795836587156 11159.898066651102
673.766634106285 11165.240050804556
674.7534352856092 10874.443089604583
675.7399872729766 10872.711795048399
676.7262901446538 10818.276030662975
677.712343976862 10703.905762138254
678.6981488457986 10687.909656664842
679.6837048276229 10551.207229904507
680.6690119984596 10605.924617839348
681.6540704344043 10540.797893272305
682.6388802115107 10405.607021092119
683.6234414058108 10466.702795315034
684.6077540932874 10303.955309553257
685.591818349907 10394.706973328832
686.575634251587 10296.767350665279
687.5592018742263 10309.402347473162
688.5425212936734 10209.34259547134
689.5255925857564 10367.434289614557
690.5084158262707 10228.960024249047
691.4909910909646 10229.983256992597
692.4733184555644 10132.51336743275
693.4553979957618 10155.103626074068
694.4372297872123 10177.195692949743
695.4188139055404 10113.579986871984
696.4001504263324 10009.4851822565
697.3812394251509 10158.797709783792
698.3620809775111 10042.027143382353
699.3426751589104 10128.73974160789
700.3230220448004 9975.915585960309
701.3031217106054 10022.943235091865
702.2829742317172 10146.423004542843
703.2625796834873 10015.778405912413
704.2419381412474 9943.242204558748
705.22104968028 10051.787329396826
706.1999143758458 9973.151418512503
707.178532303169 9965.521483043287
708.1569035374378 10034.525835131413
709.1350281538107 10081.328583999026
710.1129062274158 10056.19962880052
711.0905378333373 10141.755917899593
712.0679230466376 10037.791707949038
713.0450619423427 10190.6858748072
714.0219545954424 10204.883278803507
714.9986010808989 10046.09152881287
715.9750014736292 10081.20908519596
716.9511558485392 10153.563501153341
717.9270642804786 10185.324530488682
718.9027268442787 10157.915746188839
719.8781436147328 10135.162929163444
720.8533146666014 10067.571550147906
721.828240074612 10092.70267358521
722.8029199134635 9985.9559702544
723.7773542578125 10014.92939875387
724.751543182294 9949.534459782735
725.7254867615029 10032.189402556334
726.6991850700015 9842.143943967823
727.6726381823228 9915.359445853956
728.6458461729599 9950.772794295095
729.6188091163858 9962.732570968034
730.5915270870246 9922.29332073696
731.5640001592856 9827.908912030525
732.536228407529 9955.534048500125
733.5082119060917 9931.501839902823
734.4799507292755 9831.785113850146
735.4514449513481 9830.165318193467
736.4226946465496 9871.282423310438
737.3936998890786 9971.738659405502
738.3644607531078 9776.48716503026
739.3349773127793 9848.721321526504
740.3052496421951 9934.041882919693
741.27527781543 9747.505578264934
742.2450619065221 9768.960537335499
743.2146019894826 9778.160993981764
744.183898138288 9797.881231155332
745.1529504268801 9716.439629467048
746.1217589291682 9662.124638828844
747.0903237190341 9703.246491619826
748.058644870318 9704.872989598201
749.0267224568397 9707.489010100204
749.994556552374 9524.223091888882
750.9621472306771 9675.62308722263
751.9294945654583 9685.553763470465
752.8965986304011 9675.762721492882
753.8634594991636 9538.876236057327
754.8300772453586 9641.482844108144
755.7964519425768 9637.50801204117
756.762583664371 9614.869480220523
757.7284724842611 9602.343827905055
758.6941184757416 9598.78782583636
759.6595217122667 9524.364852904164
760.6246822672638 9537.063686269317
761.5896002141235 9435.92232008201
762.5542756262093 9510.503448175517
763.5187085768503 9589.557751603641
764.4828991393406 9573.053156563425
765.4468473869474 9554.59658127771
766.4105533929032 9558.494118541163
767.3740172304078 9444.642853866902
768.3372389726283 9598.137772453945
769.3002186926988 9384.443526530948
770.2629564637282 9403.037434899195
771.2254523587872 9428.651247719448
772.1877064509154 9325.832548806975
773.1497188131179 9267.187572829574
774.1114895183728 9249.969110397262
775.0730186396268 9270.525676835958
776.0343062497905 9290.940546321266
776.9953524217381 9119.79795298341
777.9561572283274 9222.906849009838
778.9167207423689 9242.982989590982
779.8770430366476 9178.817885855115
780.8371241839159 9173.514794889445
781.7969642568951 9165.668788118513
782.7565633282757 9405.99900777853
783.7159214707099 9119.335529566133
784.6750387568281 9127.563209748156
785.6339152592227 9147.1940939263
786.5925510504512 9136.979327622104
787.5509462030477 9221.351463410208
788.5091007895098 9167.906786707594
789.4670148823006 9244.62871024047
790.4246885538596 9138.552033913236
791.3821218765861 9145.728610872387
792.3393149228505 9124.02588443758
793.2962677649975 9216.727284913952
794.2529804753303 9243.996554751091
795.20945312613 9340.623359603915
796.1656857896378 9206.50371144235
797.1216785380675 9273.79745126405
798.0774314435985 9328.677236634865
799.0329445783846 9412.839918105
799.9882180145414 9421.53530235481
800.9432518241574 9465.07407368691
801.89804607929 9561.982618514663
802.852600851962 9645.538286593588
803.8069162141637 9547.04976875722
804.760992237856 9697.55499330402
805.714828994971 9715.563012760149
806.6684265574077 9815.931971033853
807.6217849970271 9731.201946465926
808.574904385674 9695.97595935313
809.527784795142 9779.893404121947
810.4804262972102 9893.093297300995
811.4328289636178 9631.344305038654
812.3849928660748 9521.517884648525
813.3369180762638 9511.544733595772
814.2886046658241 9505.799988079329
815.2400527063783 9384.282963500555
816.1912622695108 9282.088488753356
817.1422334267718 9348.820302400169
818.0929662496856 9131.390752608473
819.0434608097457 9040.69762863554
819.9937171784059 9060.588158019937
820.9437354271013 8940.455565024935
821.8935156272255 9035.449730455948
822.8430578501484 8876.335048321065
823.7923621672016 8787.976393507046
824.7414286496896 8844.899984658921
825.6902573688876 8842.148235366438
826.6388483960363 8811.247546430592
827.5872018023492 8792.886507780186
828.5353176590033 8836.296784070011
829.4831960371503 8745.352766858794
830.4308370079016 8736.371851685997
831.3782406423525 8789.102708042465
832.3254070115545 8730.142963764572
833.2723361865319 8666.037466537535
834.2190282382799 8626.463935880978
835.1654832377644 8724.04407167246
836.1117012559116 8591.144600665566
837.0576823636256 8768.024114350821
838.003426631778 8619.693658423192
838.9489341312074 8552.010887201115
839.8942049327197 8658.524211022897
840.8392391070975 8754.498104366929
841.7840367250865 8602.425191063776
842.7285978573982 8596.313934256821
843.672922574724 8652.130317329249
844.6170109477152 8580.454843639283
845.560863046996 8561.527847822037
846.5044789431595 8639.200466437967
847.4478587067697 8609.614048871581
848.3910024083561 8774.180893803965
849.333910118421 8664.32623206033
850.2765819074339 8546.419188816453
851.2190178458332 8722.513325194677
852.161218004032 8730.699237709236
853.1031824524016 8721.679332374853
854.0449112612987 8637.40486883568
854.9864045010327 8665.80422105821
855.9276622418947 8650.899789405861
856.8686845541379 8610.136018469268
857.8094715079915 8542.53430764074
858.7500231736467 8712.259503542942
859.690339621271 8652.289954588403
860.6304209209939 8626.00453408419
861.5702671429244 8554.070694166734
862.5098783571284 8584.732718227748
863.4492546336569 8672.190244754192
864.3883960425155 8513.191580484116
865.3273026536863 8592.850833453638
866.2659745371238 8603.206386113676
867.2044117627465 8779.051355569996
868.1426144004472 8555.286142469087
869.0805825200823 8674.942298776059
870.0183161914847 8675.254149348022
870.9558154844526 8913.178220745845
871.8930804687552 8825.546740562075
872.8301112141307 8734.89751359358
873.7669077902865 8880.809636600643
874.7034702669062 8973.486261924052
875.6397987136315 8884.052594146577
876.5758932000863 8943.759330359258
877.5117537958522 9017.713701716933
878.4473805704911 8966.665098178653
879.3827735935283 8943.63056077632
880.3179329344603 9014.944985890963
881.2528586627541 9014.135421700661
882.1875508478479 9084.640740327963
883.1220095591489 9013.535386078867
884.0562348660296 8980.124807065302
884.9902268378391 9132.026979301736
885.9239855438955 9042.505729973578
886.8575110534839 8842.622954513708
887.7908034358588 8909.92415886766
888.7238627602474 8872.367172697446
889.6566890958475 8848.946416529783
890.5892825118208 8692.980440025956
891.5216430773125 8845.725984084069
892.4537708614189 8754.943944376597
893.3856659332196 8611.137498151586
894.3173283617652 8557.439144386764
895.2487582160684 8660.596782161363
896.179955565116 8632.887769426474
897.110920477864 8506.07109940205
898.0416530232451 8511.443566777303
898.9721532701478 8466.120522791794
899.9024212874428 8584.730941530346
900.8324571439662 8416.53674714818
901.7622609085302 8276.914665024258
902.6918326499072 8276.316213097596
903.6211724368477 8400.534693869218
904.5502803380696 8297.187419437558
905.4791564222614 8445.932537779712
906.4078007580792 8268.780802964322
907.3362134141571 8330.522244948865
908.2643944590909 8356.4595775743
909.1923439614493 8209.144398796412
910.1200619897754 8200.37812586596
911.0475486125779 8429.724131710504
911.9748038983344 8193.683920907137
912.9018279155007 8277.274173854614
913.8286207324982 8114.289572429591
914.7551824177117 8201.678739596162
915.6815130395116 8189.888496744041
916.6076126662283 8174.383209835623
917.533481366163 8250.4890939646
918.4591192075914 8220.161101047615
919.3845262587565 8311.973771012055
920.3097025878706 8201.606386663107
921.2346482631237 8189.437197287075
922.1593633526682 8145.527461199071
923.0838479246304 8256.919199553413
924.0081020471061 8270.933391406099
924.9321257881656 8074.743246940928
925.8559192158464 8194.017820119807
926.7794823981512 8132.909065193409
927.7028154030686 8041.724477037945
928.6259182985414 8072.685027482234
929.5487911524906 8307.682381932711
930.4714340328119 8207.473724257503
931.3938470073608 8046.50391225302
932.3160301439748 8172.9314766784955
933.2379835104548 8217.54088966564
934.1597071745709 8329.368490540113
935.0812012040769 8221.399834963388
936.002465666681 8218.310130409473
936.9235006300696 8285.870240499446
937.8443061619055 8272.84291369437
938.7648823298077 8144.87177063985
939.6852292013809 8186.461113917669
940.6053468441951 8256.761844818287
941.5252353257874 8102.9877552402195
942.4448947136698 8233.122124107338
943.364325075323 8160.910483430909
944.2835264782043 8165.232366568811
945.2024989897309 8222.621426631298
946.1212426773054 8215.206495900937
947.0397576082851 8252.717543041388
947.9580438500125 8282.442691870952
948.8761014697939 8330.587965230596
949.7939305349064 8320.319825801875
950.7115311125999 8201.125237739521
951.6289032700952 8151.089905147496
952.5460470745875 8276.400987730229
953.4629625932339 8110.698924586836
954.3796498931715 8346.495621149521
955.2961090415029 8211.501657870085
956.2123401053068 8201.421842564398
957.1283431516276 8192.110925880588
958.0441182474842 8101.432649711665
958.9596654598663 8223.12642610501
959.8749848557309 8204.293397057938
960.7900765020167 8132.635395658306
961.7049404656209 8076.0016415080345
962.6195768134185 8162.331416116967
963.5339856122537 8150.760201595876
964.4481669289453 8241.514251371706
965.3621208302793 8156.423450610656
966.2758473830145 8085.350964922638
967.1893466538822 8272.88957607518
968.1026187095813 8110.311435906051
969.0156636167867 8191.559825406478
969.9284814421426 8192.286939250145
970.8410722522622 8166.730626404063
971.753436113735 8163.167815096116
972.6655730931161 8184.392662687496
973.5774832569368 8271.280258968083
974.4891666716958 8160.669931460727
975.4006234038698 8151.358647116705
976.3118535198955 8080.903750669755
977.2228570861935 8259.294533393962
978.1336341691494 8232.718195839105
979.0441848351202 8164.437656064339
979.9545091504333 8341.27819044629
980.864607181391 8360.819856211061
981.7744789942699 8362.504746874507
982.6841246553086 8394.83813448618
983.5935442307236 8379.403474693227
984.5027377867027 8468.911632335004
985.4117053894024 8498.682914859854
986.3204471049557 8395.946140376765
987.2289629994648 8445.942973027442
988.1372531390007 8559.742356911715
989.0453175896091 8484.410500932616
989.9531564173067 8403.52056431391
990.860769688079 8425.07627092796
991.7681574678918 8510.012187476563
992.6753198226706 8560.898751010549
993.582256818323 8496.265823828686
994.4889685207218 8506.964491805258
995.3954549957143 8677.84657298751
996.301716309119 8624.988205888894
997.2077525267232 8614.393279217971
998.1135637142943 8424.203458327387
999.0191499375615 8536.117961772672
999.924511262232 8545.270510633696
1000.8296477539861 8560.581411751959
1001.7345594784656 8394.449384613874
1002.6392465012996 8403.170881700818
1003.5437088880753 8463.4756807801
1004.4479467043584 8440.118369898115
1005.3519600156869 8242.155037521832
1006.2557488875718 8390.837064020548
1007.1593133854858 8383.320865826207
1008.0626535748888 8345.758311523443
1008.9657695212009 8164.1958966217335
1009.8686612898182 8324.387298053407
1010.7713289461135 8321.44402430965
1011.6737725554212 8349.53148424957
1012.5759921830577 8236.498836760722
1013.4779878943027 8261.51621587601
1014.379759754418 8297.23560788309
1015.2813078286254 8102.924567624525
1016.18263218213 8051.3095927539935
1017.0837328801026 8139.363527042922
1017.9846099876886 8318.212365222611
1018.8852635700023 8109.880732518459
1019.7856936921362 8004.217643743374
1020.6859004191447 8195.166073126633
1021.5858838160675 8054.305649966138
1022.4856439479063 8003.330619619301
1023.3851808796389 7915.471110389801
1024.2844946762143 8126.8397383845295
1025.183585402554 7925.856296981784
1026.082453123554 7863.950217052639
1026.9810979040776 7980.3537398158805
1027.8795198089647 7845.885825683299
1028.777718903024 7957.485656705865
1029.6756952510368 7829.950150515593
1030.5734489177648 7885.317875398818
1031.4709799679313 7878.7113804536175
1032.3682884662358 8086.841882661344
1033.2653744773506 7845.444781196855
1034.1622380659192 7839.479798073537
1035.058879296559 7917.011743677702
1035.9552982338591 8139.376487881158
1036.8514949423825 7935.8470189812015
1037.7474694866614 8027.607836790294
1038.6432219312028 7951.2251210854665
1039.5387523404825 8088.497946431087
1040.4340607789582 8092.453366108316
1041.3291473110476 8112.4896981287775
1042.2240120011465 8249.161997600593
1043.1186549136273 8218.633047743711
1044.0130761128294 8136.51634168928
1044.9072756630649 8402.10053883002
1045.8012536286205 8434.041392621924
1046.6950100737577 8314.983237774142
1047.588545062701 8520.937468315238
1048.481858659663 8387.724606623633
1049.3749509288118 8618.32877577799
1050.2678219343034 8464.701742805906
1051.1604717402515 8471.955507720548
1052.0529004107575 8359.840175850313
1052.9451080098825 8525.94287274792
1053.8370946016694 8519.332480762036
1054.7288602501267 8547.5156333865
1055.6204050192446 8423.944121077206
1056.511728972977 8588.62319680134
1057.402832175254 8508.143223945455
1058.2937146899785 8454.504440429178
1059.1843765810263 8413.862776011782
1060.0748179122456 8532.989539986276
1060.9650387474576 8524.536981316829
1061.855039150456 8488.107269019376
1062.7448191850071 8434.896847072703
1063.6343789148505 8369.532921113294
1064.5237184037014 8470.293805680409
1065.412837715241 8308.33694364101
1066.3017369131267 8285.956912814825
1067.190416060992 8257.231474592325
1068.0788752224398 8224.506827501902
1068.9671144610438 8199.544094008495
1069.8551338403558 8355.867125711857
1070.7429334239023 8355.303789678455
1071.6305132751695 8157.997662068958
1072.517873457633 8239.578005991101
1073.4050140347335 8168.35818402441
1074.2919350698776 8158.482434557909
1075.1786366264623 8084.080937408439
1076.0651187678395 8171.93999462138
1076.95138155735 8080.461238494929
1077.8374250582929 7960.288917474468
1078.7232493339507 8151.19181193339
1079.608854447577 8067.210688388133
1080.4942404623907 7993.928963709531
1081.3794074415982 8093.652294648091
1082.2643554483657 8037.697215658392
1083.149084545841 8104.940100336242
1084.033594797138 7865.251910567912
1084.9178862653516 8025.024432234983
1085.8019590135427 8061.7123049438305
1086.6858131047484 7895.072387043913
1087.5694486019802 8037.376478193446
1088.4528655682225 8035.758167095116
1089.3360640664287 8132.11428009822
1090.2190441595321 7987.641465973587
1091.1018059104317 8106.237258776305
1091.98434938201 8058.127011138024
1092.866674637111 8072.164488581138
1093.748781738559 8046.520519573217
1094.6306707491512 7934.362559121665
1095.5123417316554 8081.9509338253
1096.3937947488157 8048.224504852491
1097.2750298633455 8081.393771922305
1098.156047137938 7962.9402177115
1099.0368466352556 8053.480807241931
1099.9174284179317 8080.0891540125795
1100.7977925485757 7880.922792494834
1101.6779390897755 7868.1913495807285
1102.5578681040806 7886.0978717734615
1103.4375796540226 7936.228608970482
1104.3170738021054 7871.138972780808
1105.1963506108077 7727.95051046679
1106.0754101425773 7811.6848046068435
1106.9542524598382 7881.12896431455
1107.8328776249855 7894.606865283056
1108.7112857003904 7785.421777546297
1109.5894767483987 7823.697224426396
1110.4674508313292 8049.726263365657
1111.3452080114657 7930.072792266144
1112.2227483510815 8006.849428537981
1113.1000719124077 8011.888699547535
1113.9771787576592 8199.226102202176
1114.854068949022 8132.653232974034
1115.7307425486542 8182.619991183058
1116.6071996186893 8340.197109197068
1117.483440221229 8445.070071825181
1118.3594644183577 8269.110536376273
1119.235272272128 8358.71178662626
1120.1108638445658 8461.999069051648
1120.9862391976712 8707.917245107546
1121.8613983934229 8544.9163054909
1122.7363414937627 8544.174632855766
1123.6110685606182 8679.22259512896
1124.485579655884 8839.76634610874
1125.359874841426 8846.866420613656
1126.2339541790916 8749.576871871815
1127.1078177306936 9036.63837890096
1127.9814655580267 8767.48654524819
1128.854897722851 8907.056626969297
1129.7281142869106 8887.244562018479
1130.6011153119125 8995.069687221525
1131.473900859548 9052.757826002595
1132.3464709914697 8904.674548034001
1133.2188257693178 8864.239809292958
1134.0909652546961 8819.151604926989
1134.96288950919 8826.373171189094
1135.8345985943506 8897.464227353474
1136.7060925717087 8714.439991580746
1137.57737150277 8705.574949460686
1138.4484354490069 8689.406459151069
1139.3192844718778 8567.479912694198
1140.1899186327992 8441.110449907803
1141.060337993178 8583.060323075939
1141.930542614382 8383.100687449925
1142.8005325577597 8358.569688925269
1143.670307884635 8111.810911120748
1144.5398686563003 8336.344471390565
1145.409214934025 8277.170767002128
1146.2783467790541 8008.225512117252
1147.1472642526023 8183.001675493196
1148.0159674158622 8161.950476761519
1148.8844563300026 8056.365263134177
1149.7527310561618 7879.91247559966
1150.6207916554504 7889.659217994743
1151.4886381889592 7926.417709184019
1152.3562707177498 8054.657199601339
1153.2236893028585 7810.679274926724
1154.090894005296 7832.435417835729
1154.9578848860474 7875.9867772393
1155.8246620060709 7850.553753519262
1156.6912254262988 7832.656550378512
1157.5575752076438 7749.675392639369
1158.42371141098 7983.29325978982
1159.2896340971656 7937.263496231909
1160.1553433270346 7863.845248289088
1161.0208391613887 7892.602710026687
1161.8861216610057 7881.36724705966
1162.75119088664 7938.920237845989
1163.6160468990201 7729.1407580978075
1164.4806897588442 7644.712902431001
1165.3451195267917 7894.784172849121
1166.2093362635114 7875.548730723919
1167.0733400296285 7731.040470344289
1167.9371308857444 7683.147353079
1168.8007088924278 7749.638288156889
1169.6640741102328 7882.973388400288
1170.5272265996773 7774.183117778988
1171.390166421259 7495.124335545513
1172.252893635452 7943.740528334754
1173.1154083026995 7930.538344594475
1173.977710483421 7902.4871000108305
1174.8398002380145 7743.883669267389
1175.7016776268483 7904.368581323615
1176.563342710264 7896.708361783984
1177.4247955485826 7709.372182859306
1178.2860362020947 7757.76997959875
1179.147064731069 7666.1949457960245
1180.0078811957483 7774.144264361906
1180.8684856563486 7693.896346461275
1181.7288781730604 7732.568645351047
1182.589058806052 7662.113085436555
1183.4490276154593 7820.606640097813
1184.3087846614017 7743.562553522082
1185.1683300039676 7693.115153061274
1186.027663703222 7885.892634336703
1186.8867858192025 7716.2754625525795
1187.7456964119228 7743.8098342316125
1188.6043955413716 7800.831506818155
1189.4628832675116 7903.509955086551
1190.3211596502842 7838.892482860758
1191.179224749596 7893.296741027929
1192.0370786253388 7840.582233024572
1192.8947213373758 7892.435814228884
1193.7521529455407 8089.3053264669525
1194.6093735096438 7734.244569231841
1195.466383089477 7777.589716217879
1196.3231817447977 7956.340038799253
1197.1797695353398 7956.8516164750135
1198.0361465208189 7772.85480326377
1198.8923127609214 7742.432356449365
1199.7482683153048 7823.75318972974
1200.6040132436028 7869.047787733929
1201.459547605431 7710.674096323739
1202.3148714603722 7646.566115431806
1203.1699848679855 7771.87099954904
1204.0248878878065 7793.626286469585
1204.8795805793507 7519.586104752448
1205.7340630020935 7690.937641285249
1206.5883352155033 7781.424587570565
1207.4423972790064 7598.111733083439
1208.2962492520237 7639.922570073398
1209.1498911939307 7538.1084427427395
1210.0033231640937 7688.569808219928
1210.8565452218427 7546.116075573334
1211.7095574264913 7398.729925962869
1212.5623598373222 7415.207966290274
1213.4149525135963 7364.054861918436
1214.2673355145507 7458.221397141337
1215.1195088993936 7369.456957299708
1215.9714727273113 7338.675566987619
1216.8232270574663 7451.386994354647
1217.6747719489904 7171.327088537943
1218.5261074609934 7232.545499046934
1219.3772336525653 7339.201775782743
1220.2281505827668 7401.754681599513
1221.0788583106296 7429.075385269362
1221.9293568951707 7312.329145361548
1222.7796463953746 7166.749112802109
1223.629726870202 7379.0553971837535
1224.4795983785934 7477.919519907982
1225.3292609794553 7346.409603197579
1226.1787147316809 7233.115243874347
1227.0279596941327 7435.321626144975
1227.8769959256424 7456.073994260734
1228.7258234850306 7415.4284964348535
1229.5744424310833 7238.236595042969
1230.422852822563 7346.833240761446
1231.2710547182105 7496.8174066203865
1232.119048176739 7385.10256833375
1232.9668332568417 7191.4023950437095
1233.8144100171812 7420.305441590664
1234.6617785163999 7456.799044380374
1235.508938813111 7204.059281227778
1236.3558909659114 7277.500709357356
1237.2026350333617 7476.7879824068605
1238.049171074008 7540.784871868003
1238.8954991463652 7358.897828493102
1239.741619308932 7306.751169561522
1240.587531620169 7648.617448253974
1241.4332361385277 7479.897690213531
1242.2787329224248 7368.318132847574
1243.1240220302534 7422.804573659618
1243.9691035203869 7406.584949021168
1244.813977451171 7554.648392342232
1245.6586438809263 7620.275557635633
1246.5031028679496 7245.320548782942
1247.3473544705157 7480.727406251618
1248.1913987468706 7429.443392029901
1249.0352357552383 7212.907888200172
1249.8788655538228 7232.569386565624
1250.7222882007918 7352.348850881729
1251.565503754302 7368.818895672199
1252.4085122724755 7167.711145910539
1253.2513138134182 7340.228591104882
1254.0939084352049 7288.22880402495
1254.9362961958905 7265.124582440648
1255.7784771535007 7223.877753828048
1256.6204513660432 7325.523760301532
1257.4622188915 7378.661955936426
1258.3037797878242 7219.805022909054
1259.1451341129468 7174.879789922625
1259.9862819247755 7250.916952547229
1260.8272232811978 7139.845332636987
1261.6679582400666 7470.825400352578
1262.5084868592203 7015.359141091712
1263.34880919647 7047.224684446308
1264.1889253095997 7245.7551862489445
1265.0288352563712 7336.5760535145455
1265.8685390945266 7222.177455865934
1266.7080368817751 7298.607808845452
1267.5473286758115 7379.293620587681
1268.386414534294 7261.0835373068385
1269.2252945148703 6967.753749574588
1270.0639686751547 7130.5010763123355
1270.9024370727402 7052.082990893803
1271.7406997651997 6991.937261221453
1272.5787568100714 7051.822997245957
1273.4166082648808 7066.25548850461
1274.2542541871244 7119.590900916954
1275.091694634275 7214.692959843334
1275.9289296637817 6985.439576117627
1276.7659593330663 7017.880134842182
1277.6027836995308 7047.0391503457195
1278.4394028205552 7207.021995848049
1279.2758167534867 7046.856715653239
1280.112025555658 7150.938623001473
1280.9480292843746 7172.610601189354
1281.7838279969128 6968.38629924048
1282.6194217505326 7018.5347192674835
1283.4548106024686 6915.973006801205
1284.289994609926 6921.392893793025
1285.1249738300921 7180.910401936526
1285.959748320127 6913.499883680242
1286.7943181371702 7044.290484211442
1287.6286833383328 7045.863919106171
1288.4628439807038 7072.446865027785
1289.2968001213521 6981.489380343679
1290.1305518173194 6991.307164874823
1290.9640991256183 7118.85234621984
1291.7974421032523 6991.517535592286
1292.630580807183 6934.165400865405
1293.463515294361 7120.297653898217
1294.29624562171 7091.888206088579
1295.12877184613 6951.460525265257
1295.961094024493 7015.124521639987
1296.79321221365 7064.066307557764
1297.6251264704333 7172.939384228775
1298.4568368516466 7447.33045011027
1299.2883434140658 7298.639444540095
1300.1196462144526 7087.208083116694
1300.9507453095375 7166.321585266963
1301.7816407560313 7169.617985186727
1302.6123326106172 7241.094173758984
1303.4428209299622 7002.595036966243
1304.2731057707024 7364.55768776019
1305.1031871894502 7037.385893432234
1305.933065242798 7265.653691337476
1306.7627399873181 7081.490799910054
1307.5922114795467 7481.025927610221
1308.4214797760123 7404.569384022283
1309.2505449332057 7094.809155062278
1310.0794070076026 7236.636160640601
1310.9080660556538 7395.556937298413
1311.736522133786 7294.360672618245
1312.5647752983987 7236.042572126782
1313.3928256058734 7053.255503177274
1314.2206731125661 7240.578683694813
1315.048317874809 7148.568661595642
1315.8757599489109 7130.045988113619
1316.7029993911547 7096.884958669487
1317.5300362578055 7349.45280191028
1318.356870605101 7034.655537846758
1319.183502489257 7117.378324005511
1320.0099319664623 7185.694566283244
1320.836159092889 7324.207081884325
1321.66218392468 7292.368525885041
1322.4880065179532 7089.261979233709
1323.3136269288134 7153.5474964126715
1324.1390452133292 7286.719380805544
1324.9642614275563 7254.413038779594
1325.7892756275214 7206.767390288225
1326.6140878692295 7081.475876644768
1327.4386982086617 7442.869932799341
1328.2631067017755 7198.135727501537
1329.0873134045069 7250.008114778262
1329.911318372764 7106.7571536731575
1330.735121662441 7193.696953305365
1331.558723329399 7139.108623774702
1332.3821234294774 7152.315616596988
1333.2053220185007 6987.994113856676
1334.0283191522612 7059.360149181333
1334.851114886529 7256.071152546674
1335.6737092770582 7008.865197818217
1336.4961023795695 7124.316246540557
1337.3182942497697 7095.10719675017
1338.1402849433325 7064.510556266403
1338.962074515921 7017.5999778994565
1339.7836630231632 6901.206441428867
1340.6050505206676 7385.104968321201
1341.426237064028 7241.651493827392
1342.2472227088037 7409.486390682665
1343.0680075105338 6939.656519812294
1343.888591524741 7075.945442296055
1344.7089748069138 7195.857425496908
1345.5291574125276 6993.642645335392
1346.3491393970307 6846.065195233323
1347.168920815846 7013.764357149392
1347.9885017243778 7098.564691325654
1348.8078821780036 6960.439755928591
1349.6270622320844 7011.333035991022
1350.4460419419447 6763.962813028219
1351.2648213629054 7182.375356384732
1352.0834005502438 6827.3106370987425
1352.90177955923 6902.144571455532
1353.7199584451064 7413.599489848067
1354.5379372630887 6984.086447228852
1355.355716068374 6903.362994551719
1356.1732949161305 6850.4770478916225
1356.9906738615155 6824.439682091144
1357.8078529596478 6981.0075271954165
1358.6248322656375 6927.703181930799
1359.441611834567 6747.398310682374
1360.2581917214866 7154.079984320689
1361.0745719814367 6809.667574986575
1361.890752669433 6762.69137535746
1362.7067338404577 6763.492742219969
1363.5225155494845 7017.978772554081
1364.3380978514506 7051.393605863073
1365.1534808012839 6694.465000377767
1365.9686644538815 6566.908714840583
1366.783648864117 6942.625501579465
1367.5984340868417 6916.995022432125
1368.413020176893 6920.813168659483
1369.2274071890715 6714.163074285908
1370.0415951781652 6943.608905384857
1370.8555841989346 6607.463658081875
1371.6693743061223 6659.9709577653675
1372.48296555444 6667.605557852368
1373.2963579985844 6969.588615003971
1374.1095516932255 6766.7359567095755
1374.9225466930166 6592.433902165596
1375.7353430525782 6727.372331122942
1376.5479408265164 6572.1905398875315
1377.36034006941 6768.283855578079
1378.1725408358216 6819.854182212277
1378.9845431802805 6555.521460349026
1379.796347157304 6951.585261186563
1380.6079528213813 6938.070079634426
1381.4193602269788 6594.578958057658
1382.230569428546 6620.996300347055
1383.0415804805016 6903.238213217161
1383.852393437246 6808.033622819172
1384.6630083531563 6852.854850017733
1385.4734252825892 6706.965075478476
1386.2836442798798 6734.45442049241
1387.0936653993322 6654.293960434086
1387.9034886952395 6557.240575932015
1388.713114221864 6765.729893544913
1389.5225420334482 6665.130056437634
1390.331772184214 6570.232742519658
1391.1408047283585 6379.180472359315
1391.9496397200564 6426.252463237545
1392.758277213461 6649.732349447362
1393.5667172627054 6624.418964423766
1394.3749599218918 6379.693855678519
1395.1830052451114 6155.730620274424
1395.9908532864265 6230.3895887159115
1396.7985040998774 6682.952318228124
1397.6059577394808 6137.977987122738
1398.4132142592352 6371.208968889688
1399.2202737131156 6179.879087663821
1400.027136155073 6237.745679298232
1400.8338016390353 6218.611469056062
1401.6402702189134 6176.705749463648
1402.446541948586 6191.270067422262
1403.2526168819204 5985.0402215951035
1404.058495072757 6121.35695347863
1404.8641765749107 6021.76000689845
1405.6696614421799 6180.784946547452
1406.4749497283356 6385.364327080961
1407.280041487129 6037.0912273097865
1408.084936772295 5863.767939917114
1408.8896356375335 6212.443930697601
1409.6941381365323 6185.298591866629
1410.498444322955 5883.246267011778
1411.3025542504402 5980.800630064425
1412.106467972606 5904.233564896103
1412.9101855430508 6046.212459379637
1413.7137070153458 5798.8720521529185
1414.5170324430437 5844.860155485078
1415.320161879672 5944.278494944872
1416.1230953787435 6139.089265607083
1416.925832993742 5797.1392998471365
1417.7283747781275 5601.778046277063
1418.5307207853439 5926.607627987336
1419.3328710688093 5882.924135074753
1420.134825681922 5613.904948148245
1420.9365846780584 5662.187870685366
1421.7381481105713 6055.903938394748
1422.539516032788 5809.413758312431
1423.3406884980232 5656.640036579123
1424.1416655595604 5638.954962722076
1424.942447270665 5759.4659543121115
1425.7430336845828 5761.410040969709
1426.5434248545298 5509.196875254802
1427.3436208337116 5739.246174525086
1428.143621675301 5940.025612972241
1428.9434274324558 5941.762746092419
1429.7430381583108 5535.301152154281
1430.5424539059713 5711.779890056103
1431.3416747285337 6267.99041304447
1432.1407006790632 5771.865737959924
1432.9395318106053 5743.18239236197
1433.7381681761835 5605.582254971261
1434.5366098288014 5676.338142732044
1435.3348568214424 5759.479852571518
1436.1329092070573 5636.217568456586
1436.9307670385879 5647.299126382774
1437.7284303689503 5803.389436492319
1438.5258992510335 5955.305747283781
1439.3231737377118 5741.021064261454
1440.1202538818306 5789.031709982175
1440.9171397362225 5686.646767315529
1441.7138313536925 5727.730790167244
1442.5103287870243 5580.886971939183
1443.3066320889775 5592.962311991082
1444.1027413122956 5926.107297697767
1444.8986565096966 5706.646230704474
1445.694377733882 5721.819943680124
1446.4899050375207 5544.135541092687
1447.2852384732687 5555.142738335629
1448.0803780937622 5942.607119918342
1448.8753239516063 5651.095018077145
1449.6700760993954 5471.61240656108
1450.464634589689 5525.40025596209
1451.2589994750397 5794.6131233533615
1452.0531708079689 5510.0627863173195
1452.8471486409799 5523.88948191704
1453.6409330265524 5800.956512040125
1454.4345240171442 5598.788031376529
1455.2279216651987 5568.036583087063
1456.0211260231263 5506.604557265868
1456.8141371433194 5617.12117314528
1457.6069550781594 5683.827716742635
1458.3995798799897 5434.672461990825
1459.1920116011424 5532.801875895076
1459.98425029393 5495.756125285315
1460.7762960106338 5461.4945253570395
1461.5681488035225 5545.16055426323
1462.3598087248392 5470.499798110366
1463.1512758268036 5583.175211692409
1463.942550161617 5408.589283635521
1464.7336317814625 5315.97053975308
1465.524520738496 5531.956487349051
1466.3152170848552 5481.937550785093
1467.1057208726506 5625.84338884234
1467.8960321539817 5332.440034049595
1468.6861509809169 5209.3322179467905
1469.4760774055085 5351.627761906897
1470.265811479785 5514.287691588869
1471.055353255755 5170.517948074876
1471.844702785409 5288.292685316765
1472.6338601207044 5264.22252013203
1473.4228253135934 5834.153245425924
1474.2115984159936 5162.6108630708395
1475.0001794798063 5046.427189137847
1475.7885685569145 5337.246660302844
1476.576765699172 5339.289350724217
1477.3647709584238 5241.944943698492
1478.1525843864802 5455.453956702532
1478.9402060351367 5372.502440480117
1479.7276359561693 5296.803232549261
1480.514874201328 5230.752681906692
1481.3019208223468 5005.510861176559
1482.0887758709323 5076.515199157605
1482.8754393987747 5300.0376857036
1483.6619114575406 5017.582619053452
1484.4481920988783 5263.957464841041
1485.2342813744108 5305.312473147384
1486.0201793357446 5375.9025714717745
1486.8058860344572 5154.515358009373
1487.591401522117 5191.003697083513
1488.3767258502594 5157.0187153953675
1489.1618590704056 5031.583806739186
1489.9468012340494 4983.277129048687
1490.7315523926754 5178.695024824743
1491.5161125977356 5256.473365764168
1492.3004819006637 5125.8269424131995
1493.084660352877 5114.668808738379
1493.8686480057622 5208.940524261146
1494.6524449106964 5574.686421523031
1495.4360511190262 5367.201553809236
1496.219466682087 5237.1204105447
1497.0026916511779 5310.650164708866
1497.7857260775945 5024.909423495493
1498.5685700125996 5245.5586424062485
1499.3512235074395 5149.816044429471
1500.133686613337 5119.286631132977
1500.9159593814966 5149.350410911071
1501.698041863101 5507.6392459532735
1502.4799341093094 4994.094210891729
1503.2616361712662 5061.4097839723345
1504.043148100087 5254.771951579283
1504.8244699468742 5275.519028933937
1505.6056017626997 5122.631634692725
1506.3865435986281 4893.199034638578
1507.1672955056893 5230.62910864842
1507.9478575348967 5082.711184126157
1508.7282297372512 5252.483247443206
1509.5084121637192 5136.788376680242
1510.2884048652577 5204.720404913673
1511.0682078927948 5084.93288858521
1511.8478212972423 5073.61767740728
1512.6272451294917 5045.9115752035805
1513.4064794404076 5254.547153232236
1514.1855242808433 5088.578330542863
1514.9643797016215 5095.4683236894825
1515.743045753552 5267.73042085059
1516.5215224874191 5303.331822076428
1517.2998099539836 4842.479193733521
1518.077908203999 5133.711592345543
1518.8558172881785 5222.116257403047
1519.633537257234 5381.134053829477
1520.4110681618404 5214.183074450806
1521.1884100526604 5374.560531112913
1521.9655629803365 5174.663962293245
1522.7425269954856 5416.725009956196
1523.5193021487103 5512.785687272897
1524.2958884905856 5100.996275846114
1525.0722860716687 5209.628863885408
1525.848494942502 5203.598002440949
1526.624515153595 5164.921312960896
1527.4003467554485 5282.817368907124
1528.175989798534 5413.139914796648
1528.9514443333064 5197.809145362242
1529.726710410203 5554.712308255481
1530.5017880796331 5008.845221668979
1531.276677391992 5298.7490335879165
1532.0513783976457 5476.6487793120905
1532.825891146953 5282.420903584604
1533.6002156902414 5308.342115674337
1534.3743520778207 5244.635408527204
1535.1483003599806 5287.230576182241
1535.9220605869923 5236.590102142991
1536.6956328091019 5336.555274610527
1537.4690170765407 5329.792062309081
1538.242213439511 5449.819314174796
1539.015221948208 5338.212212676213
1539.78804265279 5033.414609579248
1540.560675603405 5051.306788339983
1541.3331208501804 5531.23341387714
1542.1053784432224 5427.057251383548
1542.8774484326168 5256.405294943203
1543.649330868422 5244.892763587194
1544.4210258006842 5389.237209855686
1545.1925332794308 5246.785489514994
1545.9638533546604 5178.764220846895
1546.7349860763552 5117.893241523214
1547.5059314944829 5423.331180716098
1548.27668965898 5121.529551852711
1549.0472606197673 5350.258147951364
1549.817644426752 5138.345284389097
1550.5878411298072 5436.5885204703345
1551.3578507787988 5248.680412072136
1552.1276734235635 5282.489626774516
1552.8973091139233 5152.588653376191
1553.6667578996767 5330.729472141933
1554.436019830604 5293.380828115773
1555.20509495646 5279.215733933584
1555.9739833269869 5046.7121423526805
1556.7426849919011 5123.487282892294
1557.511200000903 5533.616437092339
1558.2795284036674 5329.471992538887
1559.0476702498509 5188.239352409268
1559.8156255890954 5343.017223879087
1560.5833944710157 5354.735486116346
1561.3509769452048 5173.746367424885
1562.1183730612447 5104.170369270939
1562.8855828686865 5074.376619207764
1563.6526064170703 5509.806462934177
1564.4194437559127 5291.111956406508
1565.1860949347047 4985.333581314532
1565.9525600029283 5437.866551720264
1566.7188390100328 5350.190581742159
1567.4849320054564 5109.724038814762
1568.250839038612 5127.34150979607
1569.0165601588997 5114.520463194716
1569.7820954156887 5248.974526086771
1570.5474448583373 5075.02849588483
1571.31260853618 4986.135368402804
1572.0775864985299 4870.047108071436
1572.8423787946813 5114.990649393354
1573.6069854739108 4905.083978979748
1574.371406585471 5131.080025795284
1575.1356421785986 5098.540056311729
1575.899692302506 5122.056570060615
1576.6635570063845 5067.267250264435
1577.4272363394157 4991.421135925952
1578.190730350747 5084.939049119571
1578.9540390895163 5093.708922234677
1579.7171626048384 4731.695744373888
1580.480100945806 4943.888435909229
1581.2428541614918 4941.58520249259
1582.0054223009538 5050.817359985986
1582.767805413223 4999.621778357023
1583.5300035473156 4910.538836747408
1584.292016752228 4984.381150796706
1585.0538450769309 5125.440142261045
1585.8154885703807 4807.0075083660895
1586.5769472815136 4766.589037119692
1587.3382212592405 5010.006928509906
1588.099310552463 5130.536911927363
1588.8602152100484 4619.993143541335
1589.6209352808564 4969.073272571668
1590.3814708137234 4900.729492373028
1591.14182185746 4569.264100736857
1591.9019884608679 4969.662086350136
1592.6619706727215 4715.424886732751
1593.4217685417734 4970.08735324444
1594.1813821167616 5225.669993328026
1594.9408114464022 4656.972729724693
1595.7000565793933 4882.908489603291
1596.459117564409 4996.856387885783
1597.2179944501113 4707.214744115763
1597.9766872851324 4923.235856656776
1598.735196118092 4961.087316331108
1599.4935209975883 5076.74696847211
1600.2516619721973 5074.237562380929
1601.0096190904787 4895.50137270169
1601.7673924009723 4847.358532544023
1602.524981952196 4839.641281163598
1603.2823877926476 4726.670103712748
1604.0396099708087 4758.36656221392
1604.7966485351371 4679.939463466605
1605.5535035340745 4728.477902817841
1606.3101750160404 5079.032542037725
1607.0666630294363 4809.220114812901
1607.822967622642 4582.359857574698
1608.5790888440224 4779.383055139899
1609.3350267419137 4995.126115127336
1610.0907813646445 4897.113407742445
1610.8463527605145 4780.649138560453
1611.601740977805 4924.907774533511
1612.356946064785 4880.294085259227
1613.1119680696902 4388.901794852065
1613.8668070407512 4594.012527115141
1614.6214630261748 4662.613701491047
1615.375936074137 4748.712532109124
1616.1302262328118 4737.561548878092
1616.8843335503425 4649.786419103171
1617.638258074854 4547.704297040734
1618.391999854457 4563.594224695335
1619.1455589372363 4797.744290247495
1619.8989353712623 4635.350476793985
1620.65212920458 4271.731147926352
1621.4051404852235 4524.095925665297
1622.1579692611976 4475.3859169076
1622.9106155804966 4408.365142722598
1623.663079491087 4572.835373167375
1624.4153610409248 4555.772551567531
1625.1674602779385 4415.394465340333
1625.9193772500403 4336.70883608666
1626.6711120051277 4649.188846654811
1627.4226645910676 4510.0047561038855
1628.174035055721 4250.137150668612
1628.9252234469168 4500.00540375089
1629.676229812474 4271.721237370476
1630.4270542001905 4845.989612302794
1631.1776966578382 4460.270711035659
1631.9281572331747 4314.209634884208
1632.678435973945 4348.413367439243
1633.4285329278573 4393.071665918804
1634.1784481426203 4160.794655651787
1634.9281816659113 4306.335411643652
1635.677733545388 4447.284965370138
1636.4271038286934 4110.757731493208
1637.176292563452 4372.050911926977
1637.9252997972635 4256.682400507197
1638.674125577716 4577.823427240786
1639.4227699523672 4669.803193452292
1640.171232968767 3995.2300523847894
1640.9195146744423 4323.156490750095
1641.6676151168977 4335.064942152835
1642.4155343436178 4271.137819492893
1643.1632724020765 4250.062989317203
1643.9108293397167 4287.017009936725
1644.658205203974 4005.9005414176327
1645.4054000422566 4585.758091536218
1646.1524139019566 4104.359830576218
1646.8992468304423 4159.805767353029
1647.6458988750728 4006.7743300430966
1648.3923700831765 4218.988094873555
1649.1386605020743 4155.984146590406
1649.8847701790564 4272.267976567788
1650.6306991614038 4089.607421781117
1651.3764474963682 4310.590491737576
1652.1220152311944 3929.61529301514
1652.867402413096 4115.366950450387
1653.6126090892776 3927.5978198807197
1654.3576353069184 4248.0212499586
1655.1024811131829 4127.6774091164
1655.8471465552066 4071.967507204633
1656.5916316801213 4397.431173971721
1657.3359365350298 4045.24597726236
1658.0800611670165 4020.0434878030865
1658.824005623148 4111.124937876677
1659.5677699504722 3875.004972926642
1660.3113541960192 4116.488947045023
1661.054758406799 4072.929975947039
1661.7979826297997 3949.729035339594
1662.5410269119966 3898.55605291128
1663.283891300338 4331.199593728414
1664.0265758417645 3867.187436575389
1664.7690805831826 3940.822614659484
1665.5114055714948 4171.367071919891
1666.2535508535748 4421.2114458048
1666.9955164762814 3773.521083958606
1667.7373024864555 3961.125243590667
1668.478908930916 4016.0031812902503
1669.220335856462 3685.0476615244247
1669.9615833098778 3922.6801932342596
1670.7026513379296 3807.115351177599
1671.44353998736 3927.664086717277
1672.1842493048916 4026.4570061700333
1672.9247793372379 3794.3253123239747
1673.6651301310812 3974.3742432272143
1674.4053017330934 3719.6696866149896
1675.1452941899242 3955.61653812074
1675.885107548207 3318.114092352241
1676.6247418545518 3620.843496726451
1677.3641971555535 3668.196225354333
1678.1034734977893 3833.7737680176388
1678.8425709278108 3788.262323840623
1679.5814894921605 3842.2798291791355
1680.320229237359 3602.730979763336
1681.0587902098978 3808.813176065287
1681.7971724562685 3615.4072502910194
1682.5353760229264 3796.340533816017
1683.2734009563173 3690.5371017141165
1684.0112473028657 3481.4467282397745
1684.7489151089794 3687.956738988003
1685.4864044210462 3780.7045884112754
1686.2237152854377 3456.6665924586355
1686.960847748498 3700.9338651025487
1687.6978018565642 3512.108725107214
1688.434577655944 3388.351811193702
1689.1711751929379 3460.3255846074985
1689.9075945138156 3527.4074316646693
1690.6438356648396 3468.8898822504734
1691.3798986922448 3141.0821502702665
1692.1157836422499 3488.051671953278
1692.851490561059 3310.853152959914
1693.587019494853 3458.9837194718507
1694.3223704897991 3299.9584177572096
1695.0575435920364 3177.016114280954
1695.792538847696 3650.3763381745607
1696.527356302886 3323.3844101612112
1697.2619960036936 3142.2249009643633
1697.9964579961907 3309.0258838626273
1698.730742326432 2862.936379773159
1699.4648490404488 2926.681340973696
1700.1987781842563 3110.678561719444
1700.9325298038548 3490.628598936153
1701.6661039452174 3436.2391625867413
1702.3995006543082 3261.55709669688
1703.1327199770658 3343.7706808857083
1703.865761959416 3116.9162377313246
1704.598626647261 3418.60103021017
1705.3313140864866 3097.5966479013305
1706.0638243229587 3173.1860237947685
1706.7961574025303 3298.3588254738825
1707.528313371029 3194.9738743210146
1708.260292274268 2818.0445311004946
1708.9920941580403 3191.957056354251
1709.7237190681226 3194.917005825118
1710.4551670502697 3167.3187403186025
1711.18643815022 2684.8843636058705
1711.9175324136959 3370.2215541410383
1712.6484498863938 3062.31664742012
1713.379190614005 2910.7169207376724
1714.109754642188 3151.058596078313
1714.8401420165883 2984.1611921938843
1715.570352782839 3200.8527780716913
1716.3003869865497 3203.7261457362083
1717.0302446733076 2933.291333948472
1717.7599258886876 2923.270212257042
1718.4894306782444 3340.003304253398
1719.2187590875183 2976.1836945973328
1719.9479111620203 3019.8292135552338
1720.6768869472544 2983.4894514780162
1721.4056864887025 3335.722104298207
1722.1343098318284 3290.645929636412
1722.8627570220742 2952.2281386585355
1723.591028104871 2827.146837853381
1724.3191231256242 2797.9366927413403
1725.0470421297232 2997.1026097334784
1725.7747851625427 3157.971836466376
1726.5023522694337 3062.805964847051
1727.2297434957363 3062.228607638673
1727.9569588867635 2744.1920118743924
1728.6839984878152 3107.5167607831286
1729.4108623441734 2599.924078014041
1730.1375505011038 3082.5062345418387
1730.8640630038426 2872.5751712188226
1731.5903998976264 2808.657122885307
1732.316561227657 2944.0772997380272
1733.0425470391274 2877.718524595348
1733.7683573772065 2916.0720875566194
1734.4939922870508 2893.76140487204
1735.2194518137949 2927.5981006608063
1735.9447360025606 3026.0782609751413
1736.669844898439 2882.1427202032605
1737.3947785465189 2775.8428928689636
1738.1195369918605 2781.3638891297674
1738.8441202795093 2825.6458927288304
1739.5685284544943 2865.185425834351
1740.292761561821 2998.7438892265454
1741.0168196464838 3087.910159908337
1741.7407027534518 2883.619831516044
1742.464410927687 3007.283271324494
1743.187944214118 2869.5457870092214
1743.9113026576688 2758.6518833462023
1744.634486303241 2837.5666180703106
1745.3574951957125 2749.929450245821
1746.0803293799509 2907.855758534733
1746.8029889008048 2734.1766976416975
1747.5254738031017 3102.404732827533
1748.2477841316504 2664.7268548391085
1748.969919931249 2837.407072551025
1749.6918812466665 2742.7900908451
1750.4136681226646 3099.4006777933882
1751.1352806039777 2883.996756443485
1751.856718735331 2681.4225545192085
1752.5779825614281 2717.747252468962
1753.2990721269507 2837.451657006723
1754.0199874765676 3046.9851342194797
1754.7407286549314 2642.0165935866416
1755.4612957066693 2744.709835460262
1756.1816886763954 2791.9190460529912
1756.9019076087097 2851.4036368278407
1757.6219525481865 2936.4623408358557
1758.3418235393856 2953.9780921636807
1759.061520626854 2913.2930398607823
1759.7810438551096 2830.0602907059965
1760.5003932686614 2787.4362502905587
1761.2195689119999 3071.0249684126093
1761.938570829594 2673.9400472838447
1762.657399065898 2878.7358145959633
1763.376053665348 2719.4786512561072
1764.0945346723602 2663.205971955592
1764.812842131334 3020.8534537608475
1765.5309760866512 2623.4234623610473
1766.2489365826787 2631.308700550588
1766.9667236637597 2820.763829467617
1767.684337374223 2472.9918897269436
1768.401777758383 2567.2474863540324
1769.1190448605284 2555.7697150205245
1769.836138724937 2568.9035290429247
1770.5530593958665 2857.313531907109
1771.2698069175603 2981.2380104146514
1771.9863813342326 2793.0153613719363
1772.702782690094 2665.513167897433
1773.4190110293293 2849.795231369674
1774.1350663961111 2947.288291605363
1774.8509488345844 2604.256732786323
1775.5666583888924 2610.220252482881
1776.2821951031437 2926.0914766084466
1776.9975590214362 2654.6294270754834
1777.7127501878585 3050.157587495888
1778.4277686464684 2712.877857992291
1779.1426144413108 2950.634445585124
1779.8572876164162 2767.082439619383
1780.571788215797 2738.3190590018726
1781.2861162834415 2813.293030498883
1782.0002718633277 2655.2170034349556
1782.7142549994132 2654.6301104247514
1783.4280657356376 2785.3161162834813
1784.141704115922 2493.3762290524082
1784.855170184177 2648.8297740608714
1785.5684639842839 2826.9777726275724
1786.2815855601148 2520.960311592891
1786.9945349555237 2691.8617346109572
1787.707312214343 2608.859172516485
1788.4199173803918 2884.9005660496177
1789.132350497468 2490.878019124273
1789.8446116093583 2555.876894997079
1790.556700759822 2630.9483655523595
1791.2686179926077 2424.7530225535247
1791.9803633514493 2656.3992708545634
1792.6919368800554 2505.2391221234316
1793.4033386221236 2833.747331272355
1794.1145686213295 2782.856154139755
1794.8256269213307 3045.163855529208
1795.536513565774 2823.1272534043464
1796.247228598284 2439.0985039186053
1796.9577720624693 2602.495795242329
1797.6681440019165 2628.169379093831
1798.3783444602013 2682.598666022318
1799.0883734808776 2732.905792341844
1799.7982311074884 2716.4160450864665
1800.5079173835475 2598.304607387595
1801.2174323525633 2882.563343593957
1801.9267760580187 2645.146741195858
1802.635948543386 2735.3558611708618
1803.3449498521113 2463.3925437295893
1804.0537800276325 2727.2211497695625
1804.7624391133668 2487.1389655486596
1805.47092715271 2362.7715683167607
1806.1792441890484 2464.6228832747847
1806.8873902657433 2833.8008866456453
1807.5953654261448 2550.2196577134955
1808.3031697135812 2463.1623237166054
1809.0108031713662 2661.1286304442647
1809.71826584279 2633.028459283336
1810.425557771141 2569.8280658012654
1811.1326789996747 3027.0269889387946
1811.839629571632 2616.9704794051295
1812.5464095302468 2488.1891716386776
1813.2530189187182 2742.926923607876
1813.959457780249 2502.0615545542714
1814.6657261580076 2671.753240199936
1815.371824095153 2608.5559902551677
1816.0777516348262 2799.4001008384485
1816.78350882015 2348.4121965950476
1817.4890956942272 2381.388084879265
1818.1945123001533 2611.9884764134185
1818.8997586809928 2566.5519453548955
1819.6048348798067 2638.3729812300153
1820.3097409396287 2605.434382289405
1821.0144769034796 2844.9583538543698
1821.7190428143622 2623.8854209868973
1822.423438715261 2836.4710451654255
1823.1276646491478 2586.353374713848
1823.8317206589727 2569.4671290865404
1824.5356067876692 2564.2368442112506
1825.2393230781581 2658.1071867625824
1825.942869573335 2360.274954994292
1826.646246316086 2375.9160821113223
1827.3494533492758 2654.7970937120235
1828.052490715756 2646.1827417784452
1828.7553584583547 2547.6018065026196
1829.458056619891 2661.967417699204
1830.1605852431585 2355.5577419131455
1830.8629443709433 2472.663061348144
1831.5651340460063 2527.6332320802203
1832.2671543110919 2526.31480505921
1832.9690052089318 2663.4693588211267
1833.6706867822395 2472.691143215855
1834.3721990737104 2774.262561710322
1835.0735421260233 2628.681433862149
1835.774715981841 2556.896231052
1836.4757206838058 2424.096166020471
1837.1765562745459 2291.579372190393
1837.8772227966747 2216.673166314205
1838.5777202927839 2579.0611914467163
1839.2780488054523 2517.658232933311
1839.9782083772352 2405.8289477334097
1840.6781990506806 2705.3649280257273
1841.378020868313 2606.9796825616136
1842.0776738726418 2513.5307134983304
1842.777158106157 2371.3132716104983
1843.4764736113375 2323.598843930561
1844.1756204306403 2680.641835082813
1844.8745986065078 2553.731911518217
1845.5734081813607 2340.8083527872604
1846.2720491976124 2361.730230592421
1846.970521697649 2414.8672504483957
1847.6688257238511 2615.339216975629
1848.3669613185684 2493.8844396215904
1849.0649285241452 2356.2070654828976
1849.7627273829057 2537.1158388799117
1850.460357937156 2499.160773355899
1851.1578202291857 2227.3771172373845
1851.8551143012664 2519.3975704861627
1852.5522401956569 2549.224472767143
1853.2491979545957 2688.9368653146335
1853.9459876203055 2344.321519124778
1854.6426092349902 2289.3632459376286
1855.3390628408451 2443.298531790563
1856.0353484800362 2619.232760555165
1856.7314661947203 2641.0425627869236
1857.4274160270397 2327.714278309065
1858.123198019115 2491.2652111683774
1858.8188122130487 2411.8897989870557
1859.5142586509319 2518.5847308873454
1860.209537374838 2412.1997084200348
1860.9046484268183 2358.536542613015
1861.599591848917 2725.7920244206384
1862.294367683151 2349.047474085102
1862.988975971528 2449.8654992656893
1863.6834167560355 2626.489935718253
1864.3776900786452 2664.0453267069374
1865.0717959813119 2349.67174092808
1865.7657345059724 2438.5520053235205
1866.4595056945564 2516.2799098138453
1867.1531095889586 2559.284938299106
1867.846546231076 2443.397576633146
1868.5398156627743 2637.8931787981546
1869.2329179259123 2546.4969963568547
1869.9258530623283 2742.3212928719954
1870.618621113843 2382.470068253568
1871.3112221222636 2350.17634479248
1872.0036561293764 2404.708270276881
1872.695923176956 2634.181108993247
1873.3880233067594 2593.0519511944644
1874.0799565605212 2336.203379480841
1874.7717229799673 2454.2867924087423
1875.4633226068036 2659.884089245391
1876.1547554827175 2542.033841727542
1876.8460216493859 2454.9132935858474
1877.5371211484617 2370.301630267549
1878.2280540215852 2618.9963520185156
1878.9188203103804 2339.5740154049677
1879.6094200564548 2594.7768585824556
1880.299853301396 2432.754896069987
1880.9901200867826 2533.9718406765483
1881.6802204541673 2336.969086072385
1882.3701544450942 2451.5278055621793
1883.059922101087 2378.5904210439353
1883.7495234636517 2652.5456793557855
1884.4389585742792 2444.2149060515903
1885.1282274744517 2437.8357120640935
1885.8173302056166 2863.877047421295
1886.506266809225 2546.3708062899145
1887.195037326701 2248.108761808743
1887.8836417994517 2473.936630881483
1888.5720802688702 2785.976893689508
1889.260352776333 2480.253131193039
1889.9484593632042 2567.2322222692947
1890.63640007082 2519.9778252126475
1891.3241749405151 2404.528940937476
1892.0117840135954 2471.1463404807773
1892.6992273313572 2411.2188247389695
1893.3865049350788 2344.880784684722
1894.0736168660223 2815.60193509791
1894.7605631654333 2410.7272111253537
1895.4473438745408 2320.553970837354
1896.133959034556 2571.019014232421
1896.820408686679 2327.181948004222
1897.506692872088 2695.145389645913
1898.192811631945 2415.7253174658736
1898.8787650073991 2500.3042357988343
1899.5645530395832 2575.117174749409
1900.2501757696118 2578.659861488836
1900.9356332385796 2242.712626271011
1901.620925487574 2754.0375865058563
1902.3060525576602 2597.7322270067853
1902.9910144898859 2644.763901565325
1903.6758113252872 2305.6419849745157
1904.3604431048789 2453.7491291504707
1905.0449098696663 2544.8351556842545
1905.7292116606295 2389.8515142649117
1906.4133485187394 2439.0678146367272
1907.0973204849488 2133.6457528565293
1907.7811276001976 2355.5660237183465
1908.4647699053967 2507.3323926917283
1909.1482474414588 2289.7449644653343
1909.8315602492694 2130.3678976956044
1910.5147083696957 2602.6493206376376
1911.1976918436012 2517.4805027072457
1911.880510711815 2362.110733358559
1912.5631650151681 2484.5125216436227
1913.2456547944657 2412.5773189584934
1913.927980090495 2346.0390285885824
1914.6101409440362 2416.9150924282662
1915.2921373958416 2439.8923429547635
1915.9739694866603 2452.777097445164
1916.655637257214 2745.9645166109594
1917.3371407482136 2334.3056464976626
1918.0184800003572 2559.297136951087
1918.6996550543154 2485.1450114436498
1919.3806659507554 2589.8087481146304
1920.0615127303208 2523.6877444274005
1920.7421954336423 2477.791356486496
1921.4227141013343 2570.2043369991934
1922.103068773993 2444.1879955844606
1922.783259492202 2606.438451372143
1923.4632862965227 2419.9259648127854
1924.1431492275078 2396.292442668785
1924.8228483256917 2399.7800562639195
1925.5023836315922 2479.8677317711667
1926.1817551857057 2630.1779461732303
1926.8609630285227 2210.5481948889515
1927.5400072005123 2390.53293095738
1928.218887742125 2276.661720605697
1928.8976046938005 2087.7861455710627
1929.5761580959588 2507.203724599084
1930.2545479890086 2464.918724353586
1930.9327744133352 2206.5141527999326
1931.6108374093164 2465.0435316399844
1932.2887370173066 2242.3570881557343
1932.9664732776473 2538.736621379547
1933.6440462306673 2368.819140659128
1934.3214559166754 2228.6776222472686
1934.9987023759659 2628.43324270835
1935.675785648813 2470.1517518965356
1936.3527057754836 2132.335265208099
1937.029462796223 2584.4765338842863
1937.70605675126 2329.7635809324292
1938.3824876808085 2274.3107287703324
1939.058755625072 2237.829513727672
1939.7348606242267 2289.9657647829567
1940.4108027184448 2413.8249135781784
1941.0865819478713 2510.2544755526105
1941.7621983526478 2177.342511205463
1942.4376519728921 2163.541130254057
1943.1129428487038 2211.996040592231
1943.7880710201734 2324.821936420991
1944.4630365273733 2512.7795079986026
1945.1378394103576 1973.8283120826811
1945.8124797091714 2013.3735727468818
1946.4869574638324 2052.926933432759
1947.161272714353 2294.1295562061487
1947.8354255007234 2408.2606432323887
1948.5094158629272 2367.914189177901
1949.1832438409183 2653.4854913524605
1949.8569094746435 2564.847192550182
1950.530412804037 2578.76972725165
1951.2037538690092 2503.4706882435494
1951.8769327094578 2250.341085718998
1952.5499493652678 2358.173971854495
1953.222803876306 2286.1838157417114
1953.895496282421 2181.8589275537097
1954.5680266234522 2279.8350849214958
1955.2403949392155 2382.7213243109286
1955.9126012695142 2049.7650118328356
1956.5846456541403 2362.344451979662
1957.2565281328643 2190.069291812887
1957.9282487454457 2383.066724935018
1958.5998075316202 2666.391158969075
1959.27120453112 2370.9493426180115
1959.9424397836501 2181.867614474302
1960.613513328908 2461.986107640027
1961.2844252065697 2617.9624008339624
1961.9551754563017 2444.271857494093
1962.6257641177453 2153.3125916915064
1963.29619123054 2334.6835826096867
1963.966456834296 2181.724966475623
1964.6365609686181 2073.770485379793
1965.306503673086 2440.296766985851
1965.976284987275 2221.87072964906
1966.645904950734 2204.2651131217267
1967.315363603002 2102.7302979533742
1967.9846609836077 2275.314289117043
1968.6537971320486 2431.144932799855
1969.3227720878222 2228.5466763375007
1969.9915858904042 2115.6596232102484
1970.660238579252 2467.1297593760396
1971.3287301938108 2276.3477411986005
1971.997060773514 2012.4326879419023
1972.665230357772 2265.014177970566
1973.3332389859843 2107.2329499482353
1974.0010866975335 2232.8450149787154
1974.6687735317864 2415.3198115675013
1975.3362995280932 2364.8014379728843
1976.003664725793 2423.392425688495
1976.6708691642052 1917.1005706403703
1977.3379128826364 2215.9209077955297
1978.004795920373 2379.571032334429
1978.6715183166925 2680.7987082459767
1979.3380801108524 2532.307226073191
1980.0044813420973 2383.71380950739
1980.6707220496555 1981.0667824509478
1981.3368022727373 2142.3232850412232
1982.0027220505417 2365.9825590313385
1982.66848142225 1999.9188208408873
1983.3340804270283 2008.8478192743828
1983.999519104027 2457.9489368954855
1984.6647974923835 2476.4948182539656
1985.329915631215 2503.0872247368598
1985.99487355963 2263.2101341592033
1986.6596713167146 2390.1085532654215
1987.3243089415428 2347.911920526173
1987.9887864731754 2525.354381860312
1988.6531039506553 2176.3634045237804
1989.3172614130071 2544.805765934197
1989.9812588992481 2316.5720424021456
1990.645096448372 2063.6968308122377
1991.3087740993633 2253.9052057044964
1991.9722918911848 2194.1577612557126
1992.635649862792 2276.347043568433
1993.2988480531185 2489.7254646766323
1993.9618865010852 2664.978525245318
1994.6247652455968 2162.054164647352
1995.287484325545 2068.658842496462
1995.9500437798033 2341.2405920319015
1996.6124436472292 1973.4011118644976
1997.2746839666706 2271.1786439446805
1997.936764776954 2359.8994069936502
1998.598686116895 2188.5499776129914
1999.2604480252903 2492.7297988118935
1999.9220505409212 2162.82531284945
2000.5834937025593 2125.0809979819287
2001.2447775489582 2159.1552693725976
2001.9059021188514 2299.2298789319448
2002.5668674509616 2278.5142321261874
2003.2276735839987 2267.8906231025776
2003.8883205566508 2484.2731674127626
2004.5488084075987 2113.983630009673
2005.2091371755014 2122.6714584671363
2005.8693068990033 2224.588405979443
2006.5293176167397 2440.7416805384864
2007.1891693673224 2136.1314596380516
2007.848862189354 2008.5535518411816
2008.5083961214223 2151.9679152494173
2009.1677712020955 2073.3352574220685
2009.8269874699254 2103.9680170001798
2010.4860449634598 1975.8366278607834
2011.1449437212177 2397.5759070981885
2011.8036837817108 2284.897219112913
2012.4622651834325 2585.4959858641723
2013.1206879648653 2492.906569096199
2013.7789521644736 2585.940288561225
2014.4370578207036 2054.6560503020955
2015.0950049719922 2230.4903959795665
2015.7527936567585 2213.784904703746
2016.4104239134067 2241.3186796001346
2017.067895780323 2652.823988027171
2017.725209295886 2570.215717597337
2018.3823644984514 2487.3148341343244
2019.0393614263648 2224.1021762357227
2019.6962001179545 1945.2550235034505
2020.3528806115355 2237.572220950838
2021.0094029454067 1989.9877755411817
2021.6657671578487 2166.804212769645
2022.321973287133 2195.5334130939527
2022.9780213715148 2182.6740379359503
2023.6339114492293 1779.455532508841
2024.2896435585026 2175.4781784776933
2024.9452177375442 2161.8170160522122
2025.600634024544 2507.1486091391544
2026.2558924576842 2227.4527920471533
2026.9109930751292 2277.798599462507
2027.565935915025 2071.5305977262688
2028.2207210155066 2520.0658308797383
2028.8753484146964 2489.5391112687553
2029.529818150695 1997.0899204237146
2030.1841302615903 2424.5512946375025
2030.8382847854573 2058.999340952956
2031.4922817603601 2118.7742170225756
2032.1461212243357 2268.272022714993
2032.7998032154192 1880.5331106732167
2033.4533277716218 2163.498722435781
2034.1066949309443 2005.0940852012234
2034.7599047313688 2304.781659536048
2035.4129572108704 2460.649616031924
2036.0658524074006 2395.324230305144
2036.7185903589016 2186.6420641184436
2037.3711711032956 2275.559011617825
2038.023594678496 2094.3099390920775
2038.675861122394 1996.9200611122983
2039.3279704728757 2335.432302935879
2039.9799227678031 1974.8897966729012
2040.6317180450278 1949.6387821705666
2041.2833563423865 2149.809492708364
2041.9348376977014 2170.3470965553824
2042.5861621487784 2264.3216721728377
2043.2373297334088 2383.9982294110787
2043.8883404893695 2205.823556168515
2044.5391944544208 2411.272751801188
2045.1898916663158 2275.91262246218
2045.8404321627804 2472.377336462542
2046.4908159815368 1969.2004984713876
2047.1410431602853 2257.204226084715
2047.7911137367173 1912.1107166177394
2048.441027748504 2385.189115513257
2049.090785233302 2114.7894449455735
2049.7403862287592 2178.5915472981133
2050.389830772503 1995.9820169570553
2051.0391189021466 2325.5724910715817
2051.688250655294 2152.5795715352715
2052.337226069527 2052.6413727061567
2052.986045182417 2375.9423692836544
2053.634708031521 2303.412837542122
2054.283214654375 2230.92281912431
2054.931565088511 1858.2666120797305
2055.579759371436 1918.6121296673755
2056.2277975406523 2272.8268584563234
2056.8756796336384 2419.27431363537
2057.5234056878617 1819.784164516245
2058.1709757407752 1989.3427972800557
2058.8183898298194 2289.01302230948
2059.465647992416 2159.222841638963
2060.1127502659747 2309.08472013145
2060.759696687888 1977.3061024565377
2061.4064872955405 2349.2509503269193
2062.053122126292 2351.876782988662
2062.699601217497 2202.7273091682882
2063.345924606485 2053.6467603005763
2063.992092330587 2150.761693840764
2064.638104427102 2022.2072379290978
2065.283960933324 2372.6981497369584
2065.92966188653 2173.797289924466
2066.5752073239855 2350.8480061549653
2067.2205972829397 1913.0840047307065
2067.86583180062 2206.2041172353606
2068.5109109142522 1964.860451060921
2069.15583466104 2172.94394030192
2069.8006030781708 2277.589719772712
2070.445216202821 2206.861298150956
2071.089674072153 2358.324325744673
2071.7339767233116 2260.181037060148
2072.3781241934303 2093.510871253674
2073.0221165196253 2271.450261541976
2073.6659537390024 2006.5277669212278
2074.3096358886505 1946.5111089088882
2074.953163005637 1886.5022849802547
2075.596535127028 1944.8826476728373
2076.2397522898664 1860.266561854949
2076.882814531182 2166.1845905671826
2077.5257218879924 2247.817185815771
2078.1684743973 1908.5785206421056
2078.8110720960885 1894.8418548809145
2079.453515021336 2025.7476781203525
2080.095803209997 2156.7500764781657
2080.7379366990135 1969.3597250479027
2081.37991552532 2052.038498332734
2082.0217397258275 2171.602445436295
2082.6634093374414 1926.3054659757731
2083.3049243970418 2263.7825695672755
2083.9462849415067 2069.21358182656
2084.587491007689 2122.578199793185
2085.2285426324324 2272.0102748101585
2085.869439852564 2131.7885997930052
2086.510182704902 1876.9014105691444
2087.1507712262483 2173.7016073848376
2087.791205453381 1897.5237348237763
2088.4314854230743 2350.129721422699
2089.0716111720867 2111.852616287992
2089.7115827371617 1890.6225210864675
2090.351400155023 1843.4348811588977
2090.991063462385 1796.2569627220641
2091.6305726959527 1793.3460178039254
2092.2699278924047 1901.263730461627
2092.9091290884153 2009.4802112821174
2093.548176320641 1989.4674297221718
2094.187069625721 2236.082251426198
2094.8258090402887 1876.752493497002
2095.464394600951 2124.9591716192326
2096.102826344313 2343.208921217564
2096.741104306955 2446.836224364496
2097.379228525453 1841.5633324375667
2098.017199036358 1817.7110296080966
2098.6550158762147 2294.6997884384027
2099.2926790815527 2104.8840918273518
2099.9301886888825 2195.7420586747753
2100.5675447347076 2116.493203517073
2101.2047472555114 2082.0423413745343
2101.841796287761 2047.5223380757216
2102.47869186792 2155.283718455589
2103.1154340324265 1924.8631987872468
2103.752022817709 1861.5767278743729
2104.388458260184 2088.5488878613105
2105.024740396251 2248.1342732528256
2105.660869262292 1978.7128802217424
2106.296844894685 2416.828786324391
2106.93266732978 2125.555252295678
2107.5683366039284 2119.1176376802973
2108.2038527534532 2112.7151766219163
2108.8392158146726 2334.9186775124426
2109.4744258238843 1953.4151130830783
2110.1094828173755 1940.272749399011
2110.744386831422 2367.9771005992193
2111.3791379022787 2188.969977305761
2112.01373606619 2346.455225311808
2112.648181359389 2054.494206431196
2113.28247381809 2235.17046528834
2113.916613478492 2138.589588597907
2114.550600376786 2137.555594083265
2115.1844345491445 2260.3572115155202
2115.818116031729 1854.0690135834004
2116.451644860679 2136.1289507738343
2117.085021072133 1824.9408616687444
2117.718244702204 1892.5593896992982
2118.3513157869984 2015.16800531722
2118.984234362604 1878.748191264056
2119.617000465092 2138.405401008551
2120.249614130529 2343.331941150596
2120.8820753949585 1921.2228715755525
2121.5143842944162 1957.142894943335
2122.14654086492 1890.1520092298665
2122.7785451424734 2256.9280874746732
2123.4103971630702 2238.5147975573063
2124.042096962681 2220.304958655468
2124.6736445772767 2083.8718352273677
2125.305040042802 1876.7952536075186
2125.936283395191 2066.055298233305
2126.567374670365 2100.953502456334
2127.198313904233 1901.464546145713
2127.8291011326855 1880.6066966154299
2128.4597363916037 1859.4817270129297
2129.0902197168507 2107.2773280812576
2129.720551144279 1870.029918089663
2130.3507307097225 2351.9735872767073
2130.980758449008 2417.0257636855936
2131.6106343979427 2348.635302005107
2132.2403585923203 2280.0462527946274
2132.8699310679276 2289.9244190092227
2133.499351860526 2057.551144124676
2134.1286210058715 2240.929282642302
2134.7577385397053 1845.8908401699853
2135.3867044977487 2100.7786744462587
2136.0155189157176 2253.4905985902033
2136.644181829308 2148.6076511435444
2137.2726932742025 1919.649252206335
2137.901053286074 2282.3698950672556
2138.5292619005777 2052.0988249398574
2139.1573191533535 2051.387574423572
2139.7852250800315 2288.3679350651337
2140.4129797162295 2165.8804564677203
2141.0405830975433 1788.73513681543
2141.6680352595613 1734.9561605930194
2142.2953362378576 1681.0938849035533
2142.9224860679915 1887.3972801766001
2143.549484785508 1846.2472444912532
2144.1763324259373 2020.1973924930103
2144.803029024799 1930.880340630371
2145.429574617594 1919.9291013504785
2146.0559692398165 2228.671375337145
2146.682212926942 1822.612420588283
2147.308305714432 1833.9987575219948
2147.9342476377333 2103.464858673463
2148.5600387322847 2112.328971117645
2149.185679033506 2188.7318828110674
2149.8111685768017 2002.8904838202864
2150.4365073975678 1870.519560018621
2151.061695531187 2017.6289438832678
2151.686733013021 2140.929273070829
2152.311619878423 2068.9649796191284
2152.9363561627342 1987.918111925635
2153.560941901278 1878.4380964492132
2154.1853771293663 2028.9435914195444
2154.809661882293 2203.8518090412613
2155.433796195348 2238.7169067627433
2156.0577801037944 2056.152642415923
2156.681613642895 2193.343512550173
2157.3052968478896 2070.701499413285
2157.928829754006 2117.781775882898
2158.552212396462 1966.7408773675427
2159.1754448104566 1967.6679852109446
2159.7985270311783 1725.2572987436695
2160.4214590938027 1619.398435485588
2161.0442410334927 1567.742665623467
2161.6668728853874 1982.358593364805
2162.289354684628 1845.8282663839514
2162.911686466332 1982.07389430786
2163.533868265602 2270.0453716747893
2164.1559001175337 2330.323926990581
2164.7777820572046 2224.566371826472
2165.399514119681 1967.9734670504233
2166.021096340013 2138.3933124508753
2166.6425287532384 1699.967370244028
2167.263811394385 1918.09186571028
2167.8849442984574 2137.416099857087
2168.505927500455 2129.2097394352973
2169.126761035366 2121.218351793313
2169.7474449381552 2063.7485272468607
2170.367979243778 1669.9235518956982
2170.9883639871823 1946.121952248838
2171.608599203293 1944.8726772092093
2172.2286849270276 2450.8580247864916
2172.8486211932886 2544.9196439231982
2173.4684080369625 1758.953306720467
2174.0880454929265 1733.4659329153444
2174.7075335960417 1903.382426525405
2175.3268723811543 2205.9824369859107
2175.9460618831 2007.483374691834
2176.565102136701 1889.4061987130033
2177.1839931767627 1860.0212771534916
2177.802735038078 1830.5854112555055
2178.421327755432 1721.1936585218286
2179.0397713635866 1858.0797153417927
2179.658065897298 1552.1406039440228
2180.276211391305 1954.9396803511943
2180.8942078803357 1792.6822067959365
2181.5120553991 1976.8784315979651
2182.129753982299 1788.6726019723767
2182.7473036646206 1927.599778163508
2183.3647044807367 1904.27420504182
2183.9819564653044 1815.0357893162393
2184.599059652968 2074.563473587187
2185.216014078367 2276.754202487303
2185.832819776113 2284.920220961744
2186.4494767808137 2292.9748861067055
2187.065985127063 2005.7884260177118
2187.682344849436 1715.109375545715
2188.298555982501 2185.8193893523253
2188.9146185608097 2045.1284977995358
2189.530532618901 2064.4302416213263
2190.1462981912937 1866.2770019865698
2190.761915312507 2025.6612013367783
2191.377384017036 1879.029210222064
2191.9927043393654 1903.949200015232
2192.6078763139667 1552.454776954433
2193.2228999753006 1599.0741243864736
2193.837775357808 1645.8156904048872
2194.452502495922 1584.5488934820974
2195.0670814240602 1875.1931448822324
2195.6815121766285 1837.3222480908667
2196.2957947880186 1823.387017515369
2196.9099292926057 1809.4300021261956
2197.523915724758 1994.2169574414645
2198.137754118825 1882.0564256927385
2198.7514445091456 1949.6031542390915
2199.3649869300443 2017.3833795548137
2199.9783814158327 2105.439529114777
2200.5916280008096 2111.4716300521895
2201.2047267192593 2117.566132153088
2201.8176776054515 2161.8388054298007
2202.430480693649 1861.8998092452978
2203.0431360180955 2063.1146915878944
2203.6556436130195 2131.2599905654856
2204.268003512645 2114.623498359556
2204.8802157511727 2098.0371244074986
2205.492280362796 2198.9253640605293
2206.1041973816937 2045.3561447560683
2206.715966842032 1871.6974187054122
2207.3275887779655 1825.2127235281914
2207.93906322363 1961.1912870785986
2208.550390213153 2131.0126052778514
2209.1615697806465 1902.0898222516912
2209.7726019602105 1429.8870805980864
2210.3834867859277 1524.018443737858
2210.9942242918787 1858.0986316282592
2211.6048145121167 1799.6228971271605
2212.2152574806914 2499.9210002178534
2212.825553231638 1792.6581413878725
2213.435701798975 2560.220190127617
2214.045703216707 1794.6226866535424
2214.655557518832 1650.0568768910114
2215.2652647393297 1640.18891022198
2215.874824912169 1539.7124841210175
2216.4842380713 1967.7397448291078
2217.09350425067 1765.3217462455764
2217.7026234842033 1991.191408420825
2218.311595805819 2380.188076777299
2218.9204212494133 1849.030397648269
2219.52909984888 2252.8328935994546
2220.137631638092 2236.630369923668
2220.7460166509154 2220.252507648661
2221.354254921198 1866.7829539260824
2221.9623464827764 1983.338966622084
2222.5702913694713 1903.2957725302228
2223.178089615096 2107.8040264663023
2223.7857412534486 1811.854609877289
2224.39324631831 1701.171020318928
2225.000604843457 1672.4270378908218
2225.607816862641 1867.956425303229
2226.214882409611 2063.7020285293956
2226.8218015180973 2001.626047659167
2227.4285742218217 1823.6092557884235
2228.0352005544864 1737.870271404388
2228.6416805497847 1651.951874699632
2229.248014241399 1835.3498193041632
2229.8542016629945 1652.2426932667252
2230.460242848223 2050.501792627288
2231.0661378307304 1923.268178558629
2231.671886644139 1795.9382774849432
2232.277489322065 1648.8739781534557
2232.8829458981127 1421.6884719436605
2233.48825640587 2019.0336628340763
2234.0934208789095 2608.43495568498
2234.6984393507955 2251.852979633369
2235.3033118550793 2361.2864764034616
2235.9080384252975 1950.1987656760296
2236.5126190949723 1734.1835205968885
2237.1170538976166 1617.2286117941908
2237.721342866729 1428.4651663981988
2238.32548603579 1834.9924229603232
2238.9294834382763 1928.742634546919
2239.533335107646 1742.6615058813663
2240.1370410773434 1721.2919691388233
2240.740601380803 1699.8829279475763
2241.3440160514474 1658.6230554994556
2241.9472851226783 1817.2985861013262
2242.550408627896 1924.024092358617
2243.1533866004793 2030.9605266600124
2243.756219073799 1954.5867117029302
2244.3589060812064 1791.0553952471473
2244.961447656049 1670.0893057172157
2245.5638438316564 1689.3600500764937
2246.166094641343 1797.481052116166
2246.7682001184166 1760.7247352731079
2247.3701602961664 1940.3518287002341
2247.971975207871 1894.789694121981
2248.5736448867974 2158.04193243992
2249.175169366197 1856.7677961194192
2249.7765486793123 1675.3694798288186
2250.3777828593684 1834.5736953221149
2250.9788719395783 1944.7222070018584
2251.579815953146 1917.7181284861606
2252.1806149332606 1657.8000200126746
2252.781268913097 1782.7491645037874
2253.381777925817 1647.8645026977624
2253.9821420045737 1880.5852356959138
2254.5823611825035 2064.2611645284974
2255.1824354927303 2001.2287224250817
2255.782364968365 1766.6642661378253
2256.38214964251 1531.8302072316542
2256.9817895482483 1657.4722931520923
2257.5812847186553 1936.4866587790052
2258.180635186791 1959.0926830917372
2258.779840985704 1981.8018204194718
2259.37890214843 1799.9179193723946
2259.97781870799 1826.373468491724
2260.5765906973957 1852.8913034354805
2261.175218149645 1610.0801259083705
2261.773701097718 1607.7188533918415
2262.3720395745895 1605.3111183218723
2262.970233613216 1623.2674861200694
2263.568283246548 1535.202600117344
2264.1661885075137 1496.94327858111
2264.763949429038 1866.4649412027334
2265.3615660440246 1914.7965744150592
2265.959038385374 1665.5965581308108
2266.5563664859637 1613.6201113417364
2267.153550378669 1561.6429878111303
2267.7505900963424 1871.9101900855087
2268.3474856718312 1678.6270360565425
2268.9442371379664 1957.7883563930798
2269.5408445275643 1619.4183420765803
2270.1373078734377 1857.9822658725632
2270.7336272083758 1941.034392525793
2271.32980256516 1773.1177667459087
2271.925833976562 1850.0611529596026
2272.5217214753357 2146.5387911662783
2273.117465094223 1867.5945795478485
2273.7130648659586 1755.6575757308478
2274.308520823257 1823.5472880746097
2274.903832998827 1996.3140700844385
2275.4990014253563 1623.5564717890982
2276.094026135528 2043.3584168653535
2276.6889071620117 1566.3397166720417
2277.2836445374614 2031.5515265288443
2277.878238294519 1799.5518502130012
2278.472688465812 1662.3399946463348
2279.066995083962 1524.864910529468
2279.6611581815705 1735.3493904084207
2280.255177791232 1946.9539733331853
2280.8490539455233 2158.967604327373
2281.442786677013 2132.8288605142325
2282.0363760182554 2064.7757885253404
2282.6298220017943 1853.4361901569987
2283.223124660155 1981.6924671162997
2283.816284025859 1626.4331983540105
2284.4093001314086 1500.1630129422776
2285.002173009292 1373.6301742013732
2285.5949026919952 1832.6505208697442
2286.1874892119777 1715.5802201726121
2286.7799326016993 1609.9453254968062
2287.3722328936 1503.9795908956512
2287.964390120109 1577.8249379387494
2288.556404313642 1714.681081771047
2289.1482755066027 1686.1922560920266
2289.7400037313873 1657.5831720359663
2290.3315890203703 1791.4776170103469
2290.9230314059205 2059.876169626573
2291.5143309203904 1789.6391143478504
2292.1054875961236 1631.379734190323
2292.6965014654506 2125.4984134506794
2293.287372560684 1854.9139960722587
2293.878100914131 1807.6611179913866
2294.468686558086 1760.3655334283926
2295.059129524827 1806.8445254950238
2295.649429846617 2147.9966114459794
2296.239587555716 2035.5180748739826
2296.8296026843636 1828.5522804663153
2297.419475264791 1861.4560022715082
2298.0092053292137 1894.3054933680687
2298.598792909839 1907.0911336238132
2299.1882380388597 1783.6676345617175
2299.777540748455 1906.704616482589
2300.3667010707904 2029.785275606034
2300.9557190380256 1994.074554232827
2301.544594682302 2256.8093477689663
2302.1333280357503 2142.369953558148
2302.721919130485 2027.8454771697893
2303.3103679986198 2056.4141374687774
2303.898674672242 1985.4550676903461
2304.486839183437 1681.120678462134
2305.0748615642697 2046.9923017711753
2305.6627418468015 1634.438969504312
2306.2504800630704 1983.5572063289794
2306.8380762451143 1644.5940124655153
2307.425530424949 1841.5826912964917
2308.012842634582 2039.0091628870955
2308.6000129060103 2059.176706386711
2309.187041271214 1933.1812639240695
2309.773927762164 1806.929841452616
2310.3606724108213 1955.6321430948133
2310.9472752491274 1636.8158766494876
2311.5337363090184 1844.5217004307192
2312.120055622414 1993.9170688949296
2312.706233221221 1790.209516753989
2313.2922691373424 1960.3739793432264
2313.8781634026564 1507.536489583241
2314.463916049037 1652.2653191518264
2315.049527108342 1905.853835539534
2315.6349966124235 2273.6115789066944
2316.2203245931123 2172.4095540022977
2316.8055110822315 1554.4011035074277
2317.3905561115935 1685.0036988335028
2317.9754597129977 1658.764016382347
2318.560221918229 2107.6826518708885
2319.1448427590603 1901.2328598756771
2319.729322267256 1506.8369353842713
2320.313660474563 2070.3516689277576
2320.8978574127195 2610.454620610283
2321.481913113452 2040.8424403217268
2322.0658276084705 1566.5184947845307
2322.6496009294806 1705.7389496232329
2323.233233108165 1842.8543362427547
2323.8167241762058 1980.3237872344569
2324.4000741652617 1964.575527785561
2324.983283106987 2167.0422357777766
2325.5663510330232 2087.2380136503484
2326.1492779749933 1914.3960313808705
2326.7320639645204 1685.3363200806093
2327.3147090332004 1529.8671270914738
2327.897213212629 1616.2265992322284
2328.4795765343843 1702.5819141666805
2329.0617990300307 1727.2933667410896
2329.643880731124 2041.2649591945246
2330.22582166921 2029.112140255027
2330.807621875816 1905.3029984442005
2331.3892813824623 1537.3618703042043
2331.9708002206517 1598.1494312382706
2332.5521784218818 1728.7922480406319
2333.133416017634 1859.7766598645171
2333.7145130393765 1941.729109496026
2334.295469518571 1908.0453186107814
2334.876285486658 1899.8948061486076
2335.456960975076 1611.731836873229
2336.037496015242 1864.825866495887
2336.6178906385667 1921.7275150454002
2337.198144876451 2014.7792264059299
2337.778258760278 1529.9870926943693
2338.3582323214214 1421.8709177310386
2338.938065591243 1913.5171620557867
2339.517758601087 1938.0357920497722
2340.0973113822965 1716.1240074729035
2340.676723966193 1535.07724984247
2341.255996384094 1628.163568734209
2341.835128667295 1982.4239789584517
2342.4141208470883 1847.7522199469536
2342.992972954751 1840.9787560826378
2343.5716850215467 1773.4925833744533
2344.1502570787306 1311.876162047526
2344.7286891575386 1563.2368389313995
2345.3069812892045 2113.9804470203626
2345.885133504944 1992.1268216697313
2346.4631458359618 1781.1415311050655
2347.04101831345 1798.0030024807777
2347.6187509685915 1888.0396498506839
2348.196343832553 1611.8064256866296
2348.7737969364935 1731.4834464240707
2349.351110311558 1538.6928668310065
2349.9282839888765 1609.6182005961282
2350.5053179995757 1652.7295181111083
2351.0822123747585 1379.1723109674494
2351.658967145526 1516.9290874762426
2352.2355823429643 1655.00616642673
2352.812057998144 1995.2378584450532
2353.3883941421263 1568.5704199956797
2353.9645908059647 1876.1456229436947
2354.540648020693 1821.813767657855
2355.116565817336 1804.415987193859
2355.6923442269126 1788.765653399776
2356.2679832804224 1525.8130722495025
2356.8434830088518 1506.233823816596
2357.41884344318 1792.7334067766672
2357.994064614377 1714.7851864757881
