#exp_cfg={"servo_angle": 0.0, "laser_lim": 100.0, "servo_angle_to": 18.0, "laser_wup": 0.0, "bt_dev": "EnSpectr-25AE3", "laser_wdn_max": 0.0, "frames": 10.0, "servo_used": 0, "servo_calib_use": 0, "laser_wdn_min": 0.0, "servo_pix_from": 90.0, "cooler_tout": 300.0, "servo_angle_from": 0.0, "servo_calib": "[-1.9174921013161362e-09, 3.9322238269163779e-05, -0.27385609119055809, 653.59552119713567]", "laser_autoctl": 0, "servo_pix_to": 3682.0, "laser_pw": 100.0, "cooler_on": 0, "laser_volt": 4.0, "cooler_autoctl": 0, "cooler_curr": 70.0, "cooler_startup": 10.0, "laser_fixed_pw": 0, "gain": 1.3, "offset": 2.53059635486, "servo_calib_degree": 3.0, "laser_curr": 55.0, "shutter": 8200.0, "servo_calib_step": 1.0, "laser_fixed_curr": 0, "exp": 2000.0, "ccd_volt": 4.7, "bt_addr": "00:06:66:62:5A:E3", "servo_delay": 500.0, "laser_autooff": 1}
#proc_cfg={"flat_auto_wnd": 200.0, "flat_auto_fr": 200.0, "flat_auto_shift": 5.0, "yconv": 1, "flatten": 1, "flatten_strength": 100.0, "xfrom": 300.0, "auto_max_frame": 2000.0, "auto_signal": 48000.0, "flat_auto_tol": 0.1, "autoclip": 1, "xrel_range": 0.0, "flat_auto_to": 4000.0, "intensity_adj": 1.0, "xrel": 7852.0, "rmhot": 1, "flat_auto_slit": 4.999999999999997, "auto_ini_exp": 300.0, "auto_off": 0, "xto": 2860.0, "flat_auto_ref": "", "flat_auto_rank": 1, "autobackg": 0, "xrel_adj": 0.0, "auto_black_lvl": 1, "base_wnd": 100.0, "sub_baseline": 0, "xconv": 2, "auto_max_exp": 1000.0, "auto_total_exp": 10000.0, "auto_exp": 0, "rmripple": 0, "black_lvl": 8280.25, "shutter_clip_adj": 0.0, "auto_bckg": 0, "flat_auto_thr": 0.9, "subbackg": 1}
316.8218498245369 20827.453290046982
317.89969571804795 20690.694157643135
318.977263876126 20520.53269567388
320.05455438786703 20509.305209147693
321.1315673423287 20454.481225406802
322.2083028285215 20527.181830790196
323.2847609354267 20342.433432169717
324.3609417519747 20247.749365492047
325.43684536705587 20225.791157899374
326.5124718695279 20007.28446535677
327.58782134820103 20113.1647316771
328.66289389184385 20084.169883090563
329.7376895891921 19872.638761678663
330.8122085289342 19881.48508930853
331.88645079971866 19813.35116871124
332.9604164901575 19724.69394770396
334.03410568881554 19670.702642690972
335.1075184842266 19916.94227184008
336.18065496487543 19570.89278565276
337.2535152192122 19531.225544281468
338.32609933564163 19532.51808592539
339.39840740253203 19449.645386562315
340.4704395082099 19444.01496977461
341.5421957409617 19447.164313218826
342.6136761890357 19420.45830172619
343.6848809406365 19394.84909637773
344.75581008392874 19297.180576531235
345.82646370703696 19252.84364387916
346.8968418980512 19223.54917877241
347.96694474501055 19198.62741590628
349.0367723359268 19128.887585183962
350.106324758759 19208.258529819992
351.1756021014353 18977.721454962597
352.2446044518383 19080.432793337037
353.31333189781435 19151.88508249684
354.38178452716966 19102.220057339957
355.449962427665 19071.066579269158
356.51786568702846 19062.322478109727
357.58549439294256 19140.484073424323
358.6528486330535 19137.405374006914
359.71992849496564 19047.94627892295
360.7867340662433 19094.49938845001
361.8532654344144 19060.929078843306
362.9195226869597 19227.064044619357
363.9855059113288 18982.28372622667
365.05121519492604 19011.506825665692
366.11665062511565 19200.72949390079
367.1818122892273 19255.83230500352
368.2467002745434 19013.59557281861
369.31131466831175 19205.08337395409
370.375655557742 19242.094227605317
371.4397230299983 19114.66618110562
372.5035171722102 19139.64465383553
373.5670380714637 19107.906156453413
374.6302858148101 19331.6391078246
375.6932604892554 19206.590418998523
376.7559621817709 19273.305803071038
377.81839097928605 19048.843655607106
378.8805469686886 19170.738966946767
379.94243023683157 19034.522646081765
381.0040408705263 19127.696769139897
382.0653789565458 19088.599282332165
383.1264445816196 19032.01937372822
384.1872378324406 19074.996515280305
385.2477587956637 19144.07974949879
386.3080075579037 19012.13473399526
387.3679842057336 18910.50417601444
388.4276888256918 19012.008053295984
389.48712150426945 19049.117068151783
390.54628232792857 19015.549243343856
391.6051713830857 18973.04404605688
392.66378875611736 18935.623966180516
393.7221345333637 19009.341718378702
394.7802088011249 18817.432899094332
395.838011645661 18900.50220163134
396.89554315319765 18696.72523764963
397.9528034099112 18722.19131831075
399.00979250194723 18656.48678919164
400.06651051541485 18644.962233384438
401.1229575363741 18651.230622627045
402.17913365085224 18556.41264719089
403.23503894483656 18692.78922333727
404.2906735042761 18490.816824037756
405.3460374150818 18449.30806633607
406.401130763119 18452.784545630602
407.455953634224 18480.328207607185
408.5105061141876 18484.298816372167
409.56478828876243 18293.103505918636
410.6188002436629 18304.31931086526
411.6725420645689 18232.0504757287
412.72601383711117 18348.228870567305
413.77921564689314 18328.74837136868
414.8321475794728 18164.228616645585
415.88480972036814 18170.113020461762
416.93720215506437 18315.872699042775
417.9893249690049 18156.5288869276
419.04117824759123 18030.550172460447
420.09276207619223 18114.58182646892
421.144076540133 18106.573482930427
422.1951217247042 18071.69141631658
423.24589771515275 18033.61463722168
424.2964045966928 17994.011326385804
425.34664245449494 18075.09718146974
426.3966113736933 17997.5299821438
427.4463114393875 17921.029762220867
428.49574273662984 17913.336667379048
429.5449053504417 17837.547891770857
430.5937993658026 17932.67097795562
431.6424248676558 17706.58557179875
432.6907819409007 17804.280710851126
433.73887067040596 17848.801030118488
434.7866911409965 17798.74965589217
435.8342434374608 17655.321804013256
436.88152764455117 17734.08446133603
437.9285438469724 17750.433312868437
438.9752921294057 17606.732609220497
440.02177257648145 17632.35332923418
441.06798527279716 17521.677754871438
442.1139303029122 17624.36776062291
443.1596077513459 17620.442045325017
444.2050177025794 17584.78011891891
445.25016024105753 17628.75131710823
446.2950354511886 17552.946101578345
447.33964341733736 17539.785980552413
448.383984223834 17483.57867839219
449.4280579549686 17393.72900274897
450.471864694995 17448.191292078474
451.5154045281306 17501.433258407
452.5586775385509 17457.80054909348
453.60168381039693 17418.92486246624
454.64442342776783 17571.508675113375
455.6868964747264 17414.316667639567
456.7291030353008 17331.468344613786
457.77104319347563 17466.055495612687
458.8127170332027 17403.412723949055
459.854124638392 17352.706059141856
460.895266092919 17496.267445272984
461.93614148061897 17478.17968073827
462.97675088529104 17464.42308375832
464.01709439069236 17459.367925441133
465.0571720805492 17496.48545445849
466.0969840385442 17406.624139685027
467.1365303483253 17608.192716771766
468.17581109350067 17416.998412984336
469.2148263576437 17501.639835863654
470.2535762242878 17509.83638594011
471.29206077693016 17655.624863980385
472.33028009902773 17676.95078687493
473.3682342740012 17663.524342516444
474.40592338523857 17739.481048539856
475.4433475160804 17730.15380834092
476.4805067498364 17834.363740149198
477.51740116978 17868.245578685306
478.5540308591426 18124.09586262091
479.59039590112116 18243.227080343153
480.6264963788726 18308.912288408268
481.6623323755193 18512.51405983028
482.6979039741436 18568.61606551805
483.7332112577915 18853.80870747217
484.76825430947247 19043.824441007302
485.80303321215797 19245.758888406406
486.837548048783 19357.135013200077
487.8717989022425 19499.864888267744
488.90578585539697 19586.035701315617
489.9395089910686 19790.99204928929
490.97296839203955 19689.36746994851
492.00616414106116 19670.215290708595
493.0390963208429 19581.901566539258
494.0717650140559 19564.139295177993
495.10417030333883 19581.173074705737
496.1363122712901 19455.933923350094
497.16819100046814 19172.58960644556
498.1998065734024 18950.524404913467
499.2311590725767 18804.664774483903
500.26224858044407 18603.88722723364
501.2930751794156 18597.30091931999
502.3236389518679 18478.817909046767
503.35393998014115 18127.000436676502
504.38397834653733 18154.942403666555
505.4137541333221 18103.9812341075
506.4432674227228 17925.204497720002
507.4725182969323 17851.781958831354
508.5015068381035 17797.4780202654
509.53023312835467 17743.391997883737
510.55869724976765 17730.72324647327
511.58689928438434 17517.302807565295
512.6148393142121 17536.77411227575
513.6425174212218 17631.615370074218
514.6699336873462 17603.314876752225
515.6970881944835 17657.989221276417
516.7239810244901 17470.15052796092
517.7506122591931 17461.485279978653
518.7769819803761 17540.19102715191
519.8030902697901 17530.59337669561
520.8289372091476 17534.01355810994
521.8545228801249 17625.797900249094
522.8798473643619 17511.824624760935
523.9049107434621 17540.87223761057
524.9297130989908 17557.63731055182
525.9542545124805 17572.911281472367
526.9785350654201 17496.632708887435
528.0025548392696 17528.800201228492
529.0263139154504 17507.963426160255
530.0498123753423 17540.444025373385
531.073050300296 17479.571452513253
532.0960277716204 17364.157966179857
533.1187448705896 17299.741960036226
534.1412016784416 17354.85508425306
535.1633982763833 17349.755597224164
536.1853347455726 17203.878612606637
537.2070111671401 17154.965479010374
538.2284276221817 17092.17193708473
539.2495841917516 17020.074023783465
540.2704809568677 16877.068888173417
541.2911179985167 17126.02849218239
542.3114953976419 16887.912464833105
543.3316132351592 16917.693291693056
544.3514715919409 16754.615563640582
545.3710705488247 16916.865312213835
546.3904101866156 16667.259690208663
547.4094905860784 16775.324945505567
548.4283118279418 16662.73038680239
549.4468739929034 16717.42864587616
550.4651771616191 16645.30285820139
551.4832214147063 16622.93781212829
552.501006832761 16711.27479019954
553.5185334963226 16665.153843412427
554.5358014859103 16637.424399256288
555.5528108820035 16660.923273912103
556.5695617650363 16564.08197478627
557.5860542154242 16604.32823235295
558.6022883135283 16652.46456122067
559.6182641396881 16590.23057132424
560.6339817741991 16551.95395807152
561.6494412973225 16695.979106444443
562.6646427892883 16646.56110193023
563.6795863302796 16530.600142438703
564.694272000459 16561.508584677962
565.7086998799423 16705.078898059543
566.7228700488104 16541.390338338235
567.7367825871115 16568.69666898446
568.7504375748576 16557.114320841534
569.7638350920224 16614.0274222253
570.7769752185486 16626.429280985216
571.7898580343353 16615.097530749183
572.802483619258 16550.11685745982
573.8148520531431 16818.27878373794
574.8269634157932 16747.617396403075
575.8388177869692 16777.394149881133
576.8504152463938 16809.819837188683
577.8617558737587 17000.54941917135
578.8728397487175 16923.633568450412
579.883666950891 17109.98329136517
580.8942375598654 17166.707328917204
581.9045516551851 17314.37716361911
582.9146093163617 17521.944433510613
583.924410622878 17428.1997999254
584.9339556541727 17480.03436682466
585.9432444896538 17734.724052353788
586.9522772086875 17695.543955875237
587.9610538906127 17644.875502559833
588.9695746147318 17645.515373267546
589.9778394603054 17662.44892739041
590.985848506567 17554.5326500991
591.9936018327098 17538.796173017832
593.0010995178891 17228.456563210973
594.0083416412344 17344.377756914648
595.0153282818283 17226.756967930047
596.0220595187293 17109.466226309738
597.0285354309508 16963.832012272316
598.0347560974806 16910.223831989384
599.0407215972609 16927.53197850831
600.0464320092051 16900.20024741899
601.0518874121954 16774.01461575561
602.0570878850685 16730.49932163266
603.062033506636 16780.203922005552
604.0667243556636 16842.98338589844
605.0711605108936 16615.216964942145
606.0753420510264 16919.788906892023
607.0792690547278 16836.49699959155
608.082941600629 16886.766313511893
609.0863597673306 16678.412419254357
610.0895236333909 16928.727829367206
611.0924332773357 16977.453758842963
612.0950887776617 17155.84514146592
613.0974902128219 17146.174088620002
614.0996376612384 17369.62414029918
615.1015312013005 17400.142911990515
616.1031709113595 17430.84600974213
617.1045568697336 17459.059315080554
618.1056891547069 17769.279254534296
619.1065678445229 17946.28385479032
620.1071930173985 18251.152532387507
621.1075647515099 18380.354703532
622.1076831250048 18485.40129419917
623.1075482159849 18762.17038419407
624.1071601025305 18886.71468248238
625.1065188626781 19119.6539218478
626.105624574433 19449.366119489503
627.1044773157682 19594.938102713524
628.1030771646128 19752.951388655467
629.1014241988742 19844.093038489787
630.0995184964158 20197.266667359792
631.0973601350688 20216.63232825122
632.0949491926294 20581.582776150615
633.0922857468631 20229.15760140377
634.089369875499 20461.070543114318
635.0862016562278 20321.081504151243
636.0827811667077 20138.262174326814
637.0791084845641 20140.261781486242
638.0751836873878 19916.06940964791
639.0710068527369 19930.502087109995
640.0665780581294 19628.332281775765
641.0618973810506 19437.19970949017
642.0569648989604 19356.14358436787
643.0517806892676 18972.511340405028
644.0463448293649 18880.825814868418
645.040657396592 18567.978737451733
646.0347184682723 18391.771218310438
647.0285281216875 18133.568385132006
648.0220864340772 18126.819005114874
649.0153934826558 17767.47430144342
650.0084493446047 17644.53013368251
651.0012540970674 17580.84741962674
651.9938078171526 17386.252690207853
652.9861105819346 17265.11692265818
653.9781624684565 17278.454610435358
654.9699635537254 17001.12886841817
655.9615139147136 17109.63303834315
656.9528136283589 16849.061916366863
657.9438627715699 17048.245067098436
658.9346614212154 16833.843546205084
659.925209654135 16614.89100123867
660.9155075471263 16691.972153167913
661.9055551769616 16547.756969736693
662.895352620375 16698.923578084446
663.8848999540678 16697.239888857544
664.8741972547068 16401.06829348687
665.863244598926 16382.360568616268
666.8520420633213 16370.186687492383
667.8405897244611 16350.498743366905
668.8288876588758 16301.979409463218
669.8169359430613 16337.697802569886
670.8047346534822 16276.37291375112
671.7922838665672 16210.876093802997
672.7795836587156 16304.235472389375
673.766634106285 16386.83142335754
674.7534352856092 16165.598094029436
675.7399872729766 16248.50980724277
676.7262901446538 16285.992132644315
677.712343976862 16244.349118610737
678.6981488457986 16361.46749044621
679.6837048276229 16243.205957846698
680.6690119984596 16298.161163938119
681.6540704344043 16304.268222455052
682.6388802115107 16199.349735327534
683.6234414058108 16147.183696901187
684.6077540932874 16016.282943716815
685.591818349907 16229.172926924895
686.575634251587 16116.727191887121
687.5592018742263 16036.913107780982
688.5425212936734 15992.77660585793
689.5255925857564 15980.547375954233
690.5084158262707 15907.643999527907
691.4909910909646 16010.468149799382
692.4733184555644 15835.495534014164
693.4553979957618 15887.126449106723
694.4372297872123 15826.928688747179
695.4188139055404 15678.440050122153
696.4001504263324 15630.475293338493
697.3812394251509 15751.796595695463
698.3620809775111 15567.079985743167
699.3426751589104 15628.687940826063
700.3230220448004 15484.238775701937
701.3031217106054 15643.67719100531
702.2829742317172 15718.198287910142
703.2625796834873 15577.203260493014
704.2419381412474 15518.578326568764
705.22104968028 15643.376488177179
706.1999143758458 15574.435652837408
707.178532303169 15601.07560869332
708.1569035374378 15543.724715480788
709.1350281538107 15611.999281703189
710.1129062274158 15606.948278286925
711.0905378333373 15758.335932818683
712.0679230466376 15601.318274110283
713.0450619423427 15786.008710513497
714.0219545954424 15856.098626867959
714.9986010808989 15746.059262910658
715.9750014736292 15766.276599040712
716.9511558485392 15970.859302880961
717.9270642804786 15911.25175738066
718.9027268442787 16114.123703916286
719.8781436147328 15984.510021061758
720.8533146666014 15927.642063605448
721.828240074612 15903.137471517286
722.8029199134635 15888.981272588915
723.7773542578125 15888.779256359718
724.751543182294 15865.10800934063
725.7254867615029 15882.096457914988
726.6991850700015 15626.529248365478
727.6726381823228 15703.227965304299
728.6458461729599 15668.943218712626
729.6188091163858 15675.24238337765
730.5915270870246 15759.75063230514
731.5640001592856 15556.355438421908
732.536228407529 15688.851282151698
733.5082119060917 15678.359928824377
734.4799507292755 15630.349086861368
735.4514449513481 15561.761119972143
736.4226946465496 15792.675027940722
737.3936998890786 15857.566745605238
738.3644607531078 15626.165341366137
739.3349773127793 15557.057809368878
740.3052496421951 15716.384082945098
741.27527781543 15624.011522676348
742.2450619065221 15407.124479786109
743.2146019894826 15520.510329256886
744.183898138288 15501.761608060164
745.1529504268801 15312.799506555088
746.1217589291682 15298.582764705152
747.0903237190341 15153.130125888147
748.058644870318 15193.632299287705
749.0267224568397 15053.837161969004
749.994556552374 15034.154393202214
750.9621472306771 15053.012184772091
751.9294945654583 15201.524572951073
752.8965986304011 15091.510581871287
753.8634594991636 15048.118351384783
754.8300772453586 15176.460411577753
755.7964519425768 15120.308741094264
756.762583664371 15149.059562179018
757.7284724842611 15098.46565779339
758.6941184757416 14982.77265596273
759.6595217122667 15051.84927582657
760.6246822672638 15081.338112520674
761.5896002141235 14992.492395222693
762.5542756262093 14998.91083453157
763.5187085768503 15046.319391165865
764.4828991393406 15040.287548078428
765.4468473869474 14983.609915733969
766.4105533929032 14927.695320081795
767.3740172304078 14822.830423786718
768.3372389726283 14927.086101944073
769.3002186926988 14773.648393369
770.2629564637282 14715.648257813571
771.2254523587872 14749.523776239792
772.1877064509154 14597.005960339706
773.1497188131179 14554.493558270133
774.1114895183728 14427.694988088293
775.0730186396268 14577.210230525496
776.0343062497905 14283.891553647834
776.9953524217381 14356.04952015362
777.9561572283274 14324.156969446994
778.9167207423689 14394.04129047279
779.8770430366476 14304.909523271312
780.8371241839159 14329.201588167361
781.7969642568951 14239.150583278015
782.7565633282757 14470.575237343966
783.7159214707099 14289.40863378054
784.6750387568281 14244.762503252545
785.6339152592227 14314.4860911697
786.5925510504512 14281.893310933412
787.5509462030477 14305.28477831781
788.5091007895098 14295.992249172035
789.4670148823006 14309.21098622008
790.4246885538596 14248.010347823216
791.3821218765861 14376.408470664557
792.3393149228505 14238.910934789077
793.2962677649975 14341.291555366106
794.2529804753303 14402.365113295373
795.20945312613 14477.563869061449
796.1656857896378 14318.719232961132
797.1216785380675 14444.045209898957
798.0774314435985 14624.410339652535
799.0329445783846 14793.968015575341
799.9882180145414 14789.337972077814
800.9432518241574 14829.61631208926
801.89804607929 14904.298611614082
802.852600851962 14997.126602783892
803.8069162141637 14946.319718189707
804.760992237856 15083.192157480433
805.714828994971 15050.712634315703
806.6684265574077 15158.782442384516
807.6217849970271 15100.182992052773
808.574904385674 14963.066953210839
809.527784795142 15028.463045339196
810.4804262972102 15077.168328636126
811.4328289636178 14851.39591703304
812.3849928660748 14769.904342236001
813.3369180762638 14753.263462985386
814.2886046658241 14579.579724230343
815.2400527063783 14457.33112149835
816.1912622695108 14467.59288222605
817.1422334267718 14436.9235275289
818.0929662496856 14308.235515476787
819.0434608097457 14180.58443090909
819.9937171784059 14051.756494058825
820.9437354271013 13943.815556644036
821.8935156272255 14020.306917327645
822.8430578501484 13912.854335475571
823.7923621672016 13721.698439284388
824.7414286496896 13769.48276394561
825.6902573688876 13765.3433204784
826.6388483960363 13763.316672823761
827.5872018023492 13618.600850432747
828.5353176590033 13875.511171684931
829.4831960371503 13632.039509589396
830.4308370079016 13571.482009911624
831.3782406423525 13743.265949932214
832.3254070115545 13654.21793743725
833.2723361865319 13508.785525025673
834.2190282382799 13480.101435081102
835.1654832377644 13602.498289308951
836.1117012559116 13515.775926136848
837.0576823636256 13589.670705630322
838.003426631778 13438.599543936583
838.9489341312074 13393.162294005178
839.8942049327197 13506.064938371808
840.8392391070975 13528.163730426513
841.7840367250865 13505.2281188838
842.7285978573982 13369.856372203833
843.672922574724 13591.067000296089
844.6170109477152 13432.761465246698
845.560863046996 13422.577290474908
846.5044789431595 13399.797308831505
847.4478587067697 13434.42699058122
848.3910024083561 13547.375776301003
849.333910118421 13435.790379221333
850.2765819074339 13323.271800215056
851.2190178458332 13521.201521412659
852.161218004032 13472.1094581181
853.1031824524016 13415.006093729788
854.0449112612987 13354.329538176124
854.9864045010327 13624.808972961255
855.9276622418947 13402.778811724067
856.8686845541379 13469.846012142389
857.8094715079915 13407.298857399734
858.7500231736467 13621.762316684879
859.690339621271 13642.256357590837
860.6304209209939 13462.061551441546
861.5702671429244 13338.249328779188
862.5098783571284 13467.612168164025
863.4492546336569 13541.8837920342
864.3883960425155 13450.17545443457
865.3273026536863 13466.18754404657
866.2659745371238 13573.283975582328
867.2044117627465 13619.626629407725
868.1426144004472 13552.75330282321
869.0805825200823 13589.391477944282
870.0183161914847 13703.792391084693
870.9558154844526 13830.508875384612
871.8930804687552 13818.849312714548
872.8301112141307 13758.213342964696
873.7669077902865 13895.951191116832
874.7034702669062 13950.443162138512
875.6397987136315 13924.992878974246
876.5758932000863 14024.8748708967
877.5117537958522 14207.878847066855
878.4473805704911 14059.488149295585
879.3827735935283 14097.584772358972
880.3179329344603 14167.64860240884
881.2528586627541 14236.955389262479
882.1875508478479 14137.608902796628
883.1220095591489 14044.555268028786
884.0562348660296 14039.339543724845
884.9902268378391 14216.427151009611
885.9239855438955 14154.20350924889
886.8575110534839 13994.387035150028
887.7908034358588 13954.433460076045
888.7238627602474 13970.418222431475
889.6566890958475 13906.802494781954
890.5892825118208 13853.558853582548
891.5216430773125 13840.637581637615
892.4537708614189 13814.75129957237
893.3856659332196 13611.632078627566
894.3173283617652 13489.507701348703
895.2487582160684 13590.148515819903
896.179955565116 13488.939143120826
897.110920477864 13292.310894494327
898.0416530232451 13359.962547346591
898.9721532701478 13201.576388847428
899.9024212874428 13384.184332133304
900.8324571439662 13093.299475481708
901.7622609085302 13113.69970034085
902.6918326499072 13042.82638765008
903.6211724368477 13168.378183761204
904.5502803380696 12959.837774918178
905.4791564222614 13107.965475724195
906.4078007580792 12982.988457704389
907.3362134141571 12988.600927912197
908.2643944590909 13047.534513488285
909.1923439614493 12825.163358486783
910.1200619897754 12899.331420279403
911.0475486125779 13048.564003778152
911.9748038983344 12881.146258824154
912.9018279155007 12898.131212633527
913.8286207324982 12748.703949503415
914.7551824177117 12868.633187856474
915.6815130395116 12813.544051774317
916.6076126662283 12795.758476971598
917.533481366163 12782.714846144858
918.4591192075914 12844.383631209324
919.3845262587565 12923.078837255269
920.3097025878706 12804.262934718558
921.2346482631237 12753.61509605898
922.1593633526682 12847.564680240486
923.0838479246304 12861.625464745319
924.0081020471061 12844.02190321653
924.9321257881656 12636.424246077435
925.8559192158464 12721.830030623489
926.7794823981512 12691.980243867749
927.7028154030686 12665.15908481665
928.6259182985414 12572.553413175634
929.5487911524906 12808.028118711685
930.4714340328119 12652.429248912613
931.3938470073608 12506.445491798877
932.3160301439748 12614.24783017187
933.2379835104548 12742.27043080024
934.1597071745709 12793.152662501077
935.0812012040769 12674.80211550565
936.002465666681 12598.593852450653
936.9235006300696 12739.078938978335
937.8443061619055 12654.817180429807
938.7648823298077 12571.629778943836
939.6852292013809 12490.768122697113
940.6053468441951 12642.90342727658
941.5252353257874 12507.887411153386
942.4448947136698 12620.243604797664
943.364325075323 12564.77466656446
944.2835264782043 12628.3046314644
945.2024989897309 12492.686194911857
946.1212426773054 12525.118867567668
947.0397576082851 12575.330417645457
947.9580438500125 12586.40308550908
948.8761014697939 12621.610369907858
949.7939305349064 12591.491807198607
950.7115311125999 12491.3522025638
951.6289032700952 12611.768958470191
952.5460470745875 12586.187469447705
953.4629625932339 12588.45670598443
954.3796498931715 12681.058933141172
955.2961090415029 12582.302999916328
956.2123401053068 12600.338302054468
957.1283431516276 12576.822798689525
958.0441182474842 12412.931459693165
958.9596654598663 12608.452876722056
959.8749848557309 12540.321211138213
960.7900765020167 12535.69943464724
961.7049404656209 12503.579578747393
962.6195768134185 12526.521401173975
963.5339856122537 12538.4715789078
964.4481669289453 12560.91286923274
965.3621208302793 12435.84614106703
966.2758473830145 12513.940739647594
967.1893466538822 12625.241694705119
968.1026187095813 12466.529588317164
969.0156636167867 12522.309726916363
969.9284814421426 12538.162749617568
970.8410722522622 12495.270502742724
971.753436113735 12393.537172969362
972.6655730931161 12478.319515347677
973.5774832569368 12455.383003862073
974.4891666716958 12432.88235888439
975.4006234038698 12423.419008525312
976.3118535198955 12311.930088793357
977.2228570861935 12507.722415581064
978.1336341691494 12484.232436020164
979.0441848351202 12434.842439596272
979.9545091504333 12469.941985310623
980.864607181391 12593.658381360106
981.7744789942699 12498.030316279259
982.6841246553086 12474.06879056281
983.5935442307236 12499.031101064034
984.5027377867027 12604.365593122495
985.4117053894024 12485.787593351279
986.3204471049557 12578.699380185008
987.2289629994648 12523.269651444052
988.1372531390007 12715.575455913964
989.0453175896091 12435.791938788669
989.9531564173067 12635.30013298865
990.860769688079 12438.538212676209
991.7681574678918 12644.80372274224
992.6753198226706 12624.342706312278
993.582256818323 12607.621371801786
994.4889685207218 12656.417704243511
995.3954549957143 12909.259412231593
996.301716309119 12864.414843691871
997.2077525267232 12770.91384794987
998.1135637142943 12711.720617138244
999.0191499375615 12915.917104898577
999.924511262232 12818.74368872393
1000.8296477539861 12916.144649224854
1001.7345594784656 12804.748498439063
1002.6392465012996 12777.346550020844
1003.5437088880753 12860.084384684667
1004.4479467043584 12664.972068646892
1005.3519600156869 12568.745195357507
1006.2557488875718 12763.372107639287
1007.1593133854858 12584.659205863603
1008.0626535748888 12709.890433579081
1008.9657695212009 12528.316725328106
1009.8686612898182 12828.308667280016
1010.7713289461135 12710.926202502667
1011.6737725554212 12621.476033881414
1012.5759921830577 12622.44837516256
1013.4779878943027 12605.768202900628
1014.379759754418 12472.57241621757
1015.2813078286254 12462.039022294353
1016.18263218213 12396.00163286849
1017.0837328801026 12497.433353026234
1017.9846099876886 12481.657258313946
1018.8852635700023 12315.171364682594
1019.7856936921362 12216.955312869646
1020.6859004191447 12418.695049578984
1021.5858838160675 12259.530445766104
1022.4856439479063 12159.52295045647
1023.3851808796389 12177.207362505744
1024.2844946762143 12324.126523098636
1025.183585402554 12163.974443742642
1026.082453123554 12176.639474174119
1026.9810979040776 12122.198535428386
1027.8795198089647 12088.973867468572
1028.777718903024 12103.549818850974
1029.6756952510368 12033.070840065015
1030.5734489177648 11997.772683222276
1031.4709799679313 12130.48185275405
1032.3682884662358 12107.375954895073
1033.2653744773506 12034.332961348018
1034.1622380659192 12032.84587894475
1035.058879296559 12108.544912825015
1035.9552982338591 12109.520227193625
1036.8514949423825 12137.595958531125
1037.7474694866614 12147.515481757597
1038.6432219312028 12207.74419636672
1039.5387523404825 12385.8559129446
1040.4340607789582 12236.686276709977
1041.3291473110476 12283.349861241099
1042.2240120011465 12469.132270998978
1043.1186549136273 12550.139284478942
1044.0130761128294 12502.667008389039
1044.9072756630649 12603.281651329107
1045.8012536286205 12853.110772999247
1046.6950100737577 12684.999722373967
1047.588545062701 12871.227710631645
1048.481858659663 12760.306940173276
1049.3749509288118 12969.68399564477
1050.2678219343034 12716.319547591069
1051.1604717402515 12839.643583211375
1052.0529004107575 12737.91406017535
1052.9451080098825 12877.11090637853
1053.8370946016694 12767.417246862517
1054.7288602501267 12949.015215645162
1055.6204050192446 12709.328742652471
1056.511728972977 12838.025813507109
1057.402832175254 12675.08894905568
1058.2937146899785 12637.363253979405
1059.1843765810263 12539.1486594317
1060.0748179122456 12642.527401284517
1060.9650387474576 12513.90819951519
1061.855039150456 12585.46697855984
1062.7448191850071 12432.317404512609
1063.6343789148505 12451.35516379718
1064.5237184037014 12479.391588232133
1065.412837715241 12241.389326172944
1066.3017369131267 12214.31848565027
1067.190416060992 12250.774311289368
1068.0788752224398 12148.175646581318
1068.9671144610438 12210.108771792831
1069.8551338403558 12150.91359933507
1070.7429334239023 12281.824237712906
1071.6305132751695 12012.952928412826
1072.517873457633 12055.335753514812
1073.4050140347335 12052.604113754034
1074.2919350698776 12058.675141117617
1075.1786366264623 11994.963965628234
1076.0651187678395 11937.429612380369
1076.95138155735 11822.988351987147
1077.8374250582929 11867.818665202427
1078.7232493339507 11814.125345722621
1079.608854447577 11899.785096391797
1080.4942404623907 11726.017259087948
1081.3794074415982 11771.299989446901
1082.2643554483657 11717.156872671201
1083.149084545841 11781.64557387929
1084.033594797138 11569.370463295189
1084.9178862653516 11674.887419696914
1085.8019590135427 11689.322595822827
1086.6858131047484 11567.351105099411
1087.5694486019802 11603.40471946562
1088.4528655682225 11561.61327562684
1089.3360640664287 11736.226263974497
1090.2190441595321 11474.805529405305
1091.1018059104317 11649.606369982108
1091.98434938201 11625.882088925275
1092.866674637111 11564.357602385662
1093.748781738559 11587.564667189863
1094.6306707491512 11464.121226281433
1095.5123417316554 11503.510942915662
1096.3937947488157 11543.621368915325
1097.2750298633455 11518.224336289439
1098.156047137938 11501.93960843993
1099.0368466352556 11659.072660387856
1099.9174284179317 11566.731643181618
1100.7977925485757 11342.15580919051
1101.6779390897755 11442.28534460722
1102.5578681040806 11510.887343725775
1103.4375796540226 11432.60521618268
1104.3170738021054 11496.687197363553
1105.1963506108077 11369.957999906033
1106.0754101425773 11375.844815276127
1106.9542524598382 11384.833498282263
1107.8328776249855 11398.56304753685
1108.7112857003904 11271.579988078
1109.5894767483987 11316.10432510785
1110.4674508313292 11493.374425213055
1111.3452080114657 11512.33746700808
1112.2227483510815 11517.935817130234
1113.1000719124077 11647.67309265692
1113.9771787576592 11680.794801443766
1114.854068949022 11593.09823186443
1115.7307425486542 11687.108652620864
1116.6071996186893 11816.767007862349
1117.483440221229 11947.623296462038
1118.3594644183577 12041.451875989478
1119.235272272128 12032.209004924614
1120.1108638445658 12060.83879934633
1120.9862391976712 12408.502342883672
1121.8613983934229 12383.856781838276
1122.7363414937627 12342.315303907204
1123.6110685606182 12581.327627808188
1124.485579655884 12686.116007568295
1125.359874841426 12686.831482537676
1126.2339541790916 12804.008291027229
1127.1078177306936 13036.379315324662
1127.9814655580267 12730.72350233446
1128.854897722851 12861.125386242848
1129.7281142869106 12928.092132135278
1130.6011153119125 13085.117515496147
1131.473900859548 12994.361534129861
1132.3464709914697 12964.317864663337
1133.2188257693178 12858.195648869309
1134.0909652546961 12838.057633098055
1134.96288950919 12713.951091938201
1135.8345985943506 12847.928484030967
1136.7060925717087 12479.202530631106
1137.57737150277 12619.418989788988
1138.4484354490069 12503.891367092112
1139.3192844718778 12365.198510110189
1140.1899186327992 12108.668430710446
1141.060337993178 12251.505286525613
1141.930542614382 12095.579711243467
1142.8005325577597 12058.592504927223
1143.670307884635 11771.142965382744
1144.5398686563003 11848.472288184606
1145.409214934025 11636.548790022307
1146.2783467790541 11486.782267775825
1147.1472642526023 11566.699358402208
1148.0159674158622 11491.348603140843
1148.8844563300026 11264.4397253499
1149.7527310561618 11216.938078188688
1150.6207916554504 11153.81779012967
1151.4886381889592 11039.451588357184
1152.3562707177498 11167.414013340884
1153.2236893028585 11122.272861428453
1154.090894005296 10965.722518535164
1154.9578848860474 11070.933757390227
1155.8246620060709 10909.188648171477
1156.6912254262988 10824.926170905292
1157.5575752076438 10780.118655600974
1158.42371141098 10976.267018216786
1159.2896340971656 10784.671596459748
1160.1553433270346 10865.540734586644
1161.0208391613887 10710.040130429174
1161.8861216610057 10857.873241193603
1162.75119088664 10740.206157364773
1163.6160468990201 10758.468683995508
1164.4806897588442 10569.898274289193
1165.3451195267917 10863.873751877447
1166.2093362635114 10807.275426162985
1167.0733400296285 10728.716446134189
1167.9371308857444 10642.080756842997
1168.8007088924278 10521.807874513152
1169.6640741102328 10704.487206381025
1170.5272265996773 10620.871905298547
1171.390166421259 10355.704438804765
1172.252893635452 10793.16233363324
1173.1154083026995 10695.885000354627
1173.977710483421 10665.781159414413
1174.8398002380145 10590.440846805543
1175.7016776268483 10546.801894225637
1176.563342710264 10686.015875795476
1177.4247955485826 10522.384876284774
1178.2860362020947 10550.712563137102
1179.147064731069 10526.718690087966
1180.0078811957483 10685.300111146133
1180.8684856563486 10498.945436457476
1181.7288781730604 10545.34995139193
1182.589058806052 10731.55311837129
1183.4490276154593 10849.929405787925
1184.3087846614017 10697.340445068367
1185.1683300039676 10711.139056372138
1186.027663703222 10987.101116554137
1186.8867858192025 10774.64166034894
1187.7456964119228 10899.86621055834
1188.6043955413716 10875.16413378867
1189.4628832675116 10978.318094821936
1190.3211596502842 10980.308349340434
1191.179224749596 11114.409698653726
1192.0370786253388 11079.786898632907
1192.8947213373758 11180.512993919667
1193.7521529455407 11262.12742366482
1194.6093735096438 11097.09008792741
1195.466383089477 11053.99860604802
1196.3231817447977 11334.272682075933
1197.1797695353398 11272.797369586619
1198.0361465208189 11187.600580981334
1198.8923127609214 11083.694899660204
1199.7482683153048 11208.606912382118
1200.6040132436028 11320.457358201369
1201.459547605431 11213.502062190117
1202.3148714603722 11106.268576336479
1203.1699848679855 11264.972880042336
1204.0248878878065 11117.672758783458
1204.8795805793507 10999.81067216759
1205.7340630020935 11087.664084921977
1206.5883352155033 11206.25592328618
1207.4423972790064 10967.2455049685
1208.2962492520237 10946.434215526984
1209.1498911939307 10899.319270177259
1210.0033231640937 11039.737627228624
1210.8565452218427 10820.475262616848
1211.7095574264913 10840.5469020665
1212.5623598373222 10657.808996889975
1213.4149525135963 10660.289618843017
1214.2673355145507 10661.216358246873
1215.1195088993936 10584.75285176081
1215.9714727273113 10557.238439223886
1216.8232270574663 10645.760760258385
1217.6747719489904 10365.677947455155
1218.5261074609934 10351.252696917492
1219.3772336525653 10386.138017736226
1220.2281505827668 10522.727521612924
1221.0788583106296 10382.912798014146
1221.9293568951707 10320.25578865744
1222.7796463953746 10294.679191500943
1223.629726870202 10332.456696454212
1224.4795983785934 10450.883030607805
1225.3292609794553 10299.060752610389
1226.1787147316809 10230.99588356577
1227.0279596941327 10480.265020474359
1227.8769959256424 10338.31122558127
1228.7258234850306 10344.383154318013
1229.5744424310833 10124.78917532672
1230.422852822563 10293.441418889322
1231.2710547182105 10402.22025527233
1232.119048176739 10283.489960243613
1232.9668332568417 10057.906244547634
1233.8144100171812 10395.248197810954
1234.6617785163999 10290.536506907049
1235.508938813111 10187.607199936061
1236.3558909659114 10167.339374577103
1237.2026350333617 10409.648773538365
1238.049171074008 10369.310830975286
1238.8954991463652 10144.924952302878
1239.741619308932 10091.02620198535
1240.587531620169 10425.706609121818
1241.4332361385277 10283.391514844678
1242.2787329224248 10106.232930181925
1243.1240220302534 10066.329600000001
1243.9691035203869 10158.063726382563
1244.813977451171 10342.452968130705
1245.6586438809263 10178.669418025736
1246.5031028679496 9921.273640799396
1247.3473544705157 10254.662756429572
1248.1913987468706 10073.02204200189
1249.0352357552383 10085.738398537305
1249.8788655538228 10047.619668547006
1250.7222882007918 10192.70911941344
1251.565503754302 10106.445332604131
1252.4085122724755 10205.73148150905
1253.2513138134182 10181.448211763643
1254.0939084352049 10157.197147071001
1254.9362961958905 10190.804747809914
1255.7784771535007 10149.01301733004
1256.6204513660432 10141.891636206588
1257.4622188915 10367.85974997225
1258.3037797878242 10169.673295967881
1259.1451341129468 10057.51290246118
1259.9862819247755 10101.956325148245
1260.8272232811978 10038.50263148292
1261.6679582400666 10255.714709464046
1262.5084868592203 10042.439299874728
1263.34880919647 9980.49274535399
1264.1889253095997 10030.044727555438
1265.0288352563712 10122.963505779935
1265.8685390945266 9898.925216901283
1266.7080368817751 10017.660832299305
1267.5473286758115 10137.3377791063
1268.386414534294 10058.628888989198
1269.2252945148703 9863.623884511933
1270.0639686751547 9835.680927708925
1270.9024370727402 9932.443824003365
1271.7406997651997 9726.844568733399
1272.5787568100714 9879.049913264713
1273.4166082648808 9813.043898755557
1274.2542541871244 9992.613010718416
1275.091694634275 9938.553260017843
1275.9289296637817 9770.902261967265
1276.7659593330663 9860.54550972583
1277.6027836995308 9834.691216537805
1278.4394028205552 9797.608368626981
1279.2758167534867 9781.866758094087
1280.112025555658 9737.249757848276
1280.9480292843746 9824.89234299731
1281.7838279969128 9695.478781321526
1282.6194217505326 9710.692400934076
1283.4548106024686 9577.02479110251
1284.289994609926 9627.768052247688
1285.1249738300921 9757.211278923287
1285.959748320127 9673.794111759464
1286.7943181371702 9725.20270078049
1287.6286833383328 9650.210611493572
1288.4628439807038 9671.551739560486
1289.2968001213521 9661.566301797635
1290.1305518173194 9705.409877089034
1290.9640991256183 9765.392344053189
1291.7974421032523 9585.064271045017
1292.630580807183 9674.258572773495
1293.463515294361 9698.518412006566
1294.29624562171 9751.819769852442
1295.12877184613 9628.148421329268
1295.961094024493 9731.300519492079
1296.79321221365 9734.81211679634
1297.6251264704333 9844.65939799479
1298.4568368516466 9954.19421675098
1299.2883434140658 9830.116463364033
1300.1196462144526 9801.05504965339
1300.9507453095375 9917.955027098387
1301.7816407560313 9842.367998687463
1302.6123326106172 9756.247558080067
1303.4428209299622 9626.184155476305
1304.2731057707024 9894.484543339646
1305.1031871894502 9682.433511535633
1305.933065242798 9916.182179871194
1306.7627399873181 9707.986196901624
1307.5922114795467 10153.91718536226
1308.4214797760123 10072.32431304272
1309.2505449332057 9901.1377053694
1310.0794070076026 9991.660599691813
1310.9080660556538 10147.292146784786
1311.736522133786 10067.33079599116
1312.5647752983987 10000.051193226163
1313.3928256058734 9871.106004981466
1314.2206731125661 10029.767664682156
1315.048317874809 10082.815404262128
1315.8757599489109 9923.258256425786
1316.7029993911547 10030.340581115222
1317.5300362578055 10316.360986029302
1318.356870605101 9942.147291412164
1319.183502489257 10032.145506244957
1320.0099319664623 10111.852860274326
1320.836159092889 10124.63082386561
1321.66218392468 10115.42419308382
1322.4880065179532 10017.761394781663
1323.3136269288134 10064.893045534012
1324.1390452133292 10172.815820196622
1324.9642614275563 10104.060139485086
1325.7892756275214 10100.338004345507
1326.6140878692295 10084.24332766435
1327.4386982086617 10419.781999800103
1328.2631067017755 10157.712124896296
1329.0873134045069 10100.11304947364
1329.911318372764 9983.584005234701
1330.735121662441 10014.244781824915
1331.558723329399 9961.540963135836
1332.3821234294774 9953.470319085154
1333.2053220185007 9827.760868330659
1334.0283191522612 9958.272475521308
1334.851114886529 10054.068340747237
1335.6737092770582 9843.502441312081
1336.4961023795695 9929.91706084791
1337.3182942497697 9820.290974423886
1338.1402849433325 9949.050883422033
1338.962074515921 9663.213057614736
1339.7836630231632 9593.6287663809
1340.6050505206676 9924.342226975892
1341.426237064028 9854.599903458304
1342.2472227088037 10059.594190490016
1343.0680075105338 9561.32895047063
1343.888591524741 9673.270856211044
1344.7089748069138 9762.577412806797
1345.5291574125276 9622.974543461056
1346.3491393970307 9544.840482676376
1347.168920815846 9679.843967509263
1347.9885017243778 9589.572172232256
1348.8078821780036 9560.384296931605
1349.6270622320844 9611.630321382208
1350.4460419419447 9539.471618472304
1351.2648213629054 9680.155502691412
1352.0834005502438 9475.427683850241
1352.90177955923 9386.298488404567
1353.7199584451064 9964.841350807395
1354.5379372630887 9429.657846339142
1355.355716068374 9423.548123773595
1356.1732949161305 9436.587648003933
1356.9906738615155 9479.292211766824
1357.8078529596478 9516.634006437902
1358.6248322656375 9507.142364342573
1359.441611834567 9347.17202532333
1360.2581917214866 9554.018317377111
1361.0745719814367 9378.79559389569
1361.890752669433 9227.966167584444
1362.7067338404577 9266.499452285412
1363.5225155494845 9564.00688534731
1364.3380978514506 9455.03393058396
1365.1534808012839 9195.41807111433
1365.9686644538815 9099.130199395648
1366.783648864117 9545.294961650561
1367.5984340868417 9418.421643962054
1368.413020176893 9355.236908720595
1369.2274071890715 9101.032503230363
1370.0415951781652 9402.815484928937
1370.8555841989346 9097.53447355047
1371.6693743061223 9181.90699903144
1372.48296555444 9129.28445206812
1373.2963579985844 9327.221114018026
1374.1095516932255 9408.073738284944
1374.9225466930166 9212.314548565124
1375.7353430525782 9159.902632971813
1376.5479408265164 9173.173232094281
1377.36034006941 9312.577558831614
1378.1725408358216 9256.115146519101
1378.9845431802805 9061.139172179943
1379.796347157304 9347.95839713929
1380.6079528213813 9339.08562762702
1381.4193602269788 9137.357226695238
1382.230569428546 9081.674369686258
1383.0415804805016 9440.986919515566
1383.852393437246 9370.88484218335
1384.6630083531563 9259.37219272018
1385.4734252825892 9290.012368225161
1386.2836442798798 9316.830105026867
1387.0936653993322 9136.994643940034
1387.9034886952395 9121.988484951897
1388.713114221864 9191.817648887463
1389.5225420334482 9237.855512880968
1390.331772184214 9035.867757033098
1391.1408047283585 8991.527172337952
1391.9496397200564 9023.041942947366
1392.758277213461 9233.073115248026
1393.5667172627054 9221.787728527497
1394.3749599218918 8955.40829182624
1395.1830052451114 8848.573641158695
1395.9908532864265 8940.965594541478
1396.7985040998774 9286.8961361777
1397.6059577394808 8907.256204769932
1398.4132142592352 9047.884330991437
1399.2202737131156 8879.227216202304
1400.027136155073 8932.830573759864
1400.8338016390353 8942.654681461212
1401.6402702189134 8813.440438525164
1402.446541948586 8909.017366255955
1403.2526168819204 8724.500947176373
1404.058495072757 8795.899737784843
1404.8641765749107 8715.203440277955
1405.6696614421799 8709.793634563986
1406.4749497283356 8958.33191477198
1407.280041487129 8625.692135609257
1408.084936772295 8417.714741681588
1408.8896356375335 8649.073535793807
1409.6941381365323 8675.029060209183
1410.498444322955 8443.150855822882
1411.3025542504402 8421.424358173725
1412.106467972606 8595.693488580444
1412.9101855430508 8556.91355142355
1413.7137070153458 8386.290498660312
1414.5170324430437 8358.39727354253
1415.320161879672 8486.191004046334
1416.1230953787435 8591.382798936971
1416.925832993742 8339.438105682118
1417.7283747781275 8128.0958254520565
1418.5307207853439 8375.486280457344
1419.3328710688093 8370.934643809018
1420.134825681922 8199.845580798226
1420.9365846780584 8168.990439734995
1421.7381481105713 8449.16322564593
1422.539516032788 8295.067244964011
1423.3406884980232 8138.835457230755
1424.1416655595604 8182.322703129607
1424.942447270665 8181.995380753293
1425.7430336845828 8237.945937004251
1426.5434248545298 8088.386415152611
1427.3436208337116 8109.920571461221
1428.143621675301 8247.177653033574
1428.9434274324558 8226.68448909563
1429.7430381583108 8043.535410646716
1430.5424539059713 8044.167483277735
1431.3416747285337 8614.672024830981
1432.1407006790632 8234.704236764897
1432.9395318106053 8127.027357718983
1433.7381681761835 8001.562351193965
1434.5366098288014 7986.226823705741
1435.3348568214424 8319.127069853448
1436.1329092070573 8002.73841010321
1436.9307670385879 8020.058298182917
1437.7284303689503 8244.69861482773
1438.5258992510335 8366.653279155558
1439.3231737377118 8191.109467757621
1440.1202538818306 8065.515061258915
1440.9171397362225 8153.3099289282645
1441.7138313536925 8189.743516112789
1442.5103287870243 7984.128653061613
1443.3066320889775 7989.242886947404
1444.1027413122956 8237.65877775615
1444.8986565096966 7926.344449752102
1445.694377733882 8051.51341900692
1446.4899050375207 7861.264699490706
1447.2852384732687 7927.260515628162
1448.0803780937622 8166.97061652515
1448.8753239516063 7818.729350614558
1449.6700760993954 7687.027431790564
1450.464634589689 7735.639515200698
1451.2589994750397 7950.646914991987
1452.0531708079689 7834.89697604098
1452.8471486409799 7650.786889155107
1453.6409330265524 7957.671966016013
1454.4345240171442 7803.2528136273195
1455.2279216651987 7670.555008314307
1456.0211260231263 7710.13599455781
1456.8141371433194 7902.149346927235
1457.6069550781594 7892.307852809121
1458.3995798799897 7640.16707909593
1459.1920116011424 7721.976881129003
1459.98425029393 7603.538872709099
1460.7762960106338 7606.301970932436
1461.5681488035225 7584.513735036661
1462.3598087248392 7612.566259158017
1463.1512758268036 7778.550689064585
1463.942550161617 7619.430610635909
1464.7336317814625 7551.616842283101
1465.524520738496 7613.858338350428
1466.3152170848552 7583.92303335171
1467.1057208726506 7623.455898440759
1467.8960321539817 7474.03402920531
1468.6861509809169 7348.73244457217
1469.4760774055085 7474.093102096357
1470.265811479785 7706.962334321599
1471.055353255755 7381.797355295574
1471.844702785409 7410.843103466653
1472.6338601207044 7435.21620299012
1473.4228253135934 7899.365226847355
1474.2115984159936 7423.250738961853
1475.0001794798063 7148.031195458345
1475.7885685569145 7416.143236076408
1476.576765699172 7452.613277395537
1477.3647709584238 7498.700797722762
1478.1525843864802 7551.819078746723
1478.9402060351367 7457.323886534186
1479.7276359561693 7555.769265940327
1480.514874201328 7387.117941447084
1481.3019208223468 7301.77489691285
1482.0887758709323 7357.366878973489
1482.8754393987747 7537.0596217230295
1483.6619114575406 7188.284160229896
1484.4481920988783 7307.372238472699
1485.2342813744108 7526.272612298414
1486.0201793357446 7476.702768497098
1486.8058860344572 7355.580661243001
1487.591401522117 7292.635282937756
1488.3767258502594 7491.500483275335
1489.1618590704056 7441.863563605572
1489.9468012340494 7170.534590300127
1490.7315523926754 7331.73003823186
1491.5161125977356 7426.390739175105
1492.3004819006637 7395.3750540783
1493.084660352877 7361.774453642616
1493.8686480057622 7350.668350179537
1494.6524449106964 7675.311811440226
1495.4360511190262 7636.168654227191
1496.219466682087 7410.646881009388
1497.0026916511779 7457.939444055708
1497.7857260775945 7356.996857014276
1498.5685700125996 7403.092692072169
1499.3512235074395 7298.419251295876
1500.133686613337 7243.990299283224
1500.9159593814966 7293.9173310316155
1501.698041863101 7623.580518091451
1502.4799341093094 7298.111554215235
1503.2616361712662 7147.312517623766
1504.043148100087 7542.481793259567
1504.8244699468742 7367.281742556452
1505.6056017626997 7225.95610344529
1506.3865435986281 7055.837589373301
1507.1672955056893 7369.538963737352
1507.9478575348967 7187.6266286532455
1508.7282297372512 7389.229419647956
1509.5084121637192 7242.42263810574
1510.2884048652577 7234.232355109695
1511.0682078927948 7152.577984498142
1511.8478212972423 7184.088819716907
1512.6272451294917 7056.345424918645
1513.4064794404076 7360.8232998797175
1514.1855242808433 7152.049318224464
1514.9643797016215 7260.6861211625455
1515.743045753552 7290.850613728738
1516.5215224874191 7288.330646908262
1517.2998099539836 7043.868964462514
1518.077908203999 7031.726568328141
1518.8558172881785 7123.100191312069
1519.633537257234 7374.261010169155
1520.4110681618404 7211.815973203664
1521.1884100526604 7207.611698128113
1521.9655629803365 7247.5475122396765
1522.7425269954856 7465.559887097782
1523.5193021487103 7419.9671820231215
1524.2958884905856 7097.24473772117
1525.0722860716687 7176.0912246477965
1525.848494942502 7150.628337957617
1526.624515153595 7231.8338616260135
1527.4003467554485 7215.38683753151
1528.175989798534 7292.942028993474
1528.9514443333064 7302.858975766665
1529.726710410203 7404.4360091341205
1530.5017880796331 7133.962719025888
1531.276677391992 7231.658269911172
1532.0513783976457 7425.574973779041
1532.825891146953 7208.44618429229
1533.6002156902414 7260.191089845709
1534.3743520778207 7415.741669027088
1535.1483003599806 7227.09910837988
1535.9220605869923 7145.455438107255
1536.6956328091019 7358.71114295659
1537.4690170765407 7313.1064768879205
1538.242213439511 7440.234270713084
1539.015221948208 7329.003494093956
1539.78804265279 7217.152449549775
1540.560675603405 6980.174027394093
1541.3331208501804 7372.697033647093
1542.1053784432224 7444.826764771907
1542.8774484326168 7347.2170361399185
1543.649330868422 7214.897908256282
1544.4210258006842 7366.1238313920985
1545.1925332794308 7181.9265297573165
1545.9638533546604 7302.075119099066
1546.7349860763552 7224.773813846039
1547.5059314944829 7555.834726672035
1548.27668965898 7305.500024272604
1549.0472606197673 7389.020757848515
1549.817644426752 7194.146160212127
1550.5878411298072 7307.195782580684
1551.3578507787988 7334.156934021432
1552.1276734235635 7247.195545406836
1552.8973091139233 7267.750012571446
1553.6667578996767 7462.981860211743
1554.436019830604 7391.006666210956
1555.20509495646 7380.631195134709
1555.9739833269869 7168.896811185876
1556.7426849919011 7069.600334382395
1557.511200000903 7526.71543809804
1558.2795284036674 7352.388427158109
1559.0476702498509 7250.437620653218
1559.8156255890954 7345.593224552021
1560.5833944710157 7456.986129179275
1561.3509769452048 7210.178349588265
1562.1183730612447 7242.6707219160035
1562.8855828686865 7437.4618999576605
1563.6526064170703 7651.662081905915
1564.4194437559127 7473.433172592275
1565.1860949347047 7245.926355099555
1565.9525600029283 7500.9186393092705
1566.7188390100328 7494.063968861837
1567.4849320054564 7388.256618517856
1568.250839038612 7308.697311883705
1569.0165601588997 7338.833224768588
1569.7820954156887 7554.685079908329
1570.5474448583373 7221.261920862079
1571.31260853618 7220.698262311742
1572.0775864985299 7206.552063532596
1572.8423787946813 7338.614499641682
1573.6069854739108 7163.291665221914
1574.371406585471 7284.8303849385065
1575.1356421785986 7352.443352433775
1575.899692302506 7307.290240561063
1576.6635570063845 7297.110637791743
1577.4272363394157 7085.485652675125
1578.190730350747 7397.085620057564
1578.9540390895163 7106.994908127055
1579.7171626048384 7042.172319812463
1580.480100945806 7001.349722970044
1581.2428541614918 7178.620875805691
1582.0054223009538 7155.654189751117
1582.767805413223 7208.766473346051
1583.5300035473156 7054.016667124304
1584.292016752228 7326.080334361129
1585.0538450769309 7125.720616152556
1585.8154885703807 7023.180886617719
1586.5769472815136 6975.5440806722445
1587.3382212592405 7057.750944186397
1588.099310552463 7220.224308021932
1588.8602152100484 6757.620276789533
1589.6209352808564 7047.021011642387
1590.3814708137234 7187.698257051534
1591.14182185746 6701.242134734193
1591.9019884608679 7080.00118690894
1592.6619706727215 6889.669851348631
1593.4217685417734 7158.230249765345
1594.1813821167616 7274.760876299719
1594.9408114464022 6938.851850622824
1595.7000565793933 6995.231427669952
1596.459117564409 7204.257065717909
1597.2179944501113 6961.590905185041
1597.9766872851324 7054.768549471189
1598.735196118092 7068.963157939889
1599.4935209975883 7080.914470493129
1600.2516619721973 7233.796947168921
1601.0096190904787 7029.714265447775
1601.7673924009723 7096.31877213901
1602.524981952196 6962.983171879818
1603.2823877926476 6822.539749563197
1604.0396099708087 6927.114750212995
1604.7966485351371 6994.826568088414
1605.5535035340745 6974.299733632947
1606.3101750160404 7098.864974668933
1607.0666630294363 6939.092080487574
1607.822967622642 6776.271434237757
1608.5790888440224 7005.9365371087915
1609.3350267419137 7145.289518282205
1610.0907813646445 6886.41550470325
1610.8463527605145 6989.544144184205
1611.601740977805 6970.597506561537
1612.356946064785 6861.026530296442
1613.1119680696902 6762.074221869987
1613.8668070407512 6746.198377723893
1614.6214630261748 6987.113725180015
1615.375936074137 6882.945110381857
1616.1302262328118 7003.289890910312
1616.8843335503425 6793.438799072057
1617.638258074854 6906.675699933413
1618.391999854457 6772.123295957259
1619.1455589372363 7020.270431262569
1619.8989353712623 6874.679221317553
1620.65212920458 6582.5148468385305
1621.4051404852235 6794.441782658541
1622.1579692611976 6795.042339291913
1622.9106155804966 6690.875543583435
1623.663079491087 6798.1625904093235
1624.4153610409248 6754.970011868654
1625.1674602779385 6749.932527135839
1625.9193772500403 6638.453329137966
1626.6711120051277 6970.63309791397
1627.4226645910676 6778.442991627683
1628.174035055721 6490.958412656426
1628.9252234469168 6630.248906386153
1629.676229812474 6555.678535948474
1630.4270542001905 7137.225924466018
1631.1776966578382 6779.927213094784
1631.9281572331747 6678.767982097537
1632.678435973945 6743.132008654599
1633.4285329278573 6668.423484908546
1634.1784481426203 6610.801617654758
1634.9281816659113 6709.125691020886
1635.677733545388 6917.326409514967
1636.4271038286934 6659.7491078011835
1637.176292563452 6784.359699202088
1637.9252997972635 6839.09051272193
1638.674125577716 7033.201835988357
1639.4227699523672 7197.348775875938
1640.171232968767 6672.667766205937
1640.9195146744423 6770.736741928423
1641.6676151168977 6871.64733688739
1642.4155343436178 6907.756692340694
1643.1632724020765 6831.166394947095
1643.9108293397167 6871.449399614286
1644.658205203974 6777.341380178096
1645.4054000422566 7137.394174433743
1646.1524139019566 6873.02997244546
1646.8992468304423 6815.038556227812
1647.6458988750728 6811.417139710425
1648.3923700831765 6984.015849356047
1649.1386605020743 6782.041097188038
1649.8847701790564 7024.153737984894
1650.6306991614038 6992.624805532367
1651.3764474963682 7047.519348820524
1652.1220152311944 6774.730017651583
1652.867402413096 6853.412986059858
1653.6126090892776 6856.891256784436
1654.3576353069184 7106.444010201039
1655.1024811131829 6806.011698319667
1655.8471465552066 6938.112408686607
1656.5916316801213 6909.19774000789
1657.3359365350298 6790.681131670928
1658.0800611670165 6810.650479949703
1658.824005623148 6691.311504027767
1659.5677699504722 6517.397900918908
1660.3113541960192 6736.5109751921555
1661.054758406799 6646.662299406114
1661.7979826297997 6549.389961094572
1662.5410269119966 6639.550254200438
1663.283891300338 6696.4789894960395
1664.0265758417645 6568.331538890826
1664.7690805831826 6550.393029387955
1665.5114055714948 6787.294152218953
1666.2535508535748 6852.910921650709
1666.9955164762814 6351.329953998886
1667.7373024864555 6424.136299949428
1668.478908930916 6595.181792434642
1669.220335856462 6256.809059647675
1669.9615833098778 6356.83918495975
1670.7026513379296 6220.766841402134
1671.44353998736 6374.165795325589
1672.1842493048916 6416.235492761805
1672.9247793372379 6112.498242550853
1673.6651301310812 6246.712364886198
1674.4053017330934 6002.6880599061315
1675.1452941899242 6282.363106030745
1675.885107548207 5885.458099057667
1676.6247418545518 6034.038063113887
1677.3641971555535 6131.115817795216
1678.1034734977893 6109.610348526759
1678.8425709278108 5965.54270251474
1679.5814894921605 6075.177472307784
1680.320229237359 5986.828396417063
1681.0587902098978 6091.618451698451
1681.7971724562685 5965.928259508044
1682.5353760229264 5883.893267717647
1683.2734009563173 5907.707145422443
1684.0112473028657 5844.9890314329
1684.7489151089794 5877.5950494648
1685.4864044210462 5912.568163508523
1686.2237152854377 5627.638083713682
1686.960847748498 5874.29150924908
1687.6978018565642 5695.213607446936
1688.434577655944 5546.543736059217
1689.1711751929379 5690.826932490016
1689.9075945138156 5734.560931186527
1690.6438356648396 5561.813572384575
1691.3798986922448 5299.152816498672
1692.1157836422499 5629.033265173573
1692.851490561059 5476.095295939253
1693.587019494853 5551.395728543951
1694.3223704897991 5395.8785694441
1695.0575435920364 5293.825636345187
1695.792538847696 5659.468480039486
1696.527356302886 5293.999814710727
1697.2619960036936 5289.196444378029
1697.9964579961907 5258.133037515601
1698.730742326432 4982.7814730877135
1699.4648490404488 5027.8872844166735
1700.1987781842563 5120.023738531434
1700.9325298038548 5417.580906842842
1701.6661039452174 5238.208020945166
1702.3995006543082 5289.189992494896
1703.1327199770658 5275.101934129124
1703.865761959416 4998.9327740792105
1704.598626647261 5254.267025768622
1705.3313140864866 5009.10673650498
1706.0638243229587 5007.526661253277
1706.7961574025303 5104.086219010001
1707.528313371029 5065.730022819578
1708.260292274268 4884.579750017249
1708.9920941580403 4977.75871121311
1709.7237190681226 4959.77364726103
1710.4551670502697 5059.088535405726
1711.18643815022 4792.482722702223
1711.9175324136959 4973.719653949373
1712.6484498863938 4823.9074069565495
1713.379190614005 4826.978687216659
1714.109754642188 4924.668617861286
1714.8401420165883 4824.543280149401
1715.570352782839 5001.172722833889
1716.3003869865497 5026.499762154221
1717.0302446733076 4733.154464422576
1717.7599258886876 4714.323645723592
1718.4894306782444 5168.458649408107
1719.2187590875183 4749.45872046126
1719.9479111620203 5018.861875242681
1720.6768869472544 4803.171602075442
1721.4056864887025 5009.456318586081
1722.1343098318284 4872.151300274423
1722.8627570220742 4718.12701527828
1723.591028104871 4569.7916093198555
1724.3191231256242 4613.404703383184
1725.0470421297232 4792.920438439795
1725.7747851625427 4848.954745489644
1726.5023522694337 4688.581976638972
1727.2297434957363 4716.017562624273
1727.9569588867635 4680.695134630283
1728.6839984878152 4805.18660593622
1729.4108623441734 4407.162498071864
1730.1375505011038 4756.516577628783
1730.8640630038426 4627.966942514992
1731.5903998976264 4516.501018703673
1732.316561227657 4722.5984513998355
1733.0425470391274 4708.296332088018
1733.7683573772065 4752.637403649942
1734.4939922870508 4621.623239075947
1735.2194518137949 4616.423304466648
1735.9447360025606 4648.27094652533
1736.669844898439 4545.681481445301
1737.3947785465189 4569.9567532744695
1738.1195369918605 4330.395179032606
1738.8441202795093 4514.269190087648
1739.5685284544943 4538.977655995995
1740.292761561821 4618.544913890352
1741.0168196464838 4641.31885640204
1741.7407027534518 4555.972774812433
1742.464410927687 4591.7009257564405
1743.187944214118 4472.6147907347395
1743.9113026576688 4387.3923563688595
1744.634486303241 4495.194978893045
1745.3574951957125 4372.779540039584
1746.0803293799509 4590.647332794886
1746.8029889008048 4437.8187338014795
1747.5254738031017 4662.740749976471
1748.2477841316504 4389.506785197844
1748.969919931249 4468.876295506314
1749.6918812466665 4427.719376757223
1750.4136681226646 4642.0115011890175
1751.1352806039777 4530.493199792063
1751.856718735331 4408.793072911988
1752.5779825614281 4414.379243011408
1753.2990721269507 4474.564499208587
1754.0199874765676 4674.285292531449
1754.7407286549314 4271.14406593136
1755.4612957066693 4493.391403307908
1756.1816886763954 4389.246810211179
1756.9019076087097 4509.523650492647
1757.6219525481865 4509.781931772683
1758.3418235393856 4398.361497611119
1759.061520626854 4535.4547803810565
1759.7810438551096 4458.479851655738
1760.5003932686614 4382.881570454229
1761.2195689119999 4515.05124874784
1761.938570829594 4304.628117273569
1762.657399065898 4371.36457865016
1763.376053665348 4351.283672501422
1764.0945346723602 4279.641850777717
1764.812842131334 4484.349003024208
1765.5309760866512 4229.877269807473
1766.2489365826787 4321.172059163735
1766.9667236637597 4387.602862314079
1767.684337374223 4158.2546073395515
1768.401777758383 4127.000885369866
1769.1190448605284 4295.240064416157
1769.836138724937 4121.771476475447
1770.5530593958665 4353.255726756598
1771.2698069175603 4361.373711469309
1771.9863813342326 4269.280190603565
1772.702782690094 4242.820228592648
1773.4190110293293 4349.040309420236
1774.1350663961111 4412.835628438022
1774.8509488345844 4179.537086882931
1775.5666583888924 4230.609931428002
1776.2821951031437 4438.154278698767
1776.9975590214362 4255.682966396955
1777.7127501878585 4410.678601544283
1778.4277686464684 4386.687512844103
1779.1426144413108 4491.138997245453
1779.8572876164162 4255.970200976206
1780.571788215797 4216.5346851540335
1781.2861162834415 4271.243282794733
1782.0002718633277 4184.599876889368
1782.7142549994132 4145.271017723031
1783.4280657356376 4337.829508452271
1784.141704115922 4081.9677081993564
1784.855170184177 4204.017553208031
1785.5684639842839 4252.45971435102
1786.2815855601148 3923.2119540326266
1786.9945349555237 4366.1652451825075
1787.707312214343 4137.049128724518
1788.4199173803918 4346.268146804716
1789.132350497468 4110.1134889288605
1789.8446116093583 4037.074716746831
1790.556700759822 4173.876571358809
1791.2686179926077 3928.711183084899
1791.9803633514493 4128.657971674907
1792.6919368800554 4014.2135928455778
1793.4033386221236 4316.623556969769
1794.1145686213295 4133.291517252012
1794.8256269213307 4296.395814370272
1795.536513565774 4074.8530739243097
1796.247228598284 3938.9193848445416
1796.9577720624693 4057.91342012477
1797.6681440019165 4009.4949064564935
1798.3783444602013 4150.82941260559
1799.0883734808776 4104.580735951963
1799.7982311074884 4299.425763234049
1800.5079173835475 3959.1740541409317
1801.2174323525633 4088.5184590335107
1801.9267760580187 4171.576084911297
1802.635948543386 4137.200560429503
1803.3449498521113 4029.8689427791687
1804.0537800276325 4097.73575468173
1804.7624391133668 4019.9509685138682
1805.47092715271 3970.2805718098653
1806.1792441890484 3897.4274871219395
1806.8873902657433 4114.935020908334
1807.5953654261448 4009.91182329413
1808.3031697135812 3962.1195766809324
1809.0108031713662 4043.938671291931
1809.71826584279 3940.2613922962773
1810.425557771141 3985.312112087501
1811.1326789996747 4457.528004969465
1811.839629571632 4069.9284917470804
1812.5464095302468 3926.860015177745
1813.2530189187182 4143.875533306586
1813.959457780249 3916.9597067690147
1814.6657261580076 4056.343343956355
1815.371824095153 3939.43272609232
1816.0777516348262 4065.682222609903
1816.78350882015 3791.6957620479943
1817.4890956942272 3827.075879025745
1818.1945123001533 3911.1565506835714
1818.8997586809928 3926.73707367783
1819.6048348798067 3956.5906946750897
1820.3097409396287 3824.608123747611
1821.0144769034796 4148.624571576622
1821.7190428143622 4027.1614340457286
1822.423438715261 4266.327793660576
1823.1276646491478 4052.805608786772
1823.8317206589727 4020.386832549032
1824.5356067876692 4034.8488083761476
1825.2393230781581 4036.6125934569914
1825.942869573335 3718.90274254092
1826.646246316086 3792.0072575358054
1827.3494533492758 4049.3394961087506
1828.052490715756 3868.626117055572
1828.7553584583547 3864.601563842766
1829.458056619891 3993.6612370105786
1830.1605852431585 3845.125595819354
1830.8629443709433 3833.930531907471
1831.5651340460063 3964.464681429349
1832.2671543110919 3881.223729621945
1832.9690052089318 3828.4966966663524
1833.6706867822395 3736.332895770778
1834.3721990737104 4048.9380045981734
1835.0735421260233 4004.1708627789026
1835.774715981841 4044.624751003726
1836.4757206838058 4175.864762503605
1837.1765562745459 3556.0178803445037
1837.8772227966747 3632.141724236941
1838.5777202927839 3928.5074345986723
1839.2780488054523 3902.7090934604066
1839.9782083772352 3788.3447710612577
1840.6781990506806 3988.4116087602706
1841.378020868313 3881.9510637620215
1842.0776738726418 3942.9918735294355
1842.777158106157 3793.885341710372
1843.4764736113375 3671.1899670893777
1844.1756204306403 3927.345051758227
1844.8745986065078 3831.3285410540147
1845.5734081813607 3677.353793057703
1846.2720491976124 3645.9179998010704
1846.970521697649 3747.627375569899
1847.6688257238511 3684.2461169321346
1848.3669613185684 3840.898422521269
1849.0649285241452 3665.7983777548893
1849.7627273829057 3761.987998777641
1850.460357937156 3994.6498759707515
1851.1578202291857 3430.9413519220057
1851.8551143012664 3855.1653179396935
1852.5522401956569 3808.2050530169136
1853.2491979545957 3916.170944076621
1853.9459876203055 3678.6969901262282
1854.6426092349902 3587.2848095409963
1855.3390628408451 3773.013766093449
1856.0353484800362 3894.6360026634784
1856.7314661947203 3724.861288111799
1857.4274160270397 3631.845594154496
1858.123198019115 3719.467877917512
1858.8188122130487 3771.745407435702
1859.5142586509319 3748.7271860083492
1860.209537374838 3632.0326375303257
1860.9046484268183 3721.5682235967133
1861.599591848917 3863.2794304593467
1862.294367683151 3655.919943718607
1862.988975971528 3641.191182309587
1863.6834167560355 3923.068875270698
1864.3776900786452 3708.1917711641245
1865.0717959813119 3674.224244881071
1865.7657345059724 3708.259950979335
1866.4595056945564 3581.893886314557
1867.1531095889586 3773.3012183388464
1867.846546231076 3728.3182872689963
1868.5398156627743 3873.1739198882365
1869.2329179259123 3600.757585979359
1869.9258530623283 3845.67862289212
1870.618621113843 3570.9374011899768
1871.3112221222636 3508.891664038662
1872.0036561293764 3682.897419805431
1872.695923176956 3658.4414325981584
1873.3880233067594 3874.9268286723905
1874.0799565605212 3552.14268875965
1874.7717229799673 3710.8045465211353
1875.4633226068036 3839.8078116255274
1876.1547554827175 3771.441812952883
1876.8460216493859 3606.728431602508
1877.5371211484617 3607.9005682122356
1878.2280540215852 3724.0331452744126
1878.9188203103804 3469.387929103855
1879.6094200564548 3609.4213741602784
1880.299853301396 3528.860506145845
1880.9901200867826 3714.3108411974004
1881.6802204541673 3511.9743450168558
1882.3701544450942 3624.726838081516
1883.059922101087 3496.6096154209263
1883.7495234636517 3877.238171338043
1884.4389585742792 3644.8125555484125
1885.1282274744517 3469.9410062202064
1885.8173302056166 4004.557308238685
1886.506266809225 3677.105993183912
1887.195037326701 3460.860957812153
1887.8836417994517 3655.370784314874
1888.5720802688702 3893.1589254750907
1889.260352776333 3619.577995159934
1889.9484593632042 3632.215805743874
1890.63640007082 3605.521383489777
1891.3241749405151 3557.3238510757014
1892.0117840135954 3663.4925428155098
1892.6992273313572 3550.6563025683695
1893.3865049350788 3478.967565803
1894.0736168660223 3889.414685968301
1894.7605631654333 3576.325721904811
1895.4473438745408 3448.246658769941
1896.133959034556 3677.828186269734
1896.820408686679 3510.48428789896
1897.506692872088 3736.4887568675053
1898.192811631945 3603.119555854716
1898.8787650073991 3626.924205656806
1899.5645530395832 3696.1024101582043
1900.2501757696118 3740.2249830462206
1900.9356332385796 3339.9236173036616
1901.620925487574 3752.4307461705075
1902.3060525576602 3715.8907250505954
1902.9910144898859 3614.149258115539
1903.6758113252872 3401.49671523289
1904.3604431048789 3601.7521701933742
1905.0449098696663 3643.0772837611194
1905.7292116606295 3466.5075854234046
1906.4133485187394 3554.3556154046287
1907.0973204849488 3227.294183765316
1907.7811276001976 3555.6274748907867
1908.4647699053967 3598.7041982475967
1909.1482474414588 3312.5103243032327
1909.8315602492694 3387.2476680096747
1910.5147083696957 3768.7799944706685
1911.1976918436012 3508.9679616340864
1911.880510711815 3498.8524402766257
1912.5631650151681 3599.081173197558
1913.2456547944657 3474.498393030108
1913.927980090495 3381.9665882481304
1914.6101409440362 3385.284600262506
1915.2921373958416 3422.810341302961
1915.9739694866603 3487.2491092706464
1916.655637257214 3791.3883484301964
1917.3371407482136 3375.89502879774
1918.0184800003572 3686.8884762502103
1918.6996550543154 3492.122641561428
1919.3806659507554 3564.0814532715863
1920.0615127303208 3662.8656456599792
1920.7421954336423 3588.841661134469
1921.4227141013343 3579.6433061864714
1922.103068773993 3362.116763533673
1922.783259492202 3636.4906483554864
1923.4632862965227 3348.1876687123413
1924.1431492275078 3365.182274529788
1924.8228483256917 3279.8566811842225
1925.5023836315922 3473.4353101751235
1926.1817551857057 3188.6248039973552
1926.8609630285227 3655.4642679763106
1927.5400072005123 3466.9184292626246
1928.218887742125 3353.0857699223116
1928.8976046938005 3094.0659329198834
1929.5761580959588 3561.409549384932
1930.2545479890086 3578.488218747384
1930.9327744133352 3249.9491868588357
1931.6108374093164 3413.743340699072
1932.2887370173066 3640.0990901486794
1932.9664732776473 3121.860333281009
1933.6440462306673 3574.7966903602123
1934.3214559166754 3312.150367751474
1934.9987023759659 3483.1308748739357
1935.675785648813 3543.58769785814
1936.3527057754836 3189.8213783070214
1937.029462796223 3622.1942561795513
1937.70605675126 3427.5097457902193
1938.3824876808085 3524.5128021022188
1939.058755625072 3138.044184201116
1939.7348606242267 3385.700469802181
1940.4108027184448 3433.5097923017483
1941.0865819478713 3609.4725199138156
1941.7621983526478 3152.49777731146
1942.4376519728921 3278.683971620375
1943.1129428487038 3385.922253351604
1943.7880710201734 3434.768277050259
1944.4630365273733 3510.528162755666
1945.1378394103576 3083.2387425557617
1945.8124797091714 3603.4301611655146
1946.4869574638324 3031.5295342606937
1947.161272714353 3175.25330327794
1947.8354255007234 3346.2046237971217
1948.5094158629272 3378.229881261893
1949.1832438409183 3511.86117255033
1949.8569094746435 3429.801559233044
1950.530412804037 3380.535431999274
1951.2037538690092 3467.9389090757722
1951.8769327094578 3307.886715804915
1952.5499493652678 3405.93415151522
1953.222803876306 3389.2530719399388
1953.895496282421 3333.4614776742637
1954.5680266234522 3364.0882518606654
1955.2403949392155 3377.0699942507513
1955.9126012695142 3119.8409629716384
1956.5846456541403 3327.7129902625084
1957.2565281328643 3214.648480383862
1957.9282487454457 3268.6175687523228
1958.5998075316202 3530.0914236824656
1959.27120453112 3362.5195361296537
1959.9424397836501 3279.993315691331
1960.613513328908 3284.608372313658
1961.2844252065697 3517.754784437926
1961.9551754563017 3289.7878209501564
1962.6257641177453 3121.2625505753876
1963.29619123054 3256.1091382400314
1963.966456834296 3143.080767213339
1964.6365609686181 3053.414962840361
1965.306503673086 3265.8750083554687
1965.976284987275 3325.7547848878253
1966.645904950734 3291.949027641303
1967.315363603002 3124.845482801807
1967.9846609836077 3332.3995914549
1968.6537971320486 3261.5974397254986
1969.3227720878222 3252.810451563152
1969.9915858904042 3268.651213262999
1970.660238579252 3340.8855843969795
1971.3287301938108 3171.2074863952716
1971.997060773514 3010.582983638139
1972.665230357772 3204.404734429483
1973.3332389859843 3040.3768741227454
1974.0010866975335 3172.700132249835
1974.6687735317864 3298.4592842382344
1975.3362995280932 3397.629753552603
1976.003664725793 3430.24636817594
1976.6708691642052 3043.048346381661
1977.3379128826364 3317.7555664751453
1978.004795920373 3250.091160249028
1978.6715183166925 3049.2178455515495
1979.3380801108524 2848.1058170876577
1980.0044813420973 3277.692201780867
1980.6707220496555 2906.570981299297
1981.3368022727373 3151.4044325889777
1982.0027220505417 3276.927389990013
1982.66848142225 2887.6669213779874
1983.3340804270283 2965.5463367259777
1983.999519104027 3029.659677105302
1984.6647974923835 3382.9394610028344
1985.329915631215 3373.2758837140013
1985.99487355963 3198.5949140275848
1986.6596713167146 3278.057247874436
1987.3243089415428 3265.860806789536
1987.9887864731754 3348.3203635833474
1988.6531039506553 2980.8566951125745
1989.3172614130071 3422.697166970402
1989.9812588992481 3171.9810038749024
1990.645096448372 2940.0993484104615
1991.3087740993633 3132.1150200962215
1991.9722918911848 3066.081938734418
1992.635649862792 3020.2508917757814
1993.2988480531185 3304.4027808310493
1993.9618865010852 3341.212617429924
1994.6247652455968 3076.057650293294
1995.287484325545 2985.693174737162
1995.9500437798033 3221.5878439098556
1996.6124436472292 3029.365641248064
1997.2746839666706 3386.6761067985544
1997.936764776954 3131.863790866976
1998.598686116895 3243.216534491071
1999.2604480252903 3335.2659310731933
1999.9220505409212 3094.6470984744824
2000.5834937025593 3007.5380553822442
2001.2447775489582 3103.234927625692
2001.9059021188514 3089.6766662985124
2002.5668674509616 3138.716344308446
2003.2276735839987 3123.5974129324777
2003.8883205566508 3338.522392430109
2004.5488084075987 3126.9004846515463
2005.2091371755014 3083.550744732179
2005.8693068990033 2990.606303849337
2006.5293176167397 3336.821566170141
2007.1891693673224 3115.933986613807
2007.848862189354 2799.4600142078284
2008.5083961214223 3140.0257004749424
2009.1677712020955 2968.9448609870474
2009.8269874699254 2888.2304728190497
2010.4860449634598 3363.0984512208147
2011.1449437212177 2742.3607746940074
2011.8036837817108 3303.31788383775
2012.4622651834325 3338.462237573749
2013.1206879648653 3287.882136232745
2013.7789521644736 3426.221593786857
2014.4370578207036 2872.0362536609273
2015.0950049719922 2950.115960332994
2015.7527936567585 3211.8767143133527
2016.4104239134067 3216.577165468969
2017.067895780323 3380.9011076758666
2017.725209295886 2815.76423514025
2018.3823644984514 3427.4414809761606
2019.0393614263648 3092.2209763024193
2019.6962001179545 2804.974916165519
2020.3528806115355 3163.4205630958686
2021.0094029454067 2993.8801181111276
2021.6657671578487 2951.0133954031216
2022.321973287133 2991.5454512263814
2022.9780213715148 2987.3455688964214
2023.6339114492293 2902.8529012407344
2024.2896435585026 3059.998504570679
2024.9452177375442 2970.304162552652
2025.600634024544 3387.0590749181815
2026.2558924576842 3128.3001068905937
2026.9109930751292 3162.8918495815933
2027.565935915025 2872.5549330047506
2028.2207210155066 3184.626271921132
2028.8753484146964 3216.1048395036087
2029.529818150695 2797.817961652798
2030.1841302615903 3294.1776579993443
2030.8382847854573 2866.5825898714384
2031.4922817603601 2998.594338956799
2032.1461212243357 3005.7428089141367
2032.7998032154192 2846.945785829127
2033.4533277716218 2879.542361759144
2034.1066949309443 2865.7346608999437
2034.7599047313688 3016.593904886126
2035.4129572108704 3210.434143337696
2036.0658524074006 3135.7622528170677
2036.7185903589016 2892.3771221436286
2037.3711711032956 3217.9232413207383
2038.023594678496 3025.3673674525735
2038.675861122394 2969.789178775704
2039.3279704728757 3163.326631967745
2039.9799227678031 2737.306501225033
2040.6317180450278 2862.73266625109
2041.2833563423865 2953.0296786361732
2041.9348376977014 2957.9153346925586
2042.5861621487784 3098.5088254064103
2043.2373297334088 3010.735571841943
2043.8883404893695 2979.4064561266996
2044.5391944544208 3261.566976092369
2045.1898916663158 3133.6679337735595
2045.8404321627804 3388.986813644801
2046.4908159815368 2987.2120129602563
2047.1410431602853 2850.158802551462
2047.7911137367173 2810.266844031406
2048.441027748504 3144.7405375936296
2049.090785233302 2835.426439730071
2049.7403862287592 3011.7949543906807
2050.389830772503 3207.4397192214014
2051.0391189021466 2696.6782193639006
2051.688250655294 3040.9691626467147
2052.337226069527 2794.2186130458003
2052.986045182417 3086.509175268383
2053.634708031521 2628.1673660907272
2054.283214654375 3055.3560031742595
2054.931565088511 2717.268001087479
2055.579759371436 2781.7511405823716
2056.2277975406523 3106.1613867922747
2056.8756796336384 3310.90587480426
2057.5234056878617 2636.129989629239
2058.1709757407752 2809.466367330163
2058.8183898298194 3183.0271079363993
2059.465647992416 2979.791246680902
2060.1127502659747 3134.2990680840917
2060.759696687888 2826.402519317866
2061.4064872955405 3264.1746553763
2062.053122126292 3141.125231414117
2062.699601217497 2718.919558252824
2063.345924606485 3037.200033559976
2063.992092330587 2942.931148440496
2064.638104427102 2883.9025742414196
2065.283960933324 3156.407323571245
2065.92966188653 3133.8798535605697
2066.5752073239855 3112.4963421369607
2067.2205972829397 2731.901294236459
2067.86583180062 2946.912680839526
2068.5109109142522 2834.4735108859
2069.15583466104 2428.278904180504
2069.8006030781708 3006.797091224052
2070.445216202821 3012.7420154938736
2071.089674072153 3226.1232748397956
2071.7339767233116 3013.19458619264
2072.3781241934303 2893.6500274353375
2073.0221165196253 3093.6640328372823
2073.6659537390024 2967.3569893084305
2074.3096358886505 2967.8670204299306
2074.953163005637 2727.24244115256
2075.596535127028 2913.1408899662265
2076.2397522898664 2724.9660272196575
2076.882814531182 2923.7585172831423
2077.5257218879924 2894.6870303012083
2078.1684743973 2834.586436772297
2078.8110720960885 2716.9801285432336
2079.453515021336 3107.9217114626813
2080.095803209997 3006.278785301056
2080.7379366990135 2748.0641195582148
2081.37991552532 2793.1822070988815
2082.0217397258275 3099.5559133099537
2082.6634093374414 2777.587543049312
2083.3049243970418 2924.2895039685163
2083.9462849415067 3040.235951765505
2084.587491007689 3052.7518251042306
2085.2285426324324 2985.8603605184476
2085.869439852564 2965.250852247732
2086.510182704902 2623.1950549688213
2087.1507712262483 2942.639417645211
2087.791205453381 2632.3643646069067
2088.4314854230743 3011.377715871903
2089.0716111720867 2840.945454350535
2089.7115827371617 2634.256249674438
2090.351400155023 2715.570280107176
2090.991063462385 2797.1668559281206
2091.6305726959527 2815.0270134577145
2092.2699278924047 3126.8302071849466
2092.9091290884153 2829.0703943672015
2093.548176320641 2774.9007303248586
2094.187069625721 3058.6324647340016
2094.8258090402887 2806.7500542196362
2095.464394600951 2910.638046222476
2096.102826344313 2942.010237036831
2096.741104306955 3052.1761790524447
2097.379228525453 2748.6370935875175
2098.017199036358 2725.7939270858737
2098.6550158762147 3201.4270105464666
2099.2926790815527 3022.042184881928
2099.9301886888825 2937.8929821141564
2100.5675447347076 2909.097331025737
2101.2047472555114 3143.0013442403338
2101.841796287761 2779.007784351046
2102.47869186792 2844.846989941105
2103.1154340324265 2877.609251720807
2103.752022817709 2804.661677262097
2104.388458260184 2943.4116809874918
2105.024740396251 3053.9062241941274
2105.660869262292 2726.9456036812467
2106.296844894685 3121.7340726423317
2106.93266732978 2836.0661987603175
2107.5683366039284 2474.386097501095
2108.2038527534532 2769.8162594915607
2108.8392158146726 3052.8302400570583
2109.4744258238843 2743.115929700212
2110.1094828173755 2865.7122531132136
2110.744386831422 3301.843129304777
2111.3791379022787 2835.8087587810437
2112.01373606619 3030.381972715877
2112.648181359389 2740.5348903798395
2113.28247381809 2860.352222990963
2113.916613478492 2885.803985832927
2114.550600376786 2882.0394643490713
2115.1844345491445 3044.596877125848
2115.818116031729 2856.9528351046024
2116.451644860679 2725.9754832025287
2117.085021072133 2629.9385738114643
2117.718244702204 2677.573042658189
2118.3513157869984 2803.327013419811
2118.984234362604 2547.7814925083867
2119.617000465092 2707.6630335936925
2120.249614130529 3055.0626789829994
2120.8820753949585 2705.8096423847974
2121.5143842944162 2796.334496930199
2122.14654086492 2651.5367525882184
2122.7785451424734 2887.602456581865
2123.4103971630702 2601.7478213032546
2124.042096962681 2941.113220790472
2124.6736445772767 2825.3538030043755
2125.305040042802 2688.434534918028
2125.936283395191 2851.596802124891
2126.567374670365 2751.3352264497594
2127.198313904233 2591.067933068379
2127.8291011326855 3239.2319906564444
2128.4597363916037 3008.896238658641
2129.0902197168507 2873.52467246008
2129.720551144279 2589.5952207088526
2130.3507307097225 3052.125999834314
2130.980758449008 3093.9549483796513
2131.6106343979427 2639.497378851641
2132.2403585923203 2972.705703544457
2132.8699310679276 3022.865587490086
2133.499351860526 2859.5177352487817
2134.1286210058715 2827.1794301307546
2134.7577385397053 2678.654677800733
2135.3867044977487 2852.7259800323095
2136.0155189157176 3029.679881637497
2136.644181829308 2932.8435743673454
2137.2726932742025 2668.1331126500518
2137.901053286074 2990.069945981169
2138.5292619005777 2518.153304047151
2139.1573191533535 2839.4526827210952
2139.7852250800315 2933.801014864918
2140.4129797162295 2883.645452482536
2141.0405830975433 2495.8362532263363
2141.6680352595613 3024.0171607665384
2142.2953362378576 2660.910277582782
2142.9224860679915 2711.509961145649
2143.549484785508 2635.7572288751367
2144.1763324259373 2800.348811618664
2144.803029024799 2611.6734460070393
2145.429574617594 2724.34475794157
2146.0559692398165 3087.0608735582964
2146.682212926942 2540.654554140311
2147.308305714432 2748.257504882875
2147.9342476377333 2919.081112115945
2148.5600387322847 3006.0463794707066
2149.185679033506 2811.7759838374227
2149.8111685768017 2874.8100061990513
2150.4365073975678 2502.1018323183766
2151.061695531187 2781.209172378801
2151.686733013021 2850.314191632616
2152.311619878423 2807.2131163959616
2152.9363561627342 2835.745545099698
2153.560941901278 2678.426079626838
2154.1853771293663 2782.2122464932063
2154.809661882293 2802.4080446081084
2155.433796195348 2820.97436452981
2156.0577801037944 2894.46918325326
2156.681613642895 2947.172253756737
2157.3052968478896 2739.9274003650144
2157.928829754006 2618.699288014076
2158.552212396462 2857.8763417844557
2159.1754448104566 2761.351218416047
2159.7985270311783 2434.3498868703564
2160.4214590938027 2361.2029937659977
2161.0442410334927 2369.477828901562
2161.6668728853874 2742.1591324479477
2162.289354684628 2670.9450906750744
2162.911686466332 2668.2106081588736
2163.533868265602 2761.253178595112
2164.1559001175337 2959.342082970762
2164.7777820572046 2902.0947500237025
2165.399514119681 2505.8294189398175
2166.021096340013 2237.538109660008
2166.6425287532384 2910.2362189004793
2167.263811394385 2652.4535438469934
2167.8849442984574 2686.200024029116
2168.505927500455 2321.292540975811
2169.126761035366 2752.1419070999673
2169.7474449381552 2679.777013331988
2170.367979243778 2500.100095035029
2170.9883639871823 2745.9822520808975
2171.608599203293 2694.6546831292203
2172.2286849270276 3218.7480905973066
2172.8486211932886 3044.067021972188
2173.4684080369625 2539.4018524290614
2174.0880454929265 2474.0004685911617
2174.7075335960417 2689.750572812739
2175.3268723811543 3007.879826021783
2175.9460618831 2529.6525196487823
2176.565102136701 2408.2698423000957
2177.1839931767627 2560.796636759168
2177.802735038078 2713.763312223903
2178.421327755432 2424.4976656511863
2179.0397713635866 2496.989877066951
2179.658065897298 2281.288828755906
2180.276211391305 2658.256937933858
2180.8942078803357 2672.0907038747587
2181.5120553991 2574.6717358554733
2182.129753982299 2434.063020741494
2182.7473036646206 2740.170130786514
2183.3647044807367 2529.6247169970206
2183.9819564653044 2590.481511101211
2184.599059652968 2794.3752815216358
2185.216014078367 2966.431920506654
2185.832819776113 2331.2584131714143
2186.4494767808137 2851.789808598824
2187.065985127063 2776.347524014225
2187.682344849436 2590.7423576497995
2188.298555982501 2872.389234381335
2188.9146185608097 2809.623672228934
2189.530532618901 2822.749060174857
2190.1462981912937 2540.9301486509003
2190.761915312507 2741.695830747726
2191.377384017036 2835.3520162941386
2191.9927043393654 2564.0405762810833
2192.6078763139667 2349.615193813169
2193.2228999753006 2294.60948812415
2193.837775357808 2239.5328285777346
2194.452502495922 2388.241123851357
2195.0670814240602 2524.9142231140386
2195.6815121766285 2611.107526229419
2196.2957947880186 2965.1163901858954
2196.9099292926057 2470.7379821164113
2197.523915724758 2685.0881883978445
2198.137754118825 2754.027426632088
2198.7514445091456 2841.1432118247203
2199.3649869300443 2662.2457423837373
2199.9783814158327 2657.121157770575
2200.5916280008096 3169.412027912757
2201.2047267192593 2778.6401030991346
2201.8176776054515 2881.98949437324
2202.430480693649 2549.644203944388
2203.0431360180955 2703.086039081675
2203.6556436130195 2792.955529583674
2204.268003512645 2280.9461162314356
2204.8802157511727 2768.5330407825813
2205.492280362796 2723.602393948219
2206.1041973816937 2586.2051856432236
2206.715966842032 2759.6561220034105
2207.3275887779655 2383.0701822266246
2207.93906322363 2606.9547517831384
2208.550390213153 2791.6150761952185
2209.1615697806465 2650.7201097169273
2209.7726019602105 2430.1822465789583
2210.3834867859277 2342.9611632300744
2210.9942242918787 2670.4376439359357
2211.6048145121167 2610.923235728028
2212.2152574806914 3263.5085014326837
2212.825553231638 2641.4027289577707
2213.435701798975 3366.9472606381496
2214.045703216707 2688.174407355836
2214.655557518832 2214.240174086484
2215.2652647393297 2329.633559913365
2215.874824912169 2049.6385784358818
2216.4842380713 2577.713313457256
2217.09350425067 2482.742102350112
2217.7026234842033 2537.173297268007
2218.311595805819 2757.142552929462
2218.9204212494133 2496.3115151801426
2219.52909984888 2903.7108483831953
2220.137631638092 2903.943489850108
2220.7460166509154 2903.9925133308584
2221.354254921198 2723.2394222027647
2221.9623464827764 2783.186715044549
2222.5702913694713 2610.511244968572
2223.178089615096 2598.561553157092
2223.7857412534486 2444.1102844454995
2224.39324631831 2430.527275180195
2225.000604843457 2284.211463788811
2225.607816862641 2785.474686836219
2226.214882409611 2935.0188146639475
2226.8218015180973 2729.0548378482217
2227.4285742218217 2428.58654198381
2228.0352005544864 2515.412333505014
2228.6416805497847 2515.346716469514
2229.248014241399 2558.6791916301936
2229.8542016629945 2383.200875840836
2230.460242848223 2710.7990811959926
2231.0661378307304 2873.4299509337297
2231.671886644139 2436.690143349285
2232.277489322065 2428.046157598073
2232.8829458981127 2265.3247895762347
2233.48825640587 2727.9275012236512
2234.0934208789095 3114.000616064508
2234.6984393507955 3001.0140133670666
2235.3033118550793 2788.8306499349037
2235.9080384252975 2732.521032436163
2236.5126190949723 2356.526120375463
2237.1170538976166 2348.1819762237824
2237.721342866729 2417.360410822414
2238.32548603579 2486.6557342095034
2238.9294834382763 2629.2631310676143
2239.533335107646 2490.6419083163846
2240.1370410773434 2766.9023503919943
2240.740601380803 2472.5236218670743
2241.3440160514474 2487.705022398896
2241.9472851226783 2505.8962248197704
2242.550408627896 2680.150200837999
2243.1533866004793 2854.7408717209946
2243.756219073799 2597.7622872107386
2244.3589060812064 2455.4509120445373
2244.961447656049 2487.1824598213616
2245.5638438316564 2693.442424674919
2246.166094641343 2518.4522833188894
2246.7682001184166 2491.2824987967715
2247.3701602961664 2575.2766762427405
2247.971975207871 2614.922921808202
2248.5736448867974 2806.0950459755627
2249.175169366197 2633.2782536167915
2249.7765486793123 2616.2361480180034
2250.3777828593684 2700.2512327474606
2250.9788719395783 2846.807296077628
2251.579815953146 2657.868780165801
2252.1806149332606 2229.7993180569915
2252.781268913097 2544.7314148400396
2253.381777925817 2277.3343623161463
2253.9821420045737 2519.4067817014266
2254.5823611825035 2661.5963962044143
2255.1824354927303 2518.1184747227103
2255.782364968365 2372.278761270335
2256.38214964251 2226.3111152010906
2256.9817895482483 2448.47256111545
2257.5812847186553 2612.5071237483708
2258.180635186791 2369.729327062411
2258.779840985704 2786.759025896438
2259.37890214843 2605.577547249299
2259.97781870799 2836.8619698228067
2260.5765906973957 2574.051713606448
2261.175218149645 2273.032103238927
2261.773701097718 2262.1909813095
2262.3720395745895 2251.271457087492
2262.970233613216 2222.8561812611747
2263.568283246548 2382.0575633454837
2264.1661885075137 2318.666365077491
2264.763949429038 2520.4621262365017
2265.3615660440246 2602.6287548039663
2265.959038385374 2209.660432996285
2266.5563664859637 2547.0714723197793
2267.153550378669 2223.6138605580427
2267.7505900963424 2341.909084806404
2268.3474856718312 2460.577228736049
2268.9442371379664 2321.174765531317
2269.5408445275643 2296.091938562541
2270.1373078734377 2689.7050905183687
2270.7336272083758 2623.7377662649787
2271.32980256516 2577.5143139202687
2271.925833976562 2485.142473604272
2272.5217214753357 2602.737023287888
2273.117465094223 2460.943440826967
2273.7130648659586 2255.8052240083953
2274.308520823257 2434.987243256333
2274.903832998827 2394.228999028687
2275.4990014253563 2353.3714632332035
2276.094026135528 2588.659135863599
2276.6889071620117 2246.5384039650535
2277.2836445374614 2675.235335605029
2277.878238294519 2584.5769680814883
2278.472688465812 2448.7453778487497
2279.066995083962 2312.626221419144
2279.6611581815705 2393.4115594014816
2280.255177791232 2665.2636824922824
2280.8490539455233 2937.648262374491
2281.442786677013 2818.898041147962
2282.0363760182554 2857.2894666701754
2282.6298220017943 2357.0248981606837
2283.223124660155 2799.21978979339
2283.816284025859 2383.991460319033
2284.4093001314086 2217.182133849189
2285.002173009292 2763.4931816708768
2285.5949026919952 2600.7013428272817
2286.1874892119777 2509.610692869769
2286.7799326016993 2683.536585706507
2287.3722328936 2208.5740396902765
2287.964390120109 2165.1215263545373
2288.556404313642 2500.9169287703526
2289.1482755066027 2384.0526529850695
2289.7400037313873 2266.8916220124343
2290.3315890203703 2376.0089723044875
2290.9230314059205 2780.729158863193
2291.5143309203904 2296.0661730984843
2292.1054875961236 2169.898233897283
2292.6965014654506 2518.8012496781275
2293.287372560684 2616.4404696988045
2293.878100914131 2463.6487694909774
2294.468686558086 2310.6100993857863
2295.059129524827 2346.5616605108416
2295.649429846617 2740.852832285701
2296.239587555716 2646.542124269613
2296.8296026843636 2602.9568868377874
2297.419475264791 2974.416423214558
2298.0092053292137 2603.008951591589
2298.598792909839 2494.788401323837
2299.1882380388597 2376.6222850009353
2299.777540748455 2479.246782165186
2300.3667010707904 2581.850794407004
2300.9557190380256 2493.5206926465503
2301.544594682302 2812.709796579273
2302.1333280357503 2268.1437225600857
2302.721919130485 2651.836559813338
2303.3103679986198 2777.2594977807325
2303.898674672242 2674.6271073439925
2304.486839183437 2204.992625501313
2305.0748615642697 2679.3546561300345
2305.6627418468015 2086.740985807566
2306.2504800630704 2502.591542244757
2306.8380762451143 2314.6212823711085
2307.425530424949 2464.618277334873
2308.012842634582 2614.9403543718245
2308.6000129060103 2729.882294690672
2309.187041271214 3139.1476419705095
2309.773927762164 2588.1537982213
2310.3606724108213 2762.209542731888
2310.9472752491274 2175.3561187021887
2311.5337363090184 2377.1976115955395
2312.120055622414 2739.7333771075364
2312.706233221221 2250.5724850971137
2313.2922691373424 2069.8468824366764
2313.8781634026564 2206.090941295859
2314.463916049037 2342.6340219350527
2315.049527108342 2495.0929036055504
2315.6349966124235 2657.7433745192166
2316.2203245931123 2591.6031080989137
2316.8055110822315 2299.16458094271
2317.3905561115935 2402.5164571639157
2317.9754597129977 2175.299430469877
2318.560221918229 2677.782506005357
2319.1448427590603 2346.003862406672
2319.729322267256 1998.6049474071829
2320.313660474563 2461.3661677244972
2320.8978574127195 3133.4190586076984
2321.481913113452 2537.854582148126
2322.0658276084705 1957.4442644009328
2322.6496009294806 2433.040558691235
2323.233233108165 2931.7519248085946
2323.8167241762058 2625.9108079261405
2324.4000741652617 2760.367557695602
2324.983283106987 2814.35147477046
2325.5663510330232 2763.921523792242
2326.1492779749933 2445.3249510838273
2326.7320639645204 2503.3022257888365
2327.3147090332004 2345.1426073339358
2327.897213212629 2445.599097212811
2328.4795765343843 2546.007654371158
2329.0617990300307 2217.9837030209724
2329.643880731124 2625.2838551372383
2330.22582166921 2660.915654499059
2330.807621875816 2561.292924626695
2331.3892813824623 2065.0718472861654
2331.9708002206517 2180.634656226116
2332.5521784218818 2317.7937943276993
2333.133416017634 2455.3344601582166
2333.7145130393765 2629.817063992317
2334.295469518571 2433.3194721186214
2334.876285486658 2569.009977455055
2335.456960975076 2614.5421441696426
2336.037496015242 2660.221373574769
2336.6178906385667 2321.00445686454
2337.198144876451 2647.536624696264
2337.778258760278 2386.4839663216776
2338.3582323214214 2150.570371228134
2338.938065591243 2529.577918503578
2339.517758601087 2797.4844705224687
2340.0973113822965 2407.6352877981944
2340.676723966193 2194.5384154641006
2341.255996384094 2543.850443574122
2341.835128667295 2472.1154342807044
2342.4141208470883 2498.850488589817
2342.992972954751 2511.7934412972027
2343.5716850215467 2398.175466196823
2344.1502570787306 1973.6170851274724
2344.7286891575386 2314.1854613974383
2345.3069812892045 2752.575311432528
2345.885133504944 2706.0474824187777
2346.4631458359618 2210.021519745932
2347.04101831345 2427.5381825026643
2347.6187509685915 2538.8886617141416
2348.196343832553 2420.0538067063812
2348.7737969364935 2212.057107913456
2349.351110311558 2386.3658083664986
2349.9282839888765 2131.009966557806
2350.5053179995757 2163.9945459704677
2351.0822123747585 2223.3916116524506
2351.658967145526 2174.3927590962235
2352.2355823429643 2125.4386283528343
2352.812057998144 2580.175657306439
2353.3883941421263 2373.6608441454887
2353.9645908059647 2506.216670705173
2354.540648020693 2308.210208675753
2355.116565817336 2372.405564558123
2355.6923442269126 2311.5134782637556
2356.2679832804224 2218.6821060706793
2356.8434830088518 2107.909648824399
2357.41884344318 2203.888467737294
2357.994064614377 2204.296732250274
