#exp_cfg={"servo_angle": 0.0, "laser_lim": 100.0, "servo_angle_to": 18.0, "laser_wup": 0.0, "bt_dev": "EnSpectr-25AE3", "laser_wdn_max": 0.0, "frames": 10.0, "servo_used": 0, "servo_calib_use": 0, "laser_wdn_min": 0.0, "servo_pix_from": 90.0, "cooler_tout": 300.0, "servo_angle_from": 0.0, "servo_calib": "[-1.9174921013161362e-09, 3.9322238269163779e-05, -0.27385609119055809, 653.59552119713567]", "laser_autoctl": 0, "servo_pix_to": 3682.0, "laser_pw": 100.0, "cooler_on": 0, "laser_volt": 4.0, "cooler_autoctl": 0, "cooler_curr": 70.0, "cooler_startup": 10.0, "laser_fixed_pw": 0, "gain": 1.3, "offset": 2.53059635486, "servo_calib_degree": 3.0, "laser_curr": 55.0, "shutter": 8200.0, "servo_calib_step": 1.0, "laser_fixed_curr": 0, "exp": 2000.0, "ccd_volt": 4.7, "bt_addr": "00:06:66:62:5A:E3", "servo_delay": 500.0, "laser_autooff": 1}
#proc_cfg={"flat_auto_wnd": 200.0, "flat_auto_fr": 200.0, "flat_auto_shift": 5.0, "yconv": 1, "flatten": 1, "flatten_strength": 100.0, "xfrom": 300.0, "auto_max_frame": 2000.0, "auto_signal": 48000.0, "flat_auto_tol": 0.1, "autoclip": 1, "xrel_range": 0.0, "flat_auto_to": 4000.0, "intensity_adj": 1.0, "xrel": 7852.0, "rmhot": 1, "flat_auto_slit": 4.999999999999997, "auto_ini_exp": 300.0, "auto_off": 0, "xto": 2860.0, "flat_auto_ref": "", "flat_auto_rank": 1, "autobackg": 0, "xrel_adj": 0.0, "auto_black_lvl": 1, "base_wnd": 100.0, "sub_baseline": 0, "xconv": 2, "auto_max_exp": 1000.0, "auto_total_exp": 10000.0, "auto_exp": 0, "rmripple": 0, "black_lvl": 8276.5, "shutter_clip_adj": 0.0, "auto_bckg": 0, "flat_auto_thr": 0.9, "subbackg": 1}
316.8218498245369 29457.847700635954
317.89969571804795 29199.443498989316
318.977263876126 29234.004636874964
320.05455438786703 29033.06846642156
321.1315673423287 28998.44145603922
322.2083028285215 29054.4488037982
323.2847609354267 28914.23999481743
324.3609417519747 28807.031984730285
325.43684536705587 28683.000027545484
326.5124718695279 28584.185346318824
327.58782134820103 28602.97178211095
328.66289389184385 28587.055190500436
329.7376895891921 28399.76813706294
330.8122085289342 28390.36767278831
331.88645079971866 28280.421814961457
332.9604164901575 28135.77631033176
334.03410568881554 28214.959923130722
335.1075184842266 28350.512581754116
336.18065496487543 27999.706451500977
337.2535152192122 28213.43202415937
338.32609933564163 28139.44058358029
339.39840740253203 27979.06277676404
340.4704395082099 27954.19329328548
341.5421957409617 28074.729089418826
342.6136761890357 28012.63069898764
343.6848809406365 27724.073277846903
344.75581008392874 27728.9863408844
345.82646370703696 27681.226070582044
346.8968418980512 27609.78797581407
347.96694474501055 27712.408502604034
349.0367723359268 27577.40608170452
350.106324758759 27573.091762652824
351.1756021014353 27463.58407294425
352.2446044518383 27549.556755180725
353.31333189781435 27592.969910585565
354.38178452716966 27579.57110402598
355.449962427665 27523.719378981197
356.51786568702846 27506.358162876837
357.58549439294256 27737.845860670874
358.6528486330535 27641.998147775146
359.71992849496564 27602.042676200508
360.7867340662433 27627.847380522922
361.8532654344144 27608.40690762315
362.9195226869597 27907.180082347902
363.9855059113288 27624.625212255993
365.05121519492604 27547.332023633207
366.11665062511565 27669.610124996398
367.1818122892273 27757.105722823297
368.2467002745434 27671.71988853953
369.31131466831175 27771.302049791724
370.375655557742 27781.559461934095
371.4397230299983 27762.182766818463
372.5035171722102 27750.909201758514
373.5670380714637 27783.09226850284
374.6302858148101 27753.321663252107
375.6932604892554 27794.958795237548
376.7559621817709 27871.851423842058
377.81839097928605 27821.601448379148
378.8805469686886 27791.070051520346
379.94243023683157 27794.90527334524
381.0040408705263 27726.997005397046
382.0653789565458 27659.14588103448
383.1264445816196 27782.520061402425
384.1872378324406 27623.300325039512
385.2477587956637 27837.451978506404
386.3080075579037 27629.76384629886
387.3679842057336 27616.567023197516
388.4276888256918 27611.751163987537
389.48712150426945 27530.896753726603
390.54628232792857 27667.698335415676
391.6051713830857 27488.94177182562
392.66378875611736 27487.225898813038
393.7221345333637 27522.42613912194
394.7802088011249 27441.610215173907
395.838011645661 27389.2044180335
396.89554315319765 27273.38097803995
397.9528034099112 27206.996964672144
399.00979250194723 27176.272189154777
400.06651051541485 27051.05990049894
401.1229575363741 27136.826552493254
402.17913365085224 27128.46011977866
403.23503894483656 27197.40860624193
404.2906735042761 27033.18513148736
405.3460374150818 26986.531991664855
406.401130763119 26980.985490998886
407.455953634224 27070.9333720645
408.5105061141876 27040.421919323522
409.56478828876243 26691.641387874395
410.6188002436629 26815.099883222087
411.6725420645689 26774.75159813852
412.72601383711117 26808.287334717104
413.77921564689314 26902.138732531264
414.8321475794728 26789.047488561548
415.88480972036814 26643.781718167833
416.93720215506437 26778.64637935342
417.9893249690049 26526.912005232753
419.04117824759123 26521.924624762574
420.09276207619223 26567.986966177657
421.144076540133 26646.203346361133
422.1951217247042 26626.423640161687
423.24589771515275 26601.80252179029
424.2964045966928 26427.707039116147
425.34664245449494 26571.513050007772
426.3966113736933 26538.473341735815
427.4463114393875 26530.241376322207
428.49574273662984 26497.5186873856
429.5449053504417 26398.594697660807
430.5937993658026 26506.752697412565
431.6424248676558 26295.820721771663
432.6907819409007 26289.640208058932
433.73887067040596 26230.700509277045
434.7866911409965 26247.88426983759
435.8342434374608 26063.474141681807
436.88152764455117 26055.076045138827
437.9285438469724 25913.11351768117
438.9752921294057 25899.078296604293
440.02177257648145 25953.93195663943
441.06798527279716 25781.5845640375
442.1139303029122 25984.239184858998
443.1596077513459 25841.014647407974
444.2050177025794 25948.682558545963
445.25016024105753 25884.975847407615
446.2950354511886 25817.54524743137
447.33964341733736 25860.205766360334
448.383984223834 25795.347242439202
449.4280579549686 25731.684184429665
450.471864694995 25719.271248172605
451.5154045281306 25739.151612701095
452.5586775385509 25783.74664922205
453.60168381039693 25672.31539854584
454.64442342776783 25821.509404893284
455.6868964747264 25647.471912940622
456.7291030353008 25580.983574340866
457.77104319347563 25792.24737484115
458.8127170332027 25606.154321305105
459.854124638392 25744.861047912993
460.895266092919 25726.414221725914
461.93614148061897 25821.640649003246
462.97675088529104 25831.106634726282
464.01709439069236 25795.782141421925
465.0571720805492 25694.314579058984
466.0969840385442 25747.153550415813
467.1365303483253 25885.622116305192
468.17581109350067 25826.03856050896
469.2148263576437 25735.42044730292
470.2535762242878 25980.10899503434
471.29206077693016 25958.8426915893
472.33028009902773 26016.77025472864
473.3682342740012 26078.934135507363
474.40592338523857 26067.602765424075
475.4433475160804 26189.625057218964
476.4805067498364 26214.837046711637
477.51740116978 26246.132229789444
478.5540308591426 26578.6106065071
479.59039590112116 26577.97329479183
480.6264963788726 26659.952609610802
481.6623323755193 26979.895071230556
482.6979039741436 27060.676886360354
483.7332112577915 27297.928581627162
484.76825430947247 27499.161655203323
485.80303321215797 27723.92313837813
486.837548048783 27833.53618722955
487.8717989022425 28154.1540785686
488.90578585539697 28378.668011139478
489.9395089910686 28518.68711987198
490.97296839203955 28507.22283381506
492.00616414106116 28338.703085117577
493.0390963208429 28451.52367592116
494.0717650140559 28371.56546746634
495.10417030333883 28434.307908229035
496.1363122712901 28229.26307688155
497.16819100046814 28078.892340529343
498.1998065734024 27776.008168520268
499.2311590725767 27665.935584062874
500.26224858044407 27554.150494833048
501.2930751794156 27292.85476429802
502.3236389518679 27179.65552929781
503.35393998014115 26873.091735547583
504.38397834653733 26888.62446844044
505.4137541333221 26779.599398444516
506.4432674227228 26519.103928201024
507.4725182969323 26493.696406659223
508.5015068381035 26357.85475936266
509.53023312835467 26341.141610059807
510.55869724976765 26215.63141639681
511.58689928438434 25993.31906646623
512.6148393142121 26008.793737584383
513.6425174212218 26108.486074352008
514.6699336873462 26105.795316056305
515.6970881944835 26218.79403714474
516.7239810244901 25843.9677674258
517.7506122591931 25957.999193540665
518.7769819803761 26009.047391180768
519.8030902697901 26049.682803285883
520.8289372091476 25996.418947889597
521.8545228801249 26195.078811771084
522.8798473643619 26048.549078341683
523.9049107434621 26111.57975846618
524.9297130989908 25975.63367085215
525.9542545124805 25979.013230712844
526.9785350654201 26018.165623754907
528.0025548392696 25937.139969608987
529.0263139154504 25872.102906236025
530.0498123753423 25921.872260412896
531.073050300296 25834.280067019085
532.0960277716204 25884.555802573388
533.1187448705896 25739.868434497766
534.1412016784416 25726.18165299722
535.1633982763833 25689.520284819293
536.1853347455726 25560.245105356767
537.2070111671401 25438.74105842873
538.2284276221817 25492.980807355765
539.2495841917516 25260.121626974174
540.2704809568677 25247.321727092753
541.2911179985167 25402.287266599124
542.3114953976419 25233.45814059394
543.3316132351592 25278.67350576679
544.3514715919409 25071.153396435388
545.3710705488247 25069.170762048343
546.3904101866156 24958.39264898309
547.4094905860784 25101.45158627857
548.4283118279418 25073.347681631472
549.4468739929034 25171.01767991
550.4651771616191 24965.366527317758
551.4832214147063 24904.587868904175
552.501006832761 25059.462899045837
553.5185334963226 25006.397573840928
554.5358014859103 25041.068748666246
555.5528108820035 24969.466432613095
556.5695617650363 24994.729268015548
557.5860542154242 25043.23477914383
558.6022883135283 24887.192040701222
559.6182641396881 24918.25319046535
560.6339817741991 24920.73862140137
561.6494412973225 25030.208501680256
562.6646427892883 25028.4746109356
563.6795863302796 24896.435371803214
564.694272000459 25025.861290976838
565.7086998799423 25147.83632803194
566.7228700488104 25122.142125317823
567.7367825871115 25025.034499015583
568.7504375748576 25276.723028006472
569.7638350920224 25243.281407453986
570.7769752185486 25276.430723630336
571.7898580343353 25361.879560884514
572.802483619258 25305.850509696094
573.8148520531431 25671.687858327074
574.8269634157932 25707.456252354856
575.8388177869692 25607.302642390277
576.8504152463938 25573.102031330855
577.8617558737587 25688.149908627463
578.8728397487175 25711.040325602204
579.883666950891 25825.036926223875
580.8942375598654 25848.21615621103
581.9045516551851 25916.922275350757
582.9146093163617 26125.465699458517
583.924410622878 26024.938412099327
584.9339556541727 25992.791217784346
585.9432444896538 26310.33792255629
586.9522772086875 26122.092229880433
587.9610538906127 26152.162509974827
588.9695746147318 26089.725416262296
589.9778394603054 26075.696939284775
590.985848506567 26081.778320142766
591.9936018327098 26037.312412926745
593.0010995178891 25692.626795601882
594.0083416412344 25750.918089591647
595.0153282818283 25590.482199558945
596.0220595187293 25453.704041875568
597.0285354309508 25401.857583565426
598.0347560974806 25358.53236157052
599.0407215972609 25311.01697651079
600.0464320092051 25300.869717836074
601.0518874121954 25297.781668085816
602.0570878850685 25077.450844819417
603.062033506636 25147.299275167414
604.0667243556636 25105.894419712706
605.0711605108936 24918.742217714098
606.0753420510264 25193.632024222807
607.0792690547278 25207.11014950596
608.082941600629 25161.223590663078
609.0863597673306 24861.465236575816
610.0895236333909 25176.02824257935
611.0924332773357 25237.279314222407
612.0950887776617 25399.907355419262
613.0974902128219 25501.37817107394
614.0996376612384 25740.835195230575
615.1015312013005 25673.267054079544
616.1031709113595 25821.321808772576
617.1045568697336 25774.07133298277
618.1056891547069 26129.15497930001
619.1065678445229 26321.859535167285
620.1071930173985 26715.734936427307
621.1075647515099 26776.394623756205
622.1076831250048 26929.61699890839
623.1075482159849 27203.341870359145
624.1071601025305 27373.823069355974
625.1065188626781 27707.508793150813
626.105624574433 28054.80457848515
627.1044773157682 28155.729060371064
628.1030771646128 28436.87957911052
629.1014241988742 28580.89976482751
630.0995184964158 28882.715716188202
631.0973601350688 29136.895920571325
632.0949491926294 29301.844234906363
633.0922857468631 29128.617125822813
634.089369875499 29327.86813397261
635.0862016562278 29366.223694113876
636.0827811667077 29111.547477994503
637.0791084845641 29115.428215428063
638.0751836873878 28873.429116150637
639.0710068527369 28788.66570152292
640.0665780581294 28434.251388268614
641.0618973810506 28214.808304335187
642.0569648989604 28114.547604414674
643.0517806892676 27725.584190087637
644.0463448293649 27550.515751065086
645.040657396592 27177.880311915815
646.0347184682723 27044.196239272347
647.0285281216875 26750.890808383585
648.0220864340772 26678.01043928893
649.0153934826558 26448.724040492387
650.0084493446047 26242.811049419746
651.0012540970674 25919.194881726457
651.9938078171526 25848.549410300595
652.9861105819346 25688.02104866235
653.9781624684565 25705.940934571758
654.9699635537254 25429.94450415427
655.9615139147136 25487.25375146995
656.9528136283589 25313.939436543187
657.9438627715699 25446.087057273056
658.9346614212154 25188.50342695003
659.925209654135 24964.136204416434
660.9155075471263 25053.3695390388
661.9055551769616 25029.58316684164
662.895352620375 25081.727993737444
663.8848999540678 24898.64725263609
664.8741972547068 24806.873104055845
665.863244598926 24762.243574813347
666.8520420633213 24847.968095898672
667.8405897244611 24822.764322121642
668.8288876588758 24561.303651357863
669.8169359430613 24622.882533652308
670.8047346534822 24536.310127001427
671.7922838665672 24524.772968944748
672.7795836587156 24567.33031415483
673.766634106285 24519.61545524263
674.7534352856092 24313.231970116063
675.7399872729766 24376.016370667083
676.7262901446538 24593.03765864172
677.712343976862 24396.08476651237
678.6981488457986 24681.015715209138
679.6837048276229 24537.273490124022
680.6690119984596 24589.188847877027
681.6540704344043 24483.81663249473
682.6388802115107 24457.308671491373
683.6234414058108 24368.424877076344
684.6077540932874 24326.235252741146
685.591818349907 24397.222411909876
686.575634251587 24189.22905237745
687.5592018742263 24102.143676071155
688.5425212936734 24059.24251213758
689.5255925857564 24076.35473578658
690.5084158262707 24174.02880705274
691.4909910909646 24094.444946031083
692.4733184555644 23964.13063220227
693.4553979957618 23892.529454132113
694.4372297872123 24005.263402353576
695.4188139055404 23945.270234800286
696.4001504263324 23703.123268510906
697.3812394251509 23939.50031231796
698.3620809775111 23809.522050064985
699.3426751589104 23801.442930472243
700.3230220448004 23676.725191369907
701.3031217106054 23951.34448607214
702.2829742317172 23984.69680082013
703.2625796834873 23728.991340827848
704.2419381412474 23791.291380588387
705.22104968028 23896.075787358957
706.1999143758458 23737.70227787691
707.178532303169 23826.875889713243
708.1569035374378 23781.49150079465
709.1350281538107 23950.651308474047
710.1129062274158 24000.838971059107
711.0905378333373 24151.407412398978
712.0679230466376 23936.28729850846
713.0450619423427 24078.71764164949
714.0219545954424 24215.256781480988
714.9986010808989 24119.82114427311
715.9750014736292 24278.494575152818
716.9511558485392 24496.445293834335
717.9270642804786 24470.587605731336
718.9027268442787 24551.25978315827
719.8781436147328 24596.901862908555
720.8533146666014 24635.33436686849
721.828240074612 24583.247839199954
722.8029199134635 24642.984867185707
723.7773542578125 24503.676959323493
724.751543182294 24454.715211901752
725.7254867615029 24441.20885401136
726.6991850700015 24258.26994683268
727.6726381823228 24212.58595244356
728.6458461729599 24209.06627376058
729.6188091163858 24238.22183024277
730.5915270870246 24130.869717746536
731.5640001592856 24057.052038013855
732.536228407529 24257.68328768307
733.5082119060917 24187.993976979655
734.4799507292755 24162.464318897706
735.4514449513481 24267.404368839067
736.4226946465496 24417.003895981492
737.3936998890786 24465.18710798111
738.3644607531078 24240.113410004004
739.3349773127793 24323.325695771433
740.3052496421951 24299.84755927648
741.27527781543 24188.364649987303
742.2450619065221 23992.4461355958
743.2146019894826 24090.56502870621
744.183898138288 23955.737674523487
745.1529504268801 23776.869794512255
746.1217589291682 23657.70604415339
747.0903237190341 23575.578460500958
748.058644870318 23601.895729199026
749.0267224568397 23464.652279487826
749.994556552374 23285.736276307536
750.9621472306771 23419.88260783036
751.9294945654583 23450.671874394506
752.8965986304011 23337.441512018824
753.8634594991636 23342.153239740674
754.8300772453586 23372.009164355695
755.7964519425768 23390.39262937744
756.762583664371 23313.943721512645
757.7284724842611 23356.767511462225
758.6941184757416 23284.516548829706
759.6595217122667 23261.634349253545
760.6246822672638 23236.052191047922
761.5896002141235 23164.677857585026
762.5542756262093 23160.464197528312
763.5187085768503 23159.91983063587
764.4828991393406 23258.65160077486
765.4468473869474 23155.803678283828
766.4105533929032 23100.607240023302
767.3740172304078 22963.354379187054
768.3372389726283 23167.699792177922
769.3002186926988 22871.99225354192
770.2629564637282 22817.764631824903
771.2254523587872 22986.11110896752
772.1877064509154 22890.51932848653
773.1497188131179 22699.20136276738
774.1114895183728 22428.950099798454
775.0730186396268 22648.694873366905
776.0343062497905 22429.34363457417
776.9953524217381 22365.55982140723
777.9561572283274 22375.356669934437
778.9167207423689 22359.49144102958
779.8770430366476 22381.96251885636
780.8371241839159 22421.34377900506
781.7969642568951 22463.300581183263
782.7565633282757 22630.4145527687
783.7159214707099 22318.523528594676
784.6750387568281 22376.43372425985
785.6339152592227 22492.14780803572
786.5925510504512 22398.69784987499
787.5509462030477 22403.4633649724
788.5091007895098 22436.633142348448
789.4670148823006 22460.133205038634
790.4246885538596 22463.542322007324
791.3821218765861 22391.830655115005
792.3393149228505 22330.831018651366
793.2962677649975 22446.725897276578
794.2529804753303 22518.43450774
795.20945312613 22596.286665982563
796.1656857896378 22382.38651268232
797.1216785380675 22518.093523284537
798.0774314435985 22803.636091800443
799.0329445783846 22851.7985306195
799.9882180145414 22923.447734664413
800.9432518241574 22886.447863858517
801.89804607929 23166.698958354125
802.852600851962 23171.58354918396
803.8069162141637 23183.56693447782
804.760992237856 23272.663880267784
805.714828994971 23290.879807874087
806.6684265574077 23364.437318443106
807.6217849970271 23322.023120078484
808.574904385674 23194.88931033165
809.527784795142 23301.75147087445
810.4804262972102 23377.278386813683
811.4328289636178 23188.744744801796
812.3849928660748 23002.157151246727
813.3369180762638 22914.009192042802
814.2886046658241 22863.587573489865
815.2400527063783 22780.296929505304
816.1912622695108 22634.598787663515
817.1422334267718 22581.811826284444
818.0929662496856 22393.454174555518
819.0434608097457 22280.51649066084
819.9937171784059 22176.461615203407
820.9437354271013 22037.706899211327
821.8935156272255 22153.651275024597
822.8430578501484 21823.926392956346
823.7923621672016 21730.24548724922
824.7414286496896 21876.668277341407
825.6902573688876 21786.23546522749
826.6388483960363 21752.795242693894
827.5872018023492 21691.217036462014
828.5353176590033 21702.87847156864
829.4831960371503 21594.917847285793
830.4308370079016 21553.077208872597
831.3782406423525 21615.514951284982
832.3254070115545 21576.82777475534
833.2723361865319 21330.910119849625
834.2190282382799 21492.828701804076
835.1654832377644 21508.3557381718
836.1117012559116 21429.028078018175
837.0576823636256 21592.45892116387
838.003426631778 21321.096049850457
838.9489341312074 21279.32855249571
839.8942049327197 21392.648864497092
840.8392391070975 21466.2222785491
841.7840367250865 21332.531930799618
842.7285978573982 21227.84191257697
843.672922574724 21397.038715455616
844.6170109477152 21324.01175251875
845.560863046996 21301.60612111572
846.5044789431595 21163.89104854735
847.4478587067697 21395.42546982175
848.3910024083561 21424.1194994825
849.333910118421 21369.387496881587
850.2765819074339 21255.986854116352
851.2190178458332 21329.413223775202
852.161218004032 21441.732510101265
853.1031824524016 21398.827741591125
854.0449112612987 21336.448292759706
854.9864045010327 21569.33998287381
855.9276622418947 21136.152706403136
856.8686845541379 21398.497358872286
857.8094715079915 21195.498729078143
858.7500231736467 21410.311386384372
859.690339621271 21336.148053773308
860.6304209209939 21447.18123819991
861.5702671429244 21123.756480684053
862.5098783571284 21364.531287120135
863.4492546336569 21392.866544239394
864.3883960425155 21430.698748687846
865.3273026536863 21194.170760065397
866.2659745371238 21386.350081374614
867.2044117627465 21566.740962268137
868.1426144004472 21356.438131206138
869.0805825200823 21603.735598677606
870.0183161914847 21654.37685096634
870.9558154844526 21716.204483727306
871.8930804687552 21776.497372152247
872.8301112141307 21640.550506997643
873.7669077902865 21835.421812038283
874.7034702669062 21910.311109297516
875.6397987136315 22025.657051117185
876.5758932000863 21911.778674992856
877.5117537958522 22164.919750246896
878.4473805704911 22044.197999751028
879.3827735935283 21977.463797942863
880.3179329344603 22109.610298744323
881.2528586627541 22314.355840872395
882.1875508478479 22256.436714705393
883.1220095591489 21952.610883237132
884.0562348660296 22055.436691481187
884.9902268378391 22044.79540490945
885.9239855438955 22095.042054938334
886.8575110534839 22031.375767989957
887.7908034358588 22028.494452956504
888.7238627602474 22121.345713950104
889.6566890958475 22007.725188652446
890.5892825118208 21838.985948275647
891.5216430773125 21659.00311496732
892.4537708614189 21660.894008560346
893.3856659332196 21569.16168757929
894.3173283617652 21359.66463234595
895.2487582160684 21384.346857995384
896.179955565116 21418.05105702628
897.110920477864 21175.486384568718
898.0416530232451 21230.31203925373
898.9721532701478 21020.71584591963
899.9024212874428 21135.418804306686
900.8324571439662 20839.92480659158
901.7622609085302 20816.064782073
902.6918326499072 20604.038723112026
903.6211724368477 20899.03540383196
904.5502803380696 20678.796897468033
905.4791564222614 20787.544543812943
906.4078007580792 20580.75019179506
907.3362134141571 20766.44414068346
908.2643944590909 20736.56248642047
909.1923439614493 20568.809494201494
910.1200619897754 20593.4052425546
911.0475486125779 20704.80682441242
911.9748038983344 20467.794293553947
912.9018279155007 20503.491967695103
913.8286207324982 20355.398110405753
914.7551824177117 20550.279918970125
915.6815130395116 20497.515919373214
916.6076126662283 20401.08937116515
917.533481366163 20491.665569682395
918.4591192075914 20414.910565624283
919.3845262587565 20466.902324529154
920.3097025878706 20352.4572634416
921.2346482631237 20353.75013683646
922.1593633526682 20413.175663058224
923.0838479246304 20387.998749951345
924.0081020471061 20433.396676517732
924.9321257881656 20137.305907498354
925.8559192158464 20320.89397695887
926.7794823981512 20204.801533129415
927.7028154030686 20343.635500927387
928.6259182985414 20069.112456098745
929.5487911524906 20300.60763444754
930.4714340328119 20272.19827194121
931.3938470073608 20095.37566737159
932.3160301439748 20249.919087348004
933.2379835104548 20256.391810075394
934.1597071745709 20264.258061899935
935.0812012040769 20419.718389834066
936.002465666681 20194.852973732064
936.9235006300696 20183.04056401952
937.8443061619055 20262.02325430293
938.7648823298077 20088.787470331787
939.6852292013809 20073.37373001819
940.6053468441951 20235.652200729055
941.5252353257874 19990.357544132254
942.4448947136698 20149.521506029967
943.364325075323 20164.34999334952
944.2835264782043 20219.99545249144
945.2024989897309 20040.525925929676
946.1212426773054 20129.008516717255
947.0397576082851 20124.73403729083
947.9580438500125 20330.373964025694
948.8761014697939 20212.377184941313
949.7939305349064 20238.09279191095
950.7115311125999 20026.519187181773
951.6289032700952 20036.521575971583
952.5460470745875 20198.85686192166
953.4629625932339 20104.02242438629
954.3796498931715 20280.878275743566
955.2961090415029 20132.01166431781
956.2123401053068 20121.743458761513
957.1283431516276 20091.73576834087
958.0441182474842 19939.062011528476
958.9596654598663 20234.41698784946
959.8749848557309 20067.191924646788
960.7900765020167 20051.292518175585
961.7049404656209 19955.18946240447
962.6195768134185 20085.147047313974
963.5339856122537 19864.368810036794
964.4481669289453 19978.711317527468
965.3621208302793 19892.894760826075
966.2758473830145 20041.803279781772
967.1893466538822 19988.95975937986
968.1026187095813 19872.924085216324
969.0156636167867 19996.292886677526
969.9284814421426 19993.644090561615
970.8410722522622 19841.515957461826
971.753436113735 19892.872869043764
972.6655730931161 19766.473623775724
973.5774832569368 20050.411804314284
974.4891666716958 19886.09761134236
975.4006234038698 19828.37897715826
976.3118535198955 19789.663205358876
977.2228570861935 19933.091489564787
978.1336341691494 19828.125229627974
979.0441848351202 19864.74251721709
979.9545091504333 19727.09759709813
980.864607181391 19940.11269251207
981.7744789942699 19828.547518028416
982.6841246553086 19943.022625616282
983.5935442307236 19935.309392195555
984.5027377867027 20030.836215390813
985.4117053894024 19890.835329259186
986.3204471049557 19897.79568244183
987.2289629994648 19958.224786546667
988.1372531390007 20205.590102596172
989.0453175896091 20018.223294255873
989.9531564173067 20013.29995162132
990.860769688079 19818.068837382878
991.7681574678918 20094.140918030498
992.6753198226706 20110.802420285807
993.582256818323 20050.795822499404
994.4889685207218 20065.550975836875
995.3954549957143 20392.49357115249
996.301716309119 20343.495954982835
997.2077525267232 20344.533752418927
998.1135637142943 20197.998334282292
999.0191499375615 20566.083249909334
999.924511262232 20371.042195984333
1000.8296477539861 20527.180576220588
1001.7345594784656 20449.32367777278
1002.6392465012996 20490.13411189352
1003.5437088880753 20395.576799799754
1004.4479467043584 20446.681304615206
1005.3519600156869 20208.963908290734
1006.2557488875718 20201.20778008004
1007.1593133854858 20270.922896160013
1008.0626535748888 20222.031716789163
1008.9657695212009 20041.819168299342
1009.8686612898182 20339.420404218337
1010.7713289461135 20203.543486542872
1011.6737725554212 20211.831390134532
1012.5759921830577 20065.690187202104
1013.4779878943027 20113.331222479384
1014.379759754418 20030.48736654383
1015.2813078286254 19879.70876388233
1016.18263218213 19703.0241745187
1017.0837328801026 19954.757454747123
1017.9846099876886 19827.471877904383
1018.8852635700023 19688.261278313654
1019.7856936921362 19598.321401647612
1020.6859004191447 19744.736415838306
1021.5858838160675 19555.104666187075
1022.4856439479063 19511.518083548224
1023.3851808796389 19407.923570522405
1024.2844946762143 19578.813884495798
1025.183585402554 19293.931856324936
1026.082453123554 19257.739485361715
1026.9810979040776 19299.375025462028
1027.8795198089647 19279.78653316943
1028.777718903024 19353.372940384896
1029.6756952510368 19257.368759691955
1030.5734489177648 19177.005719381774
1031.4709799679313 19346.706165138286
1032.3682884662358 19261.08381341486
1033.2653744773506 19265.85524259987
1034.1622380659192 19214.867815716945
1035.058879296559 19353.36839906092
1035.9552982338591 19338.503509092283
1036.8514949423825 19342.248601518695
1037.7474694866614 19350.54780667992
1038.6432219312028 19432.97650252615
1039.5387523404825 19668.739567901026
1040.4340607789582 19591.02247671079
1041.3291473110476 19587.075994506587
1042.2240120011465 19981.105840094275
1043.1186549136273 20154.28688427274
1044.0130761128294 19921.8027937776
1044.9072756630649 20010.998540825618
1045.8012536286205 20257.20509953309
1046.6950100737577 20115.541099596834
1047.588545062701 20356.5521722509
1048.481858659663 20252.055783690244
1049.3749509288118 20467.918472000096
1050.2678219343034 20344.63785206583
1051.1604717402515 20231.60557660387
1052.0529004107575 20108.81834737224
1052.9451080098825 20394.075113406674
1053.8370946016694 20159.014170894174
1054.7288602501267 20300.59886687032
1055.6204050192446 20064.096508117604
1056.511728972977 20279.274453606235
1057.402832175254 20002.668580696227
1058.2937146899785 19984.140762851475
1059.1843765810263 19948.746414469384
1060.0748179122456 20191.12585956592
1060.9650387474576 20009.8760156717
1061.855039150456 20023.980361508355
1062.7448191850071 19867.33359681463
1063.6343789148505 19830.94593013592
1064.5237184037014 19714.317821536228
1065.412837715241 19615.393743920406
1066.3017369131267 19582.625742671164
1067.190416060992 19738.052722127748
1068.0788752224398 19379.322536954474
1068.9671144610438 19596.696965285104
1069.8551338403558 19568.44386032835
1070.7429334239023 19758.69506697324
1071.6305132751695 19520.35765212838
1072.517873457633 19777.974545452864
1073.4050140347335 19393.74717696281
1074.2919350698776 19654.01075880739
1075.1786366264623 19550.9920593575
1076.0651187678395 19542.198638574617
1076.95138155735 19245.004915698322
1077.8374250582929 19425.681303783706
1078.7232493339507 19264.113469917116
1079.608854447577 19319.904257656417
1080.4942404623907 19145.327241220068
1081.3794074415982 19247.050924046976
1082.2643554483657 19089.686379988387
1083.149084545841 19242.40736756625
1084.033594797138 18692.245071912163
1084.9178862653516 18967.523956061326
1085.8019590135427 18922.96496736241
1086.6858131047484 18713.639914452353
1087.5694486019802 18727.963626468852
1088.4528655682225 18658.782962437348
1089.3360640664287 18808.171932660098
1090.2190441595321 18578.728940957568
1091.1018059104317 18607.35006462
1091.98434938201 18787.30665264805
1092.866674637111 18658.5230035513
1093.748781738559 18726.327788972834
1094.6306707491512 18583.901350875716
1095.5123417316554 18655.469572885893
1096.3937947488157 18533.970933178927
1097.2750298633455 18565.311338123774
1098.156047137938 18502.36355885042
1099.0368466352556 18586.314863718188
1099.9174284179317 18634.70081158232
1100.7977925485757 18511.3974863412
1101.6779390897755 18356.42320302905
1102.5578681040806 18504.665476547783
1103.4375796540226 18395.443175014883
1104.3170738021054 18542.42337007184
1105.1963506108077 18308.692559149455
1106.0754101425773 18444.58112117972
1106.9542524598382 18365.392723054476
1107.8328776249855 18325.93735272875
1108.7112857003904 18240.23839964933
1109.5894767483987 18337.789749191743
1110.4674508313292 18364.951717040527
1111.3452080114657 18412.158168657676
1112.2227483510815 18426.502705389255
1113.1000719124077 18593.038495806562
1113.9771787576592 18592.215118419426
1114.854068949022 18650.539874308983
1115.7307425486542 18488.444421637967
1116.6071996186893 18767.425078492473
1117.483440221229 19007.448819807592
1118.3594644183577 18938.55957451059
1119.235272272128 18959.385356781575
1120.1108638445658 19253.58000863122
1120.9862391976712 19421.795329983786
1121.8613983934229 19574.127648567017
1122.7363414937627 19393.110161109664
1123.6110685606182 19743.959070145163
1124.485579655884 19904.493778048818
1125.359874841426 19966.55629782974
1126.2339541790916 19941.874391635498
1127.1078177306936 20318.816619276076
1127.9814655580267 19938.564901744503
1128.854897722851 20363.18230780363
1129.7281142869106 20302.51709783636
1130.6011153119125 20458.576537626468
1131.473900859548 20542.688294501684
1132.3464709914697 20451.374078923
1133.2188257693178 20289.11450392117
1134.0909652546961 20185.78355473448
1134.96288950919 20059.743412404074
1135.8345985943506 20380.13489099568
1136.7060925717087 19980.41702247345
1137.57737150277 19949.10484669101
1138.4484354490069 19712.18478748775
1139.3192844718778 19716.667341503497
1140.1899186327992 19522.633040400146
1141.060337993178 19617.18454229829
1141.930542614382 19336.751409553304
1142.8005325577597 19291.799373027283
1143.670307884635 18808.21307931973
1144.5398686563003 19138.175626536926
1145.409214934025 18847.76231067678
1146.2783467790541 18581.95275203299
1147.1472642526023 18587.377419420893
1148.0159674158622 18710.033344338903
1148.8844563300026 18375.766044457247
1149.7527310561618 18273.539833866645
1150.6207916554504 18155.14160399261
1151.4886381889592 18105.200295264127
1152.3562707177498 18048.877738663614
1153.2236893028585 17984.151115113105
1154.090894005296 17900.96679718425
1154.9578848860474 17916.327571197096
1155.8246620060709 17779.13670025435
1156.6912254262988 17762.30585128856
1157.5575752076438 17565.998220763155
1158.42371141098 17872.69295372413
1159.2896340971656 17769.393227870965
1160.1553433270346 17720.016919438058
1161.0208391613887 17579.377192502703
1161.8861216610057 17664.02745650358
1162.75119088664 17697.8317829447
1163.6160468990201 17561.870928173666
1164.4806897588442 17285.456031919282
1165.3451195267917 17582.01921668556
1166.2093362635114 17477.60248370593
1167.0733400296285 17458.386813076115
1167.9371308857444 17191.928787637986
1168.8007088924278 17310.285905816338
1169.6640741102328 17377.24949685372
1170.5272265996773 17198.47008144609
1171.390166421259 16962.648394738306
1172.252893635452 17421.161127598516
1173.1154083026995 17324.755339068535
1173.977710483421 17380.41324226082
1174.8398002380145 17183.031068336128
1175.7016776268483 17196.246534455644
1176.563342710264 17203.107215243355
1177.4247955485826 17046.673205031755
1178.2860362020947 17044.91099542398
1179.147064731069 17115.733620318533
1180.0078811957483 17091.153020022895
1180.8684856563486 17084.00554302548
1181.7288781730604 17062.661798939367
1182.589058806052 17317.758373140518
1183.4490276154593 17380.726070996367
1184.3087846614017 17355.263975206057
1185.1683300039676 17162.895043531935
1186.027663703222 17604.281503666054
1186.8867858192025 17427.812357467737
1187.7456964119228 17244.79833336795
1188.6043955413716 17511.13631888979
1189.4628832675116 17515.06679138991
1190.3211596502842 17548.61601923143
1191.179224749596 17773.275672444015
1192.0370786253388 17659.733181224325
1192.8947213373758 17922.065415804143
1193.7521529455407 18043.59746844711
1194.6093735096438 17668.534029155086
1195.466383089477 17901.237750161876
1196.3231817447977 17919.362363672793
1197.1797695353398 18090.929910861152
1198.0361465208189 17782.445542532434
1198.8923127609214 17758.648627738225
1199.7482683153048 17929.147494250934
1200.6040132436028 17993.4315771695
1201.459547605431 17884.162913006112
1202.3148714603722 17679.839014671044
1203.1699848679855 17892.288525915515
1204.0248878878065 17834.052260337536
1204.8795805793507 17641.411041083662
1205.7340630020935 17663.388420270898
1206.5883352155033 17766.50874878737
1207.4423972790064 17555.57610252726
1208.2962492520237 17605.24335613775
1209.1498911939307 17485.389473320913
1210.0033231640937 17592.230980098986
1210.8565452218427 17218.768271072197
1211.7095574264913 17250.704568204143
1212.5623598373222 17023.145493034852
1213.4149525135963 17138.59727866272
1214.2673355145507 17131.198436452796
1215.1195088993936 16986.149573523464
1215.9714727273113 16814.38512491071
1216.8232270574663 17117.081000098235
1217.6747719489904 16658.142110283286
1218.5261074609934 16742.447558095875
1219.3772336525653 16769.417814994325
1220.2281505827668 16815.97748192976
1221.0788583106296 16708.945302114
1221.9293568951707 16641.523852411396
1222.7796463953746 16507.135463363644
1223.629726870202 16675.23341322059
1224.4795983785934 16720.485961437193
1225.3292609794553 16515.12081215509
1226.1787147316809 16417.284718727686
1227.0279596941327 16650.72219414072
1227.8769959256424 16420.44392871639
1228.7258234850306 16587.72524991164
1229.5744424310833 16382.082932616502
1230.422852822563 16591.7571393067
1231.2710547182105 16547.142307355905
1232.119048176739 16559.531251755096
1232.9668332568417 16259.46693679633
1233.8144100171812 16548.267122297922
1234.6617785163999 16617.174408693994
1235.508938813111 16416.404195385927
1236.3558909659114 16425.206114630288
1237.2026350333617 16651.916014989474
1238.049171074008 16526.84239361941
1238.8954991463652 16329.741679104005
1239.741619308932 16192.738393151998
1240.587531620169 18332.258483541904
1241.4332361385277 16191.856300906064
1242.2787329224248 16179.977595421666
1243.1240220302534 16131.933994558858
1243.9691035203869 16135.090595415324
1244.813977451171 16253.788097982437
1245.6586438809263 16343.73178093048
1246.5031028679496 15892.72844389875
1247.3473544705157 16327.800110118722
1248.1913987468706 16137.217748065024
1249.0352357552383 16000.514526766323
1249.8788655538228 16121.482622608168
1250.7222882007918 16228.281582271977
1251.565503754302 16204.0702828765
1252.4085122724755 16131.850924815288
1253.2513138134182 16100.701988631083
1254.0939084352049 16271.973621430163
1254.9362961958905 16102.957672755112
1255.7784771535007 16128.558022473115
1256.6204513660432 16078.568643382296
1257.4622188915 16370.150367989638
1258.3037797878242 16072.172413869455
1259.1451341129468 16137.190418818407
1259.9862819247755 16113.620083172364
1260.8272232811978 16111.784337744062
1261.6679582400666 16078.163168210449
1262.5084868592203 15913.978639744735
1263.34880919647 15877.276372020051
1264.1889253095997 16053.737519369286
1265.0288352563712 15912.1597338987
1265.8685390945266 15947.297933793536
1266.7080368817751 15875.464713879695
1267.5473286758115 15993.576835009566
1268.386414534294 15986.16084901506
1269.2252945148703 15647.662769058737
1270.0639686751547 15770.537756920457
1270.9024370727402 15796.996242976875
1271.7406997651997 15678.35759740879
1272.5787568100714 15640.959067209798
1273.4166082648808 15605.494847771823
1274.2542541871244 15632.247890101735
1275.091694634275 15720.594414163166
1275.9289296637817 15526.039791072088
1276.7659593330663 15458.888845785317
1277.6027836995308 15638.60088682867
1278.4394028205552 15616.529987620874
1279.2758167534867 15547.787797745124
1280.112025555658 15688.95624969927
1280.9480292843746 15519.086008502005
1281.7838279969128 15489.620570276766
1282.6194217505326 15425.06653305472
1283.4548106024686 15219.270897754512
1284.289994609926 15430.122414982176
1285.1249738300921 15553.301683504227
1285.959748320127 15428.562732592249
1286.7943181371702 15527.083488782062
1287.6286833383328 15393.274706106164
1288.4628439807038 15455.076296715202
1289.2968001213521 15321.986746154018
1290.1305518173194 15309.612520837089
1290.9640991256183 15320.546100301057
1291.7974421032523 15295.393734498333
1292.630580807183 15336.849341961872
1293.463515294361 15374.745379820373
1294.29624562171 15514.09634654868
1295.12877184613 15312.39202183794
1295.961094024493 15468.168310814017
1296.79321221365 15404.816123764904
1297.6251264704333 15586.151305361598
1298.4568368516466 15665.81797049521
1299.2883434140658 15516.79690883527
1300.1196462144526 15313.489867025142
1300.9507453095375 15511.502466337546
1301.7816407560313 15509.272510924417
1302.6123326106172 15504.636725780356
1303.4428209299622 15290.958753583205
1304.2731057707024 15575.133728717463
1305.1031871894502 15369.973235631114
1305.933065242798 15550.158190389931
1306.7627399873181 15421.623203244017
1307.5922114795467 15865.237718714194
1308.4214797760123 15779.203027379233
1309.2505449332057 15559.825345354457
1310.0794070076026 15541.761363643327
1310.9080660556538 15830.859719312875
1311.736522133786 15590.607902982232
1312.5647752983987 15548.110003123857
1313.3928256058734 15545.976567201229
1314.2206731125661 15762.609459645955
1315.048317874809 15695.866820285559
1315.8757599489109 15610.433888053138
1316.7029993911547 15631.3507596441
1317.5300362578055 15978.023308559688
1318.356870605101 15680.784867499688
1319.183502489257 15667.98348797001
1320.0099319664623 15807.76277256155
1320.836159092889 15830.235075483235
1321.66218392468 15825.329458631317
1322.4880065179532 15686.000680120987
1323.3136269288134 15827.611358374794
1324.1390452133292 15829.08080273498
1324.9642614275563 15861.277486667179
1325.7892756275214 15831.919927343732
1326.6140878692295 15542.395926350388
1327.4386982086617 16187.36781663413
1328.2631067017755 15650.01613151514
1329.0873134045069 15754.786638438245
1329.911318372764 15544.407444060325
1330.735121662441 15606.66674480405
1331.558723329399 15563.331683233886
1332.3821234294774 15539.320614614679
1333.2053220185007 15436.483643462521
1334.0283191522612 15509.297965527041
1334.851114886529 15418.51362112296
1335.6737092770582 15373.017554304271
1336.4961023795695 15410.007142404234
1337.3182942497697 15290.135836606758
1338.1402849433325 15375.3380850174
1338.962074515921 15126.378157296625
1339.7836630231632 15035.614394218243
1340.6050505206676 15515.931373450923
1341.426237064028 15231.150068806726
1342.2472227088037 15307.056228005855
1343.0680075105338 14854.754440169014
1343.888591524741 14893.725178349192
1344.7089748069138 15183.311915047856
1345.5291574125276 14866.546779716246
1346.3491393970307 14722.454597408181
1347.168920815846 14992.736654309843
1347.9885017243778 14920.531380533595
1348.8078821780036 14856.881635930558
1349.6270622320844 14698.251192248577
1350.4460419419447 14715.658744740445
1351.2648213629054 14786.077146832691
1352.0834005502438 14562.575042948967
1352.90177955923 14663.866320152665
1353.7199584451064 15170.618443722347
1354.5379372630887 14670.75103581837
1355.355716068374 14646.842159894939
1356.1732949161305 14375.369827228747
1356.9906738615155 14577.352737750949
1357.8078529596478 14526.49228525699
1358.6248322656375 14658.609772590116
1359.441611834567 14386.475842776732
1360.2581917214866 14804.871142837379
1361.0745719814367 14154.426268009574
1361.890752669433 14264.849965551035
1362.7067338404577 14327.280664089598
1363.5225155494845 14491.867073344412
1364.3380978514506 14562.286779605623
1365.1534808012839 14254.358565498755
1365.9686644538815 13936.495094804282
1366.783648864117 14381.959061481266
1367.5984340868417 14327.921509020991
1368.413020176893 14340.71818090774
1369.2274071890715 14050.416497506481
1370.0415951781652 14296.194665416382
1370.8555841989346 13942.589206254252
1371.6693743061223 13985.290749976619
1372.48296555444 13904.086630181837
1373.2963579985844 14332.642952770682
1374.1095516932255 13938.345833869917
1374.9225466930166 13967.943195747614
1375.7353430525782 13844.602941555426
1376.5479408265164 14032.42387961511
1377.36034006941 14044.899095544664
1378.1725408358216 14038.799764217101
1378.9845431802805 13693.228698101904
1379.796347157304 14095.163916262265
1380.6079528213813 14104.648989378087
1381.4193602269788 13867.191949225966
1382.230569428546 13693.724872826377
1383.0415804805016 14123.875164480545
1383.852393437246 13965.847256603502
1384.6630083531563 14003.080709573358
1385.4734252825892 13793.129403868978
1386.2836442798798 13834.349821046559
1387.0936653993322 13715.64313643873
1387.9034886952395 13678.341623699273
1388.713114221864 13672.985218068186
1389.5225420334482 13756.797733858208
1390.331772184214 13489.066296462226
1391.1408047283585 13520.650619622425
1391.9496397200564 13395.602701574408
1392.758277213461 13832.544116420806
1393.5667172627054 13560.801550947832
1394.3749599218918 13510.543526031997
1395.1830052451114 13230.382229781873
1395.9908532864265 13396.78841316522
1396.7985040998774 13586.963284242107
1397.6059577394808 13243.9949073792
1398.4132142592352 13327.751521896778
1399.2202737131156 13296.040961669085
1400.027136155073 13261.10232761881
1400.8338016390353 13276.85382299178
1401.6402702189134 13107.887099608275
1402.446541948586 13267.17679692606
1403.2526168819204 12962.910600755251
1404.058495072757 13128.307907860511
1404.8641765749107 12835.335344225137
1405.6696614421799 13069.794404798584
1406.4749497283356 13213.720095174212
1407.280041487129 12861.28078282506
1408.084936772295 12639.881561761234
1408.8896356375335 13041.31248749485
1409.6941381365323 12865.596122510033
1410.498444322955 12624.413903470711
1411.3025542504402 12635.630335700893
1412.106467972606 12729.448983144506
1412.9101855430508 12728.225299190477
1413.7137070153458 12469.98482495088
1414.5170324430437 12299.835856214919
1415.320161879672 12559.309338083274
1416.1230953787435 12812.857286503577
1416.925832993742 12314.304027590455
1417.7283747781275 12099.843341376461
1418.5307207853439 12403.690426299243
1419.3328710688093 12302.957310863796
1420.134825681922 12168.472837436562
1420.9365846780584 12205.47841434939
1421.7381481105713 12413.509224305177
1422.539516032788 12200.702474489182
1423.3406884980232 11980.271292777114
1424.1416655595604 11927.273012123243
1424.942447270665 12057.59676750691
1425.7430336845828 12081.047203328639
1426.5434248545298 11959.142395689016
1427.3436208337116 12008.305465625723
1428.143621675301 12173.738989611968
1428.9434274324558 12204.406656234652
1429.7430381583108 11777.027718678375
1430.5424539059713 11906.77113168075
1431.3416747285337 12350.482670217938
1432.1407006790632 11978.480321454263
1432.9395318106053 11872.59180330909
1433.7381681761835 11742.116940647265
1434.5366098288014 11970.522924239182
1435.3348568214424 12023.3268193358
1436.1329092070573 11863.80913473464
1436.9307670385879 11792.588676019459
1437.7284303689503 12054.25839256872
1438.5258992510335 12135.666344537221
1439.3231737377118 11957.648985320082
1440.1202538818306 11824.033431211332
1440.9171397362225 11899.967236020935
1441.7138313536925 11778.851452509198
1442.5103287870243 11729.544022416507
1443.3066320889775 11667.014345058506
1444.1027413122956 11987.568478893738
1444.8986565096966 11682.080271843031
1445.694377733882 11716.719346238217
1446.4899050375207 11499.770463934059
1447.2852384732687 11654.14159256747
1448.0803780937622 11692.75886299829
1448.8753239516063 11523.404338531867
1449.6700760993954 11413.121023500917
1450.464634589689 11427.803018204637
1451.2589994750397 11669.811506918277
1452.0531708079689 11413.261350954852
1452.8471486409799 11288.303975384883
1453.6409330265524 11667.085417786942
1454.4345240171442 11254.127653366619
1455.2279216651987 11408.91162048852
1456.0211260231263 11351.62421292141
1456.8141371433194 11380.0851986423
1457.6069550781594 11391.340614262683
1458.3995798799897 11165.59511707348
1459.1920116011424 11223.96049703679
1459.98425029393 11206.903988386206
1460.7762960106338 11175.1569444762
1461.5681488035225 11103.62574238616
1462.3598087248392 11103.896320557513
1463.1512758268036 11246.653500920229
1463.942550161617 11070.052218137478
1464.7336317814625 10985.29661823288
1465.524520738496 11093.603885340131
1466.3152170848552 11017.529769290983
1467.1057208726506 11106.686107341022
1467.8960321539817 10967.715500695744
1468.6861509809169 10721.686098391965
1469.4760774055085 10908.0923650237
1470.265811479785 10933.609393441897
1471.055353255755 10691.995419115128
1471.844702785409 10823.926161699766
1472.6338601207044 10739.528636047598
1473.4228253135934 11313.792309949693
1474.2115984159936 10760.799931268315
1475.0001794798063 10495.205596915035
1475.7885685569145 10878.41117280949
1476.576765699172 10796.751589739779
1477.3647709584238 10661.61037677362
1478.1525843864802 10900.818790340407
1478.9402060351367 10866.377812568056
1479.7276359561693 10738.06171847015
1480.514874201328 10618.437904728047
1481.3019208223468 10492.250573203095
1482.0887758709323 10614.998414416508
1482.8754393987747 10724.138851582813
1483.6619114575406 10408.86966690714
1484.4481920988783 10846.189549012688
1485.2342813744108 10785.797390918164
1486.0201793357446 10712.04096163541
1486.8058860344572 10607.702529841805
1487.591401522117 10423.452089508337
1488.3767258502594 10631.494011114519
1489.1618590704056 10610.680071146726
1489.9468012340494 10386.064927493211
1490.7315523926754 10531.565657294299
1491.5161125977356 10626.536276760626
1492.3004819006637 10460.591801536322
1493.084660352877 10511.096310725883
1493.8686480057622 10619.32128769474
1494.6524449106964 10794.353319736367
1495.4360511190262 10795.808211896403
1496.219466682087 10704.699053733768
1497.0026916511779 10571.626547539394
1497.7857260775945 10483.836368870438
1498.5685700125996 10705.81998516746
1499.3512235074395 10502.486510625464
1500.133686613337 10422.978538607342
1500.9159593814966 10452.05273300537
1501.698041863101 10885.067874589344
1502.4799341093094 10239.560318362503
1503.2616361712662 10333.538045383699
1504.043148100087 10754.088181074178
1504.8244699468742 10418.02124386287
1505.6056017626997 10434.8495981489
1506.3865435986281 10081.640627443612
1507.1672955056893 10501.001028883684
1507.9478575348967 10219.097428991443
1508.7282297372512 10579.857844217255
1509.5084121637192 10315.25899942366
1510.2884048652577 10376.653619287848
1511.0682078927948 10261.946370647347
1511.8478212972423 10320.6904247106
1512.6272451294917 10123.92573504805
1513.4064794404076 10478.037582273228
1514.1855242808433 10330.23145317697
1514.9643797016215 10292.393826425543
1515.743045753552 10250.130987550689
1516.5215224874191 10381.456006919794
1517.2998099539836 10004.470170785376
1518.077908203999 10336.170603447721
1518.8558172881785 10231.467357122794
1519.633537257234 10471.301225194817
1520.4110681618404 10256.80154923021
1521.1884100526604 10475.428784524423
1521.9655629803365 10379.813191589628
1522.7425269954856 10521.397354864908
1523.5193021487103 10639.19924626838
1524.2958884905856 10260.118981499192
1525.0722860716687 10234.632444645278
1525.848494942502 10400.983669302876
1526.624515153595 10305.205915570275
1527.4003467554485 10419.3239643327
1528.175989798534 10511.397508033739
1528.9514443333064 10378.928942221615
1529.726710410203 10549.070198233178
1530.5017880796331 10243.105613562593
1531.276677391992 10355.754370401346
1532.0513783976457 10485.00624607605
1532.825891146953 10335.763427262504
1533.6002156902414 10393.031250900758
1534.3743520778207 10336.55606861514
1535.1483003599806 10443.917974450193
1535.9220605869923 10257.178547916155
1536.6956328091019 10483.590267497417
1537.4690170765407 10451.344048836649
1538.242213439511 10525.077137647768
1539.015221948208 10407.045346772806
1539.78804265279 10352.42568965321
1540.560675603405 10100.049678470841
1541.3331208501804 10663.654755304156
1542.1053784432224 10590.089822991282
1542.8774484326168 10497.78194363956
1543.649330868422 10439.215633418224
1544.4210258006842 10618.09043341701
1545.1925332794308 10384.262135269097
1545.9638533546604 10463.012750048005
1546.7349860763552 10346.981329756316
1547.5059314944829 10644.490404404485
1548.27668965898 10445.889632014827
1549.0472606197673 10604.527511110215
1549.817644426752 10141.705226747656
1550.5878411298072 10537.077752791154
1551.3578507787988 10091.793654568737
1552.1276734235635 10469.255046612046
1552.8973091139233 10586.63197554523
1553.6667578996767 10614.099198354492
1554.436019830604 10598.040698697001
1555.20509495646 10510.35355153561
1555.9739833269869 10339.86745845262
1556.7426849919011 10310.78932909913
1557.511200000903 10739.224005974778
1558.2795284036674 10539.13608318989
1559.0476702498509 10583.04320197766
1559.8156255890954 10722.742593068133
1560.5833944710157 10737.952130821275
1561.3509769452048 10403.304967884638
1562.1183730612447 10436.456977463053
1562.8855828686865 10450.873785002845
1563.6526064170703 10763.52798259323
1564.4194437559127 10665.017688710523
1565.1860949347047 10406.45657714245
1565.9525600029283 10749.1605915348
1566.7188390100328 10667.685665401581
1567.4849320054564 10637.393104365348
1568.250839038612 10482.71437572291
1569.0165601588997 10445.728342623343
1569.7820954156887 10730.216987288924
1570.5474448583373 10354.238417471279
1571.31260853618 10278.161710974044
1572.0775864985299 10271.986099081618
1572.8423787946813 10480.953192214289
1573.6069854739108 10351.235888559877
1574.371406585471 10435.523959253289
1575.1356421785986 10587.460342411548
1575.899692302506 10313.162599192425
1576.6635570063845 10406.771304046264
1577.4272363394157 10164.104153165626
1578.190730350747 10411.04335544102
1578.9540390895163 10271.106902082702
1579.7171626048384 9986.096530052386
1580.480100945806 10196.284168930988
1581.2428541614918 10214.181783635548
1582.0054223009538 10084.590846454568
1582.767805413223 10280.584763136272
1583.5300035473156 10164.703899364897
1584.292016752228 10356.423222961137
1585.0538450769309 10231.17067051437
1585.8154885703807 9997.554373285873
1586.5769472815136 9996.20013889419
1587.3382212592405 10246.708037394568
1588.099310552463 10210.492739788493
1588.8602152100484 9853.502542030701
1589.6209352808564 10284.792668989181
1590.3814708137234 10245.587209963498
1591.14182185746 9972.21762834246
1591.9019884608679 10225.462089213088
1592.6619706727215 9701.370173892943
1593.4217685417734 10178.584735860855
1594.1813821167616 10335.233214327533
1594.9408114464022 9848.825939937424
1595.7000565793933 10065.391028151804
1596.459117564409 10140.24815371543
1597.2179944501113 9861.083521792712
1597.9766872851324 10100.323026971206
1598.735196118092 10172.894604247273
1599.4935209975883 10226.258367016977
1600.2516619721973 10228.58921468916
1601.0096190904787 10046.310610926437
1601.7673924009723 10120.881274557953
1602.524981952196 9898.49035693258
1603.2823877926476 9862.280243836449
1604.0396099708087 9950.624203031226
1604.7966485351371 9780.101396748021
1605.5535035340745 9975.449906923497
1606.3101750160404 10113.960844632611
1607.0666630294363 9996.103432015463
1607.822967622642 9633.427543665066
1608.5790888440224 9964.930357436042
1609.3350267419137 10061.031593363517
1610.0907813646445 9884.434929234736
1610.8463527605145 10012.185347616263
1611.601740977805 9981.590413709633
1612.356946064785 9977.438053901777
1613.1119680696902 9533.210246927516
1613.8668070407512 9797.623311193962
1614.6214630261748 9841.205837952282
1615.375936074137 9705.849324409648
1616.1302262328118 9812.385603814892
1616.8843335503425 9795.935808848331
1617.638258074854 9667.064389644223
1618.391999854457 9622.466143669675
1619.1455589372363 9953.92940550303
1619.8989353712623 9711.859084104806
1620.65212920458 9343.579917453544
1621.4051404852235 9636.985212174151
1622.1579692611976 9586.382835457418
1622.9106155804966 9351.875778636238
1623.663079491087 9591.014160894933
1624.4153610409248 9581.612230181117
1625.1674602779385 9536.33708616808
1625.9193772500403 9233.677109942368
1626.6711120051277 9741.431423928252
1627.4226645910676 9546.6951251045
1628.174035055721 9269.869811577157
1628.9252234469168 9505.656052055934
1629.676229812474 9385.094537884177
1630.4270542001905 9679.000599413126
1631.1776966578382 9401.863462399058
1631.9281572331747 9470.80246976874
1632.678435973945 9571.735917812712
1633.4285329278573 9484.112360541145
1634.1784481426203 9325.7972610256
1634.9281816659113 9475.224027209719
1635.677733545388 9684.120594063552
1636.4271038286934 9375.37495758419
1637.176292563452 9540.308418645433
1637.9252997972635 9406.59017653604
1638.674125577716 9816.38303182725
1639.4227699523672 9802.397025876653
1640.171232968767 9331.727841601632
1640.9195146744423 9627.369115958163
1641.6676151168977 9828.682654242646
1642.4155343436178 9544.5044636912
1643.1632724020765 9561.706403342083
1643.9108293397167 9443.616569718168
1644.658205203974 9464.162344672135
1645.4054000422566 9986.974626950765
1646.1524139019566 9570.790363526508
1646.8992468304423 9607.705397335616
1647.6458988750728 9563.731465411063
1648.3923700831765 9771.269474283814
1649.1386605020743 9441.387370698987
1649.8847701790564 9618.575352836557
1650.6306991614038 9656.465406754682
1651.3764474963682 9739.589029611847
1652.1220152311944 9433.639674639451
1652.867402413096 9660.225405984831
1653.6126090892776 9501.803694505765
1654.3576353069184 9800.381026065645
1655.1024811131829 9670.10906954094
1655.8471465552066 9702.7789125367
1656.5916316801213 9801.484857670826
1657.3359365350298 9774.779652338953
1658.0800611670165 9595.80203858702
1658.824005623148 9547.105431898137
1659.5677699504722 9431.56056306408
1660.3113541960192 9479.347220522364
1661.054758406799 9480.264324231479
1661.7979826297997 9336.162506723318
1662.5410269119966 9291.288052170401
1663.283891300338 9512.914915884097
1664.0265758417645 9283.719344290976
1664.7690805831826 9376.24667444945
1665.5114055714948 9474.774831041459
1666.2535508535748 9514.7956494356
1666.9955164762814 8909.433175005994
1667.7373024864555 9136.8921478901
1668.478908930916 9329.912165247912
1669.220335856462 8800.29666183015
1669.9615833098778 9086.757044049533
1670.7026513379296 8758.991885312049
1671.44353998736 9072.686575474869
1672.1842493048916 8924.343637941825
1672.9247793372379 8968.073296556338
1673.6651301310812 8855.79387151475
1674.4053017330934 8829.770862921647
1675.1452941899242 8870.048623218081
1675.885107548207 8510.873461083756
1676.6247418545518 8538.30079718975
1677.3641971555535 8655.808861391515
1678.1034734977893 8781.58965198637
1678.8425709278108 8635.523810365497
1679.5814894921605 8840.68836945141
1680.320229237359 8477.48995624896
1681.0587902098978 8700.538766707783
1681.7971724562685 8489.400162642643
1682.5353760229264 8566.725238615752
1683.2734009563173 8563.354614094202
1684.0112473028657 8192.795727449238
1684.7489151089794 8445.625309954348
1685.4864044210462 8454.1363603632
1686.2237152854377 8364.743713459913
1686.960847748498 8329.915723792476
1687.6978018565642 8181.088823867601
1688.434577655944 8097.624145347712
1689.1711751929379 8195.624869256531
1689.9075945138156 8173.432652972917
1690.6438356648396 8053.793798597842
1691.3798986922448 7669.7259652895345
1692.1157836422499 8054.760269497878
1692.851490561059 7937.23307336195
1693.587019494853 7980.735049692004
1694.3223704897991 7719.521975164358
1695.0575435920364 7653.08408869218
1695.792538847696 8060.831287253427
1696.527356302886 7828.763638362805
1697.2619960036936 7571.527195467391
1697.9964579961907 7641.030225060485
1698.730742326432 7279.8252577885505
1699.4648490404488 7323.955200927124
1700.1987781842563 7467.166697670805
1700.9325298038548 7692.052460752241
1701.6661039452174 7725.224785448093
1702.3995006543082 7566.441911019907
1703.1327199770658 7488.52640856031
1703.865761959416 7296.241166121052
1704.598626647261 7616.582245009615
1705.3313140864866 7340.986214134517
1706.0638243229587 7309.003813915486
1706.7961574025303 7527.757680389465
1707.528313371029 7288.593238834141
1708.260292274268 6992.609064969698
1708.9920941580403 7241.132164773134
1709.7237190681226 7364.50117964787
1710.4551670502697 7375.03917670062
1711.18643815022 6992.03773491389
1711.9175324136959 7447.151012041204
1712.6484498863938 7043.02713076068
1713.379190614005 7075.699097573922
1714.109754642188 7138.607518682222
1714.8401420165883 7089.257479562027
1715.570352782839 7268.56929867956
1716.3003869865497 7299.652743388268
1717.0302446733076 7026.267895390023
1717.7599258886876 7093.758891100073
1718.4894306782444 7241.811814162544
1719.2187590875183 7029.243717781383
1719.9479111620203 7148.0986554681385
1720.6768869472544 6937.207970584488
1721.4056864887025 7392.4158094721015
1722.1343098318284 7230.193840757171
1722.8627570220742 6936.458663096016
1723.591028104871 6844.834275884203
1724.3191231256242 6810.693422090748
1725.0470421297232 6968.598406612608
1725.7747851625427 7114.948028810754
1726.5023522694337 6975.557407855141
1727.2297434957363 7027.602545797881
1727.9569588867635 6567.595061291354
1728.6839984878152 7021.050836238481
1729.4108623441734 6574.4339341020695
1730.1375505011038 7038.421479161737
1730.8640630038426 6690.255954325885
1731.5903998976264 6785.622590409543
1732.316561227657 6969.111640920777
1733.0425470391274 6814.135819987983
1733.7683573772065 6830.647626760207
1734.4939922870508 6803.185912154743
1735.2194518137949 6762.526752759707
1735.9447360025606 6851.616481811572
1736.669844898439 6774.214548314095
1737.3947785465189 6811.347238350858
1738.1195369918605 6557.739218475064
1738.8441202795093 6656.277978273152
1739.5685284544943 6819.461606175387
1740.292761561821 6841.6155030098835
1741.0168196464838 6915.54786413041
1741.7407027534518 6788.650404754995
1742.464410927687 6707.644432561417
1743.187944214118 6718.800800920604
1743.9113026576688 6442.40493751621
1744.634486303241 6746.154115796114
1745.3574951957125 6590.987072814995
1746.0803293799509 6796.975132510951
1746.8029889008048 6485.9835016173265
1747.5254738031017 6838.622168386
1748.2477841316504 6495.775286127686
1748.969919931249 6567.217812896604
1749.6918812466665 6465.510650385541
1750.4136681226646 6823.549786431509
1751.1352806039777 6640.628392715187
1751.856718735331 6598.738683945308
1752.5779825614281 6501.854581170587
1753.2990721269507 6775.902403437256
1754.0199874765676 6624.807306178041
1754.7407286549314 6324.39511135742
1755.4612957066693 6594.8715864584665
1756.1816886763954 6538.085847317367
1756.9019076087097 6634.434175060704
1757.6219525481865 6602.652415872733
1758.3418235393856 6628.753647354036
1759.061520626854 6621.391980043469
1759.7810438551096 6568.917087354474
1760.5003932686614 6560.114490094134
1761.2195689119999 6699.544757521491
1761.938570829594 6475.282696710767
1762.657399065898 6439.583495267383
1763.376053665348 6507.188901400669
1764.0945346723602 6463.778303436189
1764.812842131334 6608.814505882307
1765.5309760866512 6426.996264902219
1766.2489365826787 6256.27222626838
1766.9667236637597 6509.128845179595
1767.684337374223 6196.618579586796
1768.401777758383 6083.69529604415
1769.1190448605284 6339.499762554442
1769.836138724937 6318.016403882006
1770.5530593958665 6578.953626677789
1771.2698069175603 6590.392360711575
1771.9863813342326 6562.788776125852
1772.702782690094 6199.820810377752
1773.4190110293293 6616.252111217717
1774.1350663961111 6714.8207017616805
1774.8509488345844 6306.307688722563
1775.5666583888924 6398.914799788827
1776.2821951031437 6602.39623105158
1776.9975590214362 6374.229073676533
1777.7127501878585 6686.731988472073
1778.4277686464684 6469.027836332642
1779.1426144413108 6523.040309199032
1779.8572876164162 6429.973919185111
1780.571788215797 6329.117106779592
1781.2861162834415 6370.603251996792
1782.0002718633277 6263.526953023842
1782.7142549994132 6284.233278409913
1783.4280657356376 6278.962375024297
1784.141704115922 6154.714316809256
1784.855170184177 6298.659358728841
1785.5684639842839 6204.878637968412
1786.2815855601148 6118.787627416232
1786.9945349555237 6359.4101989016835
1787.707312214343 6216.808523377143
1788.4199173803918 6425.2968944162385
1789.132350497468 6203.19116581098
1789.8446116093583 6256.461058589551
1790.556700759822 6268.02836262622
1791.2686179926077 5903.949912839695
1791.9803633514493 6225.062310471409
1792.6919368800554 6035.490120829278
1793.4033386221236 6417.683791280933
1794.1145686213295 6289.738137108542
1794.8256269213307 6614.670042414674
1795.536513565774 6366.893941695213
1796.247228598284 6021.010403799158
1796.9577720624693 5970.633696324552
1797.6681440019165 6119.712142711502
1798.3783444602013 6195.712732124892
1799.0883734808776 6286.419039414621
1799.7982311074884 6230.284628972369
1800.5079173835475 6045.857718604066
1801.2174323525633 6227.991457982772
1801.9267760580187 6138.338459811817
1802.635948543386 6151.567874496302
1803.3449498521113 6043.046173825367
1804.0537800276325 6168.42760709044
1804.7624391133668 6018.2315230699105
1805.47092715271 5924.249318977389
1806.1792441890484 5987.799921852697
1806.8873902657433 6173.543206863485
1807.5953654261448 5997.74555050862
1808.3031697135812 6030.305703670958
1809.0108031713662 5887.477552638461
1809.71826584279 6147.80609632545
1810.425557771141 5949.559629654049
1811.1326789996747 6564.571609467528
1811.839629571632 5941.433007841499
1812.5464095302468 5996.92000088221
1813.2530189187182 6151.472588196575
1813.959457780249 5946.275751516016
1814.6657261580076 6266.844862635808
1815.371824095153 6008.026449106925
1816.0777516348262 6183.655932738837
1816.78350882015 5839.600236803865
1817.4890956942272 5906.967507504521
1818.1945123001533 6035.688921926335
1818.8997586809928 5948.618326414433
1819.6048348798067 5922.632319971314
1820.3097409396287 5877.225361074812
1821.0144769034796 6185.508023095212
1821.7190428143622 5969.31179901918
1822.423438715261 6255.419968795357
1823.1276646491478 5940.126117618323
1823.8317206589727 6114.893924105263
1824.5356067876692 6119.804260088451
1825.2393230781581 6067.419720316685
1825.942869573335 5653.480278158919
1826.646246316086 5821.165179172671
1827.3494533492758 5964.581841238844
1828.052490715756 5951.716311954332
1828.7553584583547 5893.5541945959
1829.458056619891 6041.7250103134065
1830.1605852431585 5775.160174267187
1830.8629443709433 5613.089903351159
1831.5651340460063 5932.268148509364
1832.2671543110919 5812.036120934115
1832.9690052089318 5973.736846023816
1833.6706867822395 5720.01361664925
1834.3721990737104 6047.542955921441
1835.0735421260233 5997.698115903403
1835.774715981841 5991.104378572174
1836.4757206838058 6023.09773194908
1837.1765562745459 5670.750851834794
1837.8772227966747 5560.302609144564
1838.5777202927839 5836.012968727075
1839.2780488054523 5832.613147224092
1839.9782083772352 5774.417415229041
1840.6781990506806 5968.352400932448
1841.378020868313 5793.574891205902
1842.0776738726418 5839.8172804707965
1842.777158106157 5778.804355634298
1843.4764736113375 5719.411729541811
1844.1756204306403 6015.552652698603
1844.8745986065078 5763.77124645313
1845.5734081813607 5561.388688976934
1846.2720491976124 5514.653886431075
1846.970521697649 5545.190636232864
1847.6688257238511 5675.835657642764
1848.3669613185684 5791.906370176998
1849.0649285241452 5652.221349419584
1849.7627273829057 5815.784644794938
1850.460357937156 5860.873770348544
1851.1578202291857 5404.7070226505
1851.8551143012664 5791.25091007491
1852.5522401956569 5871.476043703633
1853.2491979545957 5860.80285243633
1853.9459876203055 5459.371506271613
1854.6426092349902 5551.427179888369
1855.3390628408451 5574.490433160518
1856.0353484800362 5771.532635281166
1856.7314661947203 5742.1617226423
1857.4274160270397 5535.79414984817
1858.123198019115 5607.630182232046
1858.8188122130487 5583.515959943392
1859.5142586509319 5691.838014128197
1860.209537374838 5607.861859474215
1860.9046484268183 5550.582057162047
1861.599591848917 6002.721519413239
1862.294367683151 5454.668174805015
1862.988975971528 5534.271537942399
1863.6834167560355 5747.0338133435525
1864.3776900786452 5662.300224619046
1865.0717959813119 5454.5970575942065
1865.7657345059724 5528.278207058654
1866.4595056945564 5788.921615547289
1867.1531095889586 5638.0127605459875
1867.846546231076 5533.379271119946
1868.5398156627743 5826.707245710035
1869.2329179259123 5681.156395456038
1869.9258530623283 5700.068052829165
1870.618621113843 5468.977552181616
1871.3112221222636 5425.146262532608
1872.0036561293764 5493.496127473444
1872.695923176956 5643.567260100817
1873.3880233067594 5668.90294060187
1874.0799565605212 5410.850151076978
1874.7717229799673 5504.870297364578
1875.4633226068036 5658.211717595943
1876.1547554827175 5588.669259587137
1876.8460216493859 5370.685104706752
1877.5371211484617 5541.217364822993
1878.2280540215852 5637.6833346458725
1878.9188203103804 5311.082535597589
1879.6094200564548 5444.585239061307
1880.299853301396 5350.365162857519
1880.9901200867826 5501.705093712697
1881.6802204541673 5393.048272055148
1882.3701544450942 5525.836863227169
1883.059922101087 5387.5220312623915
1883.7495234636517 5665.363733402142
1884.4389585742792 5492.039977886453
1885.1282274744517 5446.718080701693
1885.8173302056166 6023.665579768104
1886.506266809225 5453.0913081812005
1887.195037326701 5297.873900913993
1887.8836417994517 5437.37800199065
1888.5720802688702 5720.263539176267
1889.260352776333 5590.314175702485
1889.9484593632042 5514.028197921563
1890.63640007082 5383.973427368596
1891.3241749405151 5277.126809648071
1892.0117840135954 5491.5360499380295
1892.6992273313572 5397.294048138433
1893.3865049350788 5406.257603225944
1894.0736168660223 5762.470772229628
1894.7605631654333 5345.464376152718
1895.4473438745408 5224.977998270742
1896.133959034556 5536.018581122621
1896.820408686679 5361.71711782627
1897.506692872088 5656.537893937221
1898.192811631945 5428.507398292992
1898.8787650073991 5428.069817164361
1899.5645530395832 5572.53298828563
1900.2501757696118 5618.82307181443
1900.9356332385796 5127.526643610198
1901.620925487574 5574.139892617239
1902.3060525576602 5384.990533055129
1902.9910144898859 5412.9361163671765
1903.6758113252872 5231.236010764113
1904.3604431048789 5381.580679590846
1905.0449098696663 5386.597169330282
1905.7292116606295 5308.652725549072
1906.4133485187394 5525.471704003997
1907.0973204849488 5048.803612602479
1907.7811276001976 5237.234960924329
1908.4647699053967 5369.08435814411
1909.1482474414588 5146.094487482502
1909.8315602492694 5031.649591250466
1910.5147083696957 5500.089860904936
1911.1976918436012 5425.625338909226
1911.880510711815 5275.309705304971
1912.5631650151681 5248.86148965209
1913.2456547944657 5309.77816220177
1913.927980090495 5128.167074947383
1914.6101409440362 5296.068152322349
1915.2921373958416 5343.278227910586
1915.9739694866603 5187.320595788463
1916.655637257214 5417.8215766340145
1917.3371407482136 5209.971661757565
1918.0184800003572 5387.104241128613
1918.6996550543154 5313.152551800309
1919.3806659507554 5304.727909661497
1920.0615127303208 5421.3196122619
1920.7421954336423 5417.045014940047
1921.4227141013343 5293.616199498419
1922.103068773993 5215.522852190258
1922.783259492202 5513.224007198536
1923.4632862965227 5007.2729476003105
1924.1431492275078 5208.779676434367
1924.8228483256917 5101.40385270502
1925.5023836315922 5152.678184839904
1926.1817551857057 4879.42431587184
1926.8609630285227 5412.086143892608
1927.5400072005123 5222.231407335996
1928.218887742125 5001.4386852137795
1928.8976046938005 4971.627474594872
1929.5761580959588 5304.022502068903
1930.2545479890086 5168.145192568276
1930.9327744133352 4925.083843282135
1931.6108374093164 5276.212835059662
1932.2887370173066 5345.578653508758
1932.9664732776473 4822.721328998039
1933.6440462306673 5118.013643914195
1934.3214559166754 5011.113137540523
1934.9987023759659 5218.90095024405
1935.675785648813 5180.765468856549
1936.3527057754836 4804.050670591396
1937.029462796223 5336.83400037565
1937.70605675126 5128.79360464042
1938.3824876808085 5005.0887892750425
1939.058755625072 4921.213210805043
1939.7348606242267 5128.960817294835
1940.4108027184448 4993.610356765494
1941.0865819478713 5406.444675237908
1941.7621983526478 4809.944829641968
1942.4376519728921 4968.668012495027
1943.1129428487038 4936.854428869117
1943.7880710201734 5098.757883217134
1944.4630365273733 5261.82839586925
1945.1378394103576 4727.664803049974
1945.8124797091714 5444.022519524225
1946.4869574638324 4643.558195273653
1947.161272714353 4937.380202917031
1947.8354255007234 5131.201160003451
1948.5094158629272 4964.7728610462855
1949.1832438409183 5018.568362481365
1949.8569094746435 5033.716100236513
1950.530412804037 5283.404011008971
1951.2037538690092 5213.426935614294
1951.8769327094578 4897.63343152303
1952.5499493652678 5118.496434389644
1953.222803876306 5063.336470073388
1953.895496282421 5057.489507073565
1954.5680266234522 4982.2203009209525
1955.2403949392155 5051.839429391049
1955.9126012695142 4714.745986005199
1956.5846456541403 4992.91120678123
1957.2565281328643 4847.726036293046
1957.9282487454457 4930.162797259408
1958.5998075316202 5188.923942282922
1959.27120453112 5022.618304567327
1959.9424397836501 4902.239767118574
1960.613513328908 5037.542971010555
1961.2844252065697 5203.432469221914
1961.9551754563017 5002.293558703994
1962.6257641177453 4837.969233124916
1963.29619123054 4766.566286977539
1963.966456834296 4686.955351092953
1964.6365609686181 4611.98780308783
1965.306503673086 4847.971714250097
1965.976284987275 4764.837775282217
1966.645904950734 4747.534185779323
1967.315363603002 4661.0079824353
1967.9846609836077 4871.189187390622
1968.6537971320486 4922.379067126013
1969.3227720878222 4835.152031173063
1969.9915858904042 4681.601446872644
1970.660238579252 4891.649332925204
1971.3287301938108 4871.842561698962
1971.997060773514 4623.050932992492
1972.665230357772 4850.518306798338
1973.3332389859843 4608.469628840885
1974.0010866975335 4687.5684343642815
1974.6687735317864 4868.209473639634
1975.3362995280932 4973.709009528864
1976.003664725793 4729.412745579095
1976.6708691642052 4502.299534459461
1977.3379128826364 4714.312494584276
1978.004795920373 4933.258536032434
1978.6715183166925 5193.109637964172
1979.3380801108524 4406.60207923362
1980.0044813420973 4913.920138493385
1980.6707220496555 4579.801730770761
1981.3368022727373 4626.104898389667
1982.0027220505417 4871.783685491901
1982.66848142225 4331.87556616244
1983.3340804270283 4465.218988223538
1983.999519104027 4794.475910555177
1984.6647974923835 4887.638822300201
1985.329915631215 4880.4896002368505
1985.99487355963 4771.624931472348
1986.6596713167146 4814.308499353545
1987.3243089415428 4791.389742523287
1987.9887864731754 4936.6617208511125
1988.6531039506553 4570.5460318815885
1989.3172614130071 5133.919516880072
1989.9812588992481 4805.855708810385
1990.645096448372 4467.180627180558
1991.3087740993633 4552.236677151083
1991.9722918911848 4551.3618598038465
1992.635649862792 4580.971690162562
1993.2988480531185 4875.752032835673
1993.9618865010852 4990.347143790879
1994.6247652455968 4514.247508455725
1995.287484325545 4415.260891835194
1995.9500437798033 4811.8596624039355
1996.6124436472292 4342.7968982926795
1997.2746839666706 4678.176977828502
1997.936764776954 4585.605320129795
1998.598686116895 4425.129581654945
1999.2604480252903 4980.202161900065
1999.9220505409212 4415.8993982131105
2000.5834937025593 4532.769302338764
2001.2447775489582 4575.476885661858
2001.9059021188514 4715.768061731438
2002.5668674509616 4428.020701229761
2003.2276735839987 4495.411026110685
2003.8883205566508 4848.640384830645
2004.5488084075987 4569.846879303635
2005.2091371755014 4486.128189691253
2005.8693068990033 4502.853034435206
2006.5293176167397 4689.775985039344
2007.1891693673224 4423.46021500909
2007.848862189354 4320.967699127973
2008.5083961214223 4516.724308257804
2009.1677712020955 4314.991309650994
2009.8269874699254 4321.284179527322
2010.4860449634598 4902.227428586962
2011.1449437212177 4148.900367005426
2011.8036837817108 4905.195791275881
2012.4622651834325 4767.848515039283
2013.1206879648653 4854.638565917827
2013.7789521644736 4977.510157280331
2014.4370578207036 4313.180669456736
2015.0950049719922 4433.467439183158
2015.7527936567585 4603.575696182319
2016.4104239134067 4673.688469882216
2017.067895780323 4899.331624709486
2017.725209295886 4146.717968406017
2018.3823644984514 5086.93306998574
2019.0393614263648 4672.187898500736
2019.6962001179545 4166.91268473124
2020.3528806115355 4705.058898280204
2021.0094029454067 4341.37946061123
2021.6657671578487 4323.863379946942
2022.321973287133 4277.570441877815
2022.9780213715148 4559.069015111532
2023.6339114492293 4611.044400631356
2024.2896435585026 4427.100443328228
2024.9452177375442 4479.533974337852
2025.600634024544 4771.632989066453
2026.2558924576842 4644.806276578345
2026.9109930751292 4616.032039344052
2027.565935915025 4339.034179330797
2028.2207210155066 4818.5889037273055
2028.8753484146964 4591.911709914094
2029.529818150695 4217.281117443174
2030.1841302615903 4555.568755251638
2030.8382847854573 4240.204617789257
2031.4922817603601 4317.264827096305
2032.1461212243357 4437.831256633999
2032.7998032154192 3889.2267562405223
2033.4533277716218 4449.802668057231
2034.1066949309443 4297.915291776231
2034.7599047313688 4301.526002893758
2035.4129572108704 4640.534124233175
2036.0658524074006 4599.980679411252
2036.7185903589016 4426.050653805192
2037.3711711032956 4530.0218600716225
2038.023594678496 4361.817398764074
2038.675861122394 4243.463763774866
2039.3279704728757 4644.173950981062
2039.9799227678031 4077.022116088636
2040.6317180450278 4369.3756985424625
2041.2833563423865 4407.1962158831675
2041.9348376977014 4473.982455772646
2042.5861621487784 4468.387603691719
2043.2373297334088 4443.5169055218375
2043.8883404893695 4542.053677100557
2044.5391944544208 4586.744346911167
2045.1898916663158 4514.795814689365
2045.8404321627804 4657.094943797934
2046.4908159815368 4193.516123881151
2047.1410431602853 4321.587941649957
2047.7911137367173 4133.437652438655
2048.441027748504 4482.033250825475
2049.090785233302 4161.000220931408
2049.7403862287592 4238.063840134395
2050.389830772503 4470.202420057976
2051.0391189021466 4040.94464555655
2051.688250655294 4357.851289637058
2052.337226069527 4217.61950056093
2052.986045182417 4387.069427624155
2053.634708031521 4006.314916679822
2054.283214654375 4347.844023703468
2054.931565088511 3993.9580221527685
2055.579759371436 4121.666994962148
2056.2277975406523 4359.024080236917
2056.8756796336384 4546.59283977946
2057.5234056878617 4069.492072645416
2058.1709757407752 4181.221935701143
2058.8183898298194 4304.916032555562
2059.465647992416 4398.739459386094
2060.1127502659747 4414.078841206905
2060.759696687888 4063.2546190815024
2061.4064872955405 4422.969407610401
2062.053122126292 4459.916104395741
2062.699601217497 3854.329935648927
2063.345924606485 4328.286466196225
2063.992092330587 4182.269022458513
2064.638104427102 4093.0705792996514
2065.283960933324 4374.012522574989
2065.92966188653 4337.230657165688
2066.5752073239855 4332.2699382979645
2067.2205972829397 3910.14562648491
2067.86583180062 4388.383717198079
2068.5109109142522 4067.2490448728036
2069.15583466104 3658.212271562215
2069.8006030781708 4277.162456344942
2070.445216202821 4458.015059515422
2071.089674072153 4538.686105324037
2071.7339767233116 4229.420161431338
2072.3781241934303 4271.3069650906045
2073.0221165196253 4491.391773159855
2073.6659537390024 4304.138036546194
2074.3096358886505 4357.956626880218
2074.953163005637 4019.831301742842
2075.596535127028 3935.3859111482875
2076.2397522898664 4036.3612941790607
2076.882814531182 4169.556298670317
2077.5257218879924 4291.45018104748
2078.1684743973 4071.6532944592664
2078.8110720960885 4052.371988110264
2079.453515021336 4354.535667229052
2080.095803209997 4280.03321760157
2080.7379366990135 4032.8509216108478
2081.37991552532 4078.6269168417007
2082.0217397258275 4170.43190972132
2082.6634093374414 4043.607857520332
2083.3049243970418 4285.482471146219
2083.9462849415067 4391.900243525882
2084.587491007689 4155.03028287923
2085.2285426324324 4317.591602996177
2085.869439852564 4338.538972226857
2086.510182704902 3688.895151145948
2087.1507712262483 4129.649634105104
2087.791205453381 3884.1058965500306
2088.4314854230743 4322.134288320911
2089.0716111720867 4143.492691155794
2089.7115827371617 3940.2062784450345
2090.351400155023 3960.4609253697918
2090.991063462385 3980.9527666723707
2091.6305726959527 4100.116395751887
2092.2699278924047 4354.946759806567
2092.9091290884153 4042.1543068946658
2093.548176320641 3788.363053683164
2094.187069625721 4367.92948959576
2094.8258090402887 3872.782351379707
2095.464394600951 4134.905211944564
2096.102826344313 4276.754137577022
2096.741104306955 4528.192485789439
2097.379228525453 3847.621525701127
2098.017199036358 3855.434040697318
2098.6550158762147 4480.819194604705
2099.2926790815527 4167.143967381844
2099.9301886888825 4217.702830790682
2100.5675447347076 4244.662999308866
2101.2047472555114 4552.188087604656
2101.841796287761 3998.915476063828
2102.47869186792 4196.54224483025
2103.1154340324265 4174.952946141516
2103.752022817709 4092.719715754618
2104.388458260184 4179.329210839109
2105.024740396251 4248.30434757445
2105.660869262292 4008.5653089433567
2106.296844894685 4283.017953543036
2106.93266732978 4102.71690487753
2107.5683366039284 3752.125683464292
2108.2038527534532 4091.059061477259
2108.8392158146726 4314.518752357342
2109.4744258238843 4085.6899147828735
2110.1094828173755 4017.530694652054
2110.744386831422 4653.8974522029475
2111.3791379022787 3909.8279824682404
2112.01373606619 4552.668104670988
2112.648181359389 4066.5123894648887
2113.28247381809 4115.407817923817
2113.916613478492 3880.5743546496133
2114.550600376786 4283.45656936792
2115.1844345491445 4214.310276680235
2115.818116031729 3990.2442503712637
2116.451644860679 3844.6210685131614
2117.085021072133 3721.657193743399
2117.718244702204 3715.4109703240383
2118.3513157869984 3898.2764383325048
2118.984234362604 3877.1385145080844
2119.617000465092 3853.365702049806
2120.249614130529 4327.775896016495
2120.8820753949585 4029.766313321863
2121.5143842944162 3933.7537474083306
2122.14654086492 3793.652224539769
2122.7785451424734 4115.62443524523
2123.4103971630702 3603.5790944158894
2124.042096962681 4187.999910228493
2124.6736445772767 4066.474851656379
2125.305040042802 3801.5927543363773
2125.936283395191 4060.2410835675278
2126.567374670365 3897.183241785231
2127.198313904233 3827.5660855552624
2127.8291011326855 4509.3608834586175
2128.4597363916037 3788.3708551343543
2129.0902197168507 3872.497987472162
2129.720551144279 3840.6885513624266
2130.3507307097225 4004.02822395398
2130.980758449008 4380.377372300719
2131.6106343979427 3851.8772116220835
2132.2403585923203 4239.372080109818
2132.8699310679276 4156.635176192633
2133.499351860526 4089.9749901719015
2134.1286210058715 4002.0219150696585
2134.7577385397053 3612.8874419001377
2135.3867044977487 4132.622984114751
2136.0155189157176 4135.1923960109525
2136.644181829308 4076.680741699855
2137.2726932742025 3895.530733333732
2137.901053286074 4139.445684889313
2138.5292619005777 3915.767611365034
2139.1573191533535 3909.1546888429903
2139.7852250800315 4152.838873607676
2140.4129797162295 4042.1378208448596
2141.0405830975433 3618.8838341733544
2141.6680352595613 4270.443081090826
2142.2953362378576 3736.8860924241535
2142.9224860679915 3765.793042136235
2143.549484785508 3698.659448315968
2144.1763324259373 4080.7433524491657
2144.803029024799 3714.626379784663
2145.429574617594 3782.6320617945858
2146.0559692398165 4172.878769469129
2146.682212926942 3501.5370289345346
2147.308305714432 3826.715820476872
2147.9342476377333 4028.7198313496497
2148.5600387322847 4065.431969865188
2149.185679033506 3995.3130729246564
2149.8111685768017 4026.00816269804
2150.4365073975678 3714.102235742312
2151.061695531187 3878.122919612749
2151.686733013021 4070.919327814113
2152.311619878423 3896.0831624550265
2152.9363561627342 3833.584909688442
2153.560941901278 3628.5769888689383
2154.1853771293663 3925.622281182013
2154.809661882293 4027.599148960994
2155.433796195348 4057.2579505787303
2156.0577801037944 3880.818433179724
2156.681613642895 3936.5272757943894
2157.3052968478896 3878.857438164906
2157.928829754006 3927.888098014971
2158.552212396462 3858.664025935976
2159.1754448104566 3815.410200472026
2159.7985270311783 3526.3766324692065
2160.4214590938027 3505.54028084713
2161.0442410334927 3358.5614263708862
2161.6668728853874 3775.998004707259
2162.289354684628 3657.8859626559192
2162.911686466332 3718.157466454873
2163.533868265602 3968.8360553872058
2164.1559001175337 4069.4598948899375
2164.7777820572046 4053.3335881714447
2165.399514119681 3655.375825089906
2166.021096340013 3226.874890328376
2166.6425287532384 3442.679749176251
2167.263811394385 3659.0390049855437
2167.8849442984574 3912.5582844841592
2168.505927500455 3564.574348486237
2169.126761035366 3782.7673242257465
2169.7474449381552 3689.4722908829995
2170.367979243778 3317.434218500218
2170.9883639871823 3889.458932639582
2171.608599203293 3741.2817912726773
2172.2286849270276 4239.206554351031
2172.8486211932886 4310.6462972983445
2173.4684080369625 3741.738959883475
2174.0880454929265 3462.809081420958
2174.7075335960417 3455.2314602013125
2175.3268723811543 4015.025253092504
2175.9460618831 3726.114266280204
2176.565102136701 3489.5879738324993
2177.1839931767627 3526.0327507832335
2177.802735038078 3562.624487903003
2178.421327755432 3562.0313679429846
2179.0397713635866 3686.667424261535
2179.658065897298 3327.004667474789
2180.276211391305 3699.911472617504
2180.8942078803357 3696.241628303913
2181.5120553991 3732.5875718013995
2182.129753982299 3365.315888338226
2182.7473036646206 3605.3457091291516
2183.3647044807367 3714.304854084482
2183.9819564653044 3472.4763847679264
2184.599059652968 3875.482266417918
2185.216014078367 4094.7348881109806
2185.832819776113 3223.2475120271533
2186.4494767808137 3901.6486619244074
2187.065985127063 3751.537476995212
2187.682344849436 3454.4360446686246
2188.298555982501 4003.9878729231614
2188.9146185608097 3734.5160922864243
2189.530532618901 3824.4463689100703
2190.1462981912937 3518.9690636993537
2190.761915312507 3721.9175630656705
2191.377384017036 3752.441502654615
2191.9927043393654 3745.0325546718113
2192.6078763139667 3196.1451562234292
2193.2228999753006 3245.774795952432
2193.837775357808 3295.5615849191354
2194.452502495922 3267.4532264581444
2195.0670814240602 3462.5536023200934
2195.6815121766285 3519.5275005641915
2196.2957947880186 4135.241015869718
2196.9099292926057 3466.177808638497
2197.523915724758 3681.5519571232835
2198.137754118825 3770.824954225038
2198.7514445091456 3981.7355746069907
2199.3649869300443 3416.3819601951727
2199.9783814158327 3868.074853226656
2200.5916280008096 4080.293782579664
2201.2047267192593 3838.8514421258697
2201.8176776054515 3700.8586373672974
2202.430480693649 3522.2926803844393
2203.0431360180955 3668.6476973777912
2203.6556436130195 3889.255830915584
2204.268003512645 3260.2369621612042
2204.8802157511727 3784.092242683163
2205.492280362796 4017.427116442291
2206.1041973816937 3445.123513640039
2206.715966842032 3730.6008010265846
2207.3275887779655 3602.511309499462
2207.93906322363 3579.158721505689
2208.550390213153 3657.9905101536992
2209.1615697806465 3629.2849555366774
2209.7726019602105 3102.1577814664515
2210.3834867859277 3191.8038915438165
2210.9942242918787 3573.4091565847293
2211.6048145121167 3467.693122090289
2212.2152574806914 4175.750457771233
2212.825553231638 3493.240087018553
2213.435701798975 4270.127945825612
2214.045703216707 3570.6684144567253
2214.655557518832 3230.5314422182937
2215.2652647393297 3291.542198526612
2215.874824912169 3131.756920867843
2216.4842380713 3621.3018093835917
2217.09350425067 3383.9408542989995
2217.7026234842033 3517.857544380441
2218.311595805819 3827.4829051723486
2218.9204212494133 3590.790437751617
2219.52909984888 3770.714235235827
2220.137631638092 3806.9314618079343
2220.7460166509154 3842.982323412683
2221.354254921198 3628.715633928997
2221.9623464827764 3571.8220637190266
2222.5702913694713 3445.846113010517
2223.178089615096 3508.0041772389072
2223.7857412534486 3416.285463095837
2224.39324631831 3197.60730127796
2225.000604843457 3315.8373450202425
2225.607816862641 3768.9229443566865
2226.214882409611 3517.7621246488916
2226.8218015180973 3628.743245930053
2227.4285742218217 3437.333966747072
2228.0352005544864 3604.3510828002954
2228.6416805497847 3260.2860663751494
2229.248014241399 3318.496451933116
2229.8542016629945 3184.0027514084577
2230.460242848223 3668.660679767587
2231.0661378307304 4071.2668020867627
2231.671886644139 3440.695049725588
2232.277489322065 3171.1699329826142
2232.8829458981127 3024.91548590454
2233.48825640587 3713.4872303685784
2234.0934208789095 4065.268304552602
2234.6984393507955 3757.7312952232446
2235.3033118550793 4019.8080359900587
2235.9080384252975 3722.2530599327256
2236.5126190949723 3211.254968744572
2237.1170538976166 3336.544151937199
2237.721342866729 2948.865331030457
2238.32548603579 3680.04561283116
2238.9294834382763 3630.2943802444497
2239.533335107646 3300.457800236233
2240.1370410773434 3502.542657202642
2240.740601380803 3352.6055047878463
2241.3440160514474 3225.9727169244798
2241.9472851226783 3675.584032855052
2242.550408627896 3672.7439196933074
2243.1533866004793 3669.9603080669613
2243.756219073799 3525.7187972400534
2244.3589060812064 3421.1066860767737
2244.961447656049 3433.0280085911886
2245.5638438316564 3251.419933422227
2246.166094641343 3433.5133714274125
2246.7682001184166 3319.8588448076457
2247.3701602961664 3397.260223214448
2247.971975207871 3510.429225290256
2248.5736448867974 3552.4561737261092
2249.175169366197 3518.594950880757
2249.7765486793123 3392.2163278510125
2250.3777828593684 3674.91795373641
2250.9788719395783 3801.331611291721
2251.579815953146 3392.3338519748386
2252.1806149332606 3210.955785597545
2252.781268913097 3377.172526046331
2253.381777925817 3037.068345086532
2253.9821420045737 3242.2272409523625
2254.5823611825035 3497.0616693701677
2255.1824354927303 3521.773363889943
2255.782364968365 3858.1828062144064
2256.38214964251 3238.8498516551126
2256.9817895482483 3187.251998302988
2257.5812847186553 3580.0467538336025
2258.180635186791 2981.9751351321097
2258.779840985704 3342.3815593208187
2259.37890214843 3251.9865329784393
2259.97781870799 3893.5770484532054
2260.5765906973957 3372.3884436428307
2261.175218149645 3146.027337578326
2261.773701097718 3650.24206581855
2262.3720395745895 3063.8001850945607
2262.970233613216 3207.0099644229203
2263.568283246548 3086.8710359260167
2264.1661885075137 3445.2329015487303
2264.763949429038 3497.71454937347
2265.3615660440246 3501.6566150117205
2265.959038385374 3160.941835691473
2266.5563664859637 3497.5223036015223
2267.153550378669 3182.402398141798
2267.7505900963424 3477.287916498087
2268.3474856718312 3411.9039455573848
2268.9442371379664 3380.1702489680056
2269.5408445275643 3105.8488096992724
2270.1373078734377 3401.000485852157
2270.7336272083758 3361.7954676046393
2271.32980256516 3253.571090748309
2271.925833976562 3359.6367102681033
2272.5217214753357 3775.7907914845514
2273.117465094223 3389.4129742829837
2273.7130648659586 3154.4374635264776
2274.308520823257 3329.880643132179
2274.903832998827 3474.8477172648936
2275.4990014253563 3052.6369561578604
2276.094026135528 3617.3318525445293
2276.6889071620117 3103.134962327524
2277.2836445374614 3483.101518441976
2277.878238294519 3281.689330973696
2278.472688465812 3252.4758765703314
2279.066995083962 3223.108985757389
2279.6611581815705 3406.9184144598767
2280.255177791232 2976.4503870138738
2280.8490539455233 3766.3252474250085
2281.442786677013 3620.299910835967
2282.0363760182554 3505.382625481954
2282.6298220017943 3247.1882745352623
2283.223124660155 3526.6037373988024
2283.816284025859 3230.8176952007325
2284.4093001314086 3071.236784879027
2285.002173009292 2911.348867823968
2285.5949026919952 3350.2484547338345
2286.1874892119777 3241.2047489383503
2286.7799326016993 3472.4657267435227
2287.3722328936 2902.4615604326764
2287.964390120109 2994.986452895514
2288.556404313642 3186.6712637172996
2289.1482755066027 3521.904919027192
2289.7400037313873 3324.432643100858
2290.3315890203703 3360.1920609820145
2290.9230314059205 3342.325077611021
2291.5143309203904 3212.2791855347537
2292.1054875961236 3194.5174546436756
2292.6965014654506 3313.128447737289
2293.287372560684 3376.6787397915637
2293.878100914131 3908.7460184016136
2294.468686558086 3226.5920297938355
2295.059129524827 3209.4728286702257
2295.649429846617 3548.976470563112
2296.239587555716 3481.0337984482867
2296.8296026843636 3088.8421723808406
2297.419475264791 3191.6378669289784
2298.0092053292137 3294.426959614534
2298.598792909839 3085.985652751868
2299.1882380388597 2920.23910545424
2299.777540748455 3755.524088350076
2300.3667010707904 3600.80200064557
2300.9557190380256 3241.9378733572566
2301.544594682302 3672.293814880429
2302.1333280357503 3004.5175209624927
2302.721919130485 3425.5734503148515
2303.3103679986198 3573.97802790107
2303.898674672242 3423.6353302157804
2304.486839183437 3017.421896682918
2305.0748615642697 3511.8928903855094
2305.6627418468015 3026.641719797829
2306.2504800630704 3210.925504661621
2306.8380762451143 3128.8828129729272
2307.425530424949 3154.3390105552085
2308.012842634582 3179.8290656680156
2308.6000129060103 3871.491564605897
2309.187041271214 3822.295052216906
2309.773927762164 3192.395203430546
2310.3606724108213 3385.0806702749674
2310.9472752491274 3053.3244679029604
2311.5337363090184 3024.448326100351
2312.120055622414 3286.4542210404056
2312.706233221221 2901.074257739253
2313.2922691373424 2865.343151126964
2313.8781634026564 2907.413772605753
2314.463916049037 2949.5425380472366
2315.049527108342 3408.6036025364347
2315.6349966124235 3529.526008440806
2316.2203245931123 3634.1783765820196
2316.8055110822315 2918.8209959034043
2317.3905561115935 3232.6794413309212
2317.9754597129977 2936.922990805462
2318.560221918229 3441.9170717938696
2319.1448427590603 3154.113300967528
2319.729322267256 2693.158545488898
2320.313660474563 3397.7238625854284
2320.8978574127195 3899.615514993651
2321.481913113452 3191.790524044164
2322.0658276084705 2982.67290320287
2322.6496009294806 3300.9990618604
2323.233233108165 3682.153259250972
2323.8167241762058 3204.7924057174832
2324.4000741652617 3282.996030099298
2324.983283106987 3401.497178654821
2325.5663510330232 3777.317366229379
2326.1492779749933 3284.708313531951
2326.7320639645204 3330.0113601092708
2327.3147090332004 2850.3540519636886
2327.897213212629 2921.6363330464696
2328.4795765343843 2992.7942024429253
2329.0617990300307 2928.718812276312
2329.643880731124 3107.2976407478764
2330.22582166921 3286.2667973436464
2330.807621875816 3385.2763981468715
2331.3892813824623 2738.879406733119
2331.9708002206517 3097.6803918341425
2332.5521784218818 3508.322059448577
2333.133416017634 3311.3226205803467
2333.7145130393765 3260.360485580509
2334.295469518571 3480.247401834632
2334.876285486658 3412.4127551158176
2335.456960975076 2924.445425258158
2336.037496015242 3355.0840166964676
2336.6178906385667 3044.045476606673
2337.198144876451 3465.655853489318
2337.778258760278 2980.853557933869
2338.3582323214214 2699.2685014795925
2338.938065591243 3288.66621146489
2339.517758601087 3399.0662717515734
2340.0973113822965 3163.2252492936377
2340.676723966193 3033.71541615051
2341.255996384094 3159.416493554895
2341.835128667295 3390.7865430520337
2342.4141208470883 3134.701313970989
2342.992972954751 3292.0471529361544
2343.5716850215467 3435.8100344374143
2344.1502570787306 3210.110532613359
2344.7286891575386 2983.8184096944638
2345.3069812892045 3506.2411238474983
2345.885133504944 3411.594663978536
2346.4631458359618 2982.244914669959
2347.04101831345 2963.312803797887
2347.6187509685915 3421.94246920476
2348.196343832553 3082.090512163272
2348.7737969364935 2970.5016242980655
2349.351110311558 3274.5392858079367
2349.9282839888765 2822.2664289515824
2350.5053179995757 2927.4486735244054
2351.0822123747585 2913.9076445569117
2351.658967145526 2969.6993553739158
2352.2355823429643 3025.758476287815
2352.812057998144 3207.560658147828
2353.3883941421263 2796.1329499859994
2353.9645908059647 3326.528950574643
2354.540648020693 3291.34492863412
2355.116565817336 2805.033654510969
2355.6923442269126 3141.558959296457
2356.2679832804224 2945.438473551742
2356.8434830088518 2838.9816889073422
2357.41884344318 3171.1039245679954
2357.994064614377 2982.9090801096236
