#exp_cfg={"servo_angle": 0.0, "laser_lim": 100.0, "servo_angle_to": 18.0, "laser_wup": 0.0, "bt_dev": "EnSpectr-25AE3", "laser_wdn_max": 0.0, "frames": 10.0, "servo_used": 0, "servo_calib_use": 0, "laser_wdn_min": 0.0, "servo_pix_from": 90.0, "cooler_tout": 300.0, "servo_angle_from": 0.0, "servo_calib": "[-1.9174921013161362e-09, 3.9322238269163779e-05, -0.27385609119055809, 653.59552119713567]", "laser_autoctl": 0, "servo_pix_to": 3682.0, "laser_pw": 100.0, "cooler_on": 0, "laser_volt": 4.0, "cooler_autoctl": 0, "cooler_curr": 70.0, "cooler_startup": 10.0, "laser_fixed_pw": 0, "gain": 1.3, "offset": 2.53059635486, "servo_calib_degree": 3.0, "laser_curr": 55.0, "shutter": 8200.0, "servo_calib_step": 1.0, "laser_fixed_curr": 0, "exp": 2000.0, "ccd_volt": 4.7, "bt_addr": "00:06:66:62:5A:E3", "servo_delay": 500.0, "laser_autooff": 1}
#proc_cfg={"flat_auto_wnd": 200.0, "flat_auto_fr": 200.0, "flat_auto_shift": 5.0, "yconv": 1, "flatten": 1, "flatten_strength": 100.0, "xfrom": 300.0, "auto_max_frame": 2000.0, "auto_signal": 48000.0, "flat_auto_tol": 0.1, "autoclip": 1, "xrel_range": 0.0, "flat_auto_to": 4000.0, "intensity_adj": 1.0, "xrel": 7852.0, "rmhot": 1, "flat_auto_slit": 4.999999999999997, "auto_ini_exp": 300.0, "auto_off": 0, "xto": 2860.0, "flat_auto_ref": "", "flat_auto_rank": 1, "autobackg": 0, "xrel_adj": 0.0, "auto_black_lvl": 1, "base_wnd": 100.0, "sub_baseline": 0, "xconv": 2, "auto_max_exp": 1000.0, "auto_total_exp": 10000.0, "auto_exp": 0, "rmripple": 0, "black_lvl": 8276.6125, "shutter_clip_adj": 0.0, "auto_bckg": 0, "flat_auto_thr": 0.9, "subbackg": 1}
316.8218498245369 23529.131934805147
317.89969571804795 23326.454527117203
318.977263876126 23247.692262191304
320.05455438786703 23059.791407331115
321.1315673423287 23055.527086223614
322.2083028285215 23131.736492250282
323.2847609354267 22833.032711973952
324.3609417519747 22789.877976932148
325.43684536705587 22682.872156892787
326.5124718695279 22494.073979139524
327.58782134820103 22588.225563125787
328.66289389184385 22543.508800952048
329.7376895891921 22271.97139775237
330.8122085289342 22302.131631965683
331.88645079971866 22226.487808874812
332.9604164901575 22049.77453650972
334.03410568881554 22052.293819209972
335.1075184842266 22224.87189118879
336.18065496487543 21809.601012167783
337.2535152192122 21832.532618548892
338.32609933564163 21783.75983991866
339.39840740253203 21606.62122497148
340.4704395082099 21626.891550659217
341.5421957409617 21566.852855827885
342.6136761890357 21618.680080132395
343.6848809406365 21493.81091179318
344.75581008392874 21298.269096489752
345.82646370703696 21389.288012274676
346.8968418980512 21274.523575132924
347.96694474501055 21333.778528943378
349.0367723359268 21320.503390611433
350.106324758759 21243.225997870144
351.1756021014353 21161.302285176214
352.2446044518383 21232.54537020575
353.31333189781435 21164.09541230648
354.38178452716966 21038.76808154824
355.449962427665 21125.690345819858
356.51786568702846 21080.238219753664
357.58549439294256 21254.30221488933
358.6528486330535 21196.381575966247
359.71992849496564 21117.92192978184
360.7867340662433 21232.869920849105
361.8532654344144 21265.354140439005
362.9195226869597 21338.756336180228
363.9855059113288 21072.88935367501
365.05121519492604 21128.186323450125
366.11665062511565 21217.649594518334
367.1818122892273 21277.27214520971
368.2467002745434 21290.907084293
369.31131466831175 21265.580844801483
370.375655557742 21252.962083471153
371.4397230299983 21300.78453510673
372.5035171722102 21327.21464460397
373.5670380714637 21263.467636884743
374.6302858148101 21493.435198033607
375.6932604892554 21453.396941381932
376.7559621817709 21489.754649171125
377.81839097928605 21375.44060644195
378.8805469686886 21362.829110319355
379.94243023683157 21360.817923788676
381.0040408705263 21356.737873438666
382.0653789565458 21281.349859316542
383.1264445816196 21284.74952391152
384.1872378324406 21353.649320791796
385.2477587956637 21286.158110078348
386.3080075579037 21207.791651682695
387.3679842057336 21034.740141317998
388.4276888256918 21197.222727751338
389.48712150426945 21168.60973280031
390.54628232792857 21081.04734209243
391.6051713830857 21042.9661260905
392.66378875611736 21073.09114383192
393.7221345333637 21022.337612916606
394.7802088011249 20882.843400372734
395.838011645661 20958.96013827473
396.89554315319765 20763.541972400162
397.9528034099112 20773.999384872615
399.00979250194723 20728.01377275194
400.06651051541485 20610.094021003784
401.1229575363741 20664.06513729085
402.17913365085224 20674.51218000515
403.23503894483656 20707.096155821608
404.2906735042761 20518.054633514126
405.3460374150818 20506.69087123663
406.401130763119 20492.01568776083
407.455953634224 20575.576493323446
408.5105061141876 20437.204284611704
409.56478828876243 20165.218181552096
410.6188002436629 20242.746941260273
411.6725420645689 20181.68442494617
412.72601383711117 20223.61272392264
413.77921564689314 20347.707465667896
414.8321475794728 20176.071842325193
415.88480972036814 20050.484474614233
416.93720215506437 20186.212870446187
417.9893249690049 20064.38497734197
419.04117824759123 19906.9951684844
420.09276207619223 19924.21848275369
421.144076540133 19962.538152311387
422.1951217247042 19927.09217741703
423.24589771515275 19843.064947918545
424.2964045966928 19729.39261955962
425.34664245449494 19831.948291611003
426.3966113736933 19844.76274058453
427.4463114393875 19719.968623685516
428.49574273662984 19739.97773590267
429.5449053504417 19678.20537654614
430.5937993658026 19658.280862155607
431.6424248676558 19610.668625361723
432.6907819409007 19617.780816885275
433.73887067040596 19645.12490668372
434.7866911409965 19528.47838980847
435.8342434374608 19544.10107578028
436.88152764455117 19402.62679993368
437.9285438469724 19400.53331074359
438.9752921294057 19385.068951595986
440.02177257648145 19303.819012556134
441.06798527279716 19271.45491370262
442.1139303029122 19306.539182134882
443.1596077513459 19338.757778077015
444.2050177025794 19276.564884054278
445.25016024105753 19264.99960946269
446.2950354511886 19194.81028744327
447.33964341733736 19320.232199908063
448.383984223834 19174.522977762466
449.4280579549686 19219.79235380709
450.471864694995 19199.31880129122
451.5154045281306 19327.34514822541
452.5586775385509 19143.207720575057
453.60168381039693 19128.03521800055
454.64442342776783 19254.073825474323
455.6868964747264 19182.725484323517
456.7291030353008 19128.97509886963
457.77104319347563 19187.23567952167
458.8127170332027 19110.569790251022
459.854124638392 19088.31939833279
460.895266092919 19198.220256192657
461.93614148061897 19227.063417176185
462.97675088529104 19354.756827903548
464.01709439069236 19271.634506929426
465.0571720805492 19268.7297679706
466.0969840385442 19256.67381228925
467.1365303483253 19425.25867828956
468.17581109350067 19306.26611564779
469.2148263576437 19201.34339722705
470.2535762242878 19312.05683519625
471.29206077693016 19366.094766211263
472.33028009902773 19473.81018719371
473.3682342740012 19545.894682392114
474.40592338523857 19668.077613673904
475.4433475160804 19574.445670273595
476.4805067498364 19647.917573123796
477.51740116978 19877.023109581776
478.5540308591426 20038.216505730576
479.59039590112116 20260.075130028934
480.6264963788726 20309.33330358375
481.6623323755193 20677.35930221718
482.6979039741436 20770.444395331462
483.7332112577915 21181.245860227045
484.76825430947247 21357.132346714432
485.80303321215797 21600.397470988322
486.837548048783 21819.131102438492
487.8717989022425 22144.11220121087
488.90578585539697 22187.6800661197
489.9395089910686 22452.483363370615
490.97296839203955 22434.980662834994
492.00616414106116 22267.67619149094
493.0390963208429 22294.28583265978
494.0717650140559 22272.330002459683
495.10417030333883 22106.777171185844
496.1363122712901 21909.331921783196
497.16819100046814 21667.5210024747
498.1998065734024 21395.220153142174
499.2311590725767 21237.458668207295
500.26224858044407 20998.907618511927
501.2930751794156 20760.811869247274
502.3236389518679 20584.968644995584
503.35393998014115 20308.866820430554
504.38397834653733 20187.930100259942
505.4137541333221 20104.199032293116
506.4432674227228 19809.534513781393
507.4725182969323 19701.94239468088
508.5015068381035 19647.348518052106
509.53023312835467 19586.315311723527
510.55869724976765 19551.608604248475
511.58689928438434 19320.376767926202
512.6148393142121 19326.271248787052
513.6425174212218 19426.425927708737
514.6699336873462 19414.409203879506
515.6970881944835 19410.038169230465
516.7239810244901 19309.70663625744
517.7506122591931 19313.701644230492
518.7769819803761 19378.669296700282
519.8030902697901 19375.291849496465
520.8289372091476 19444.16428109848
521.8545228801249 19554.307914180983
522.8798473643619 19456.526606116247
523.9049107434621 19479.06284131527
524.9297130989908 19471.80945420191
525.9542545124805 19385.52601276386
526.9785350654201 19405.380246691104
528.0025548392696 19395.3443058793
529.0263139154504 19427.268971791294
530.0498123753423 19369.250893661803
531.073050300296 19285.417736085692
532.0960277716204 19152.706396918824
533.1187448705896 19188.23114181542
534.1412016784416 19204.718881525816
535.1633982763833 19125.043283657847
536.1853347455726 19015.029477707772
537.2070111671401 18957.57142674417
538.2284276221817 18875.449109807356
539.2495841917516 18746.852898961068
540.2704809568677 18677.254894913007
541.2911179985167 18763.13462239961
542.3114953976419 18667.182955430555
543.3316132351592 18546.97695564922
544.3514715919409 18559.50533307316
545.3710705488247 18533.805704257746
546.3904101866156 18530.937845552788
547.4094905860784 18575.335756957717
548.4283118279418 18501.77492166836
549.4468739929034 18455.95743129369
550.4651771616191 18409.13284258062
551.4832214147063 18307.686816824436
552.501006832761 18331.12688169453
553.5185334963226 18345.10757839981
554.5358014859103 18408.171751053924
555.5528108820035 18325.639696828912
556.5695617650363 18242.824326952054
557.5860542154242 18364.78697498078
558.6022883135283 18290.3268363956
559.6182641396881 18191.635354783903
560.6339817741991 18245.189284166536
561.6494412973225 18395.246355404568
562.6646427892883 18319.798740847917
563.6795863302796 18229.390649250552
564.694272000459 18321.547553568067
565.7086998799423 18434.55148606191
566.7228700488104 18281.347179175704
567.7367825871115 18289.234936494402
568.7504375748576 18293.712553699417
569.7638350920224 18355.624892140637
570.7769752185486 18324.112977618242
571.7898580343353 18412.941938985114
572.802483619258 18369.62485402184
573.8148520531431 18519.45862260006
574.8269634157932 18549.223842726133
575.8388177869692 18579.870755192016
576.8504152463938 18660.672668880983
577.8617558737587 18844.99283683687
578.8728397487175 18850.54450896856
579.883666950891 19117.04619017995
580.8942375598654 19246.432502321502
581.9045516551851 19426.41684012932
582.9146093163617 19731.8243560247
583.924410622878 19666.579031688358
584.9339556541727 19693.30451063956
585.9432444896538 19998.275042393412
586.9522772086875 19793.3981034128
587.9610538906127 19848.175045255815
588.9695746147318 19731.954017698918
589.9778394603054 19888.088380867764
590.985848506567 19805.270180601136
591.9936018327098 19727.729239959062
593.0010995178891 19426.298780683624
594.0083416412344 19543.182315494065
595.0153282818283 19317.655773135495
596.0220595187293 19263.32773419056
597.0285354309508 19051.89748844506
598.0347560974806 19098.570506810298
599.0407215972609 19050.532666431907
600.0464320092051 18956.736998834378
601.0518874121954 18919.724475199764
602.0570878850685 18881.199141630033
603.062033506636 18868.551244234604
604.0667243556636 18877.791670561437
605.0711605108936 18707.986516170677
606.0753420510264 19152.601024591746
607.0792690547278 19015.037771036066
608.082941600629 18921.922515696944
609.0863597673306 18870.187060806682
610.0895236333909 18995.690723975986
611.0924332773357 19218.28413797495
612.0950887776617 19300.31759888985
613.0974902128219 19355.39531827373
614.0996376612384 19550.384568908332
615.1015312013005 19703.738143626106
616.1031709113595 19791.32702382295
617.1045568697336 19871.531647029922
618.1056891547069 20161.404859223305
619.1065678445229 20455.674850698575
620.1071930173985 20896.63822377188
621.1075647515099 21041.275137382378
622.1076831250048 21295.692332745897
623.1075482159849 21738.920001056766
624.1071601025305 21986.257568805126
625.1065188626781 22350.913819719044
626.105624574433 22774.65279774891
627.1044773157682 23006.557084553286
628.1030771646128 23289.130336741626
629.1014241988742 23623.458137777976
630.0995184964158 23868.56595378813
631.0973601350688 24095.648937756843
632.0949491926294 24404.31635729837
633.0922857468631 24107.113284577423
634.089369875499 24246.626815717602
635.0862016562278 24228.974137491638
636.0827811667077 24116.775031565343
637.0791084845641 23929.656877002086
638.0751836873878 23829.053484098862
639.0710068527369 23743.829113924956
640.0665780581294 23287.48611582123
641.0618973810506 23037.673474483738
642.0569648989604 22976.587167018315
643.0517806892676 22584.393717098854
644.0463448293649 22290.682985098967
645.040657396592 22020.669186854655
646.0347184682723 21669.25764082355
647.0285281216875 21416.858328255556
648.0220864340772 21237.506305385457
649.0153934826558 20932.25768752477
650.0084493446047 20764.60889572905
651.0012540970674 20515.565935233917
651.9938078171526 20348.358983152393
652.9861105819346 20277.37175110162
653.9781624684565 20183.706519722036
654.9699635537254 19945.28975719093
655.9615139147136 19953.738728588494
656.9528136283589 19656.57490043147
657.9438627715699 19823.037825637923
658.9346614212154 19574.110841244026
659.925209654135 19384.908213212184
660.9155075471263 19465.127178570136
661.9055551769616 19304.191175849995
662.895352620375 19437.76765571784
663.8848999540678 19369.60476655924
664.8741972547068 19070.775815033212
665.863244598926 19050.03439270437
666.8520420633213 19193.505498823604
667.8405897244611 19059.839520239802
668.8288876588758 18866.36252412782
669.8169359430613 19114.000709979493
670.8047346534822 18871.060045260987
671.7922838665672 18928.457822862616
672.7795836587156 18914.709562098193
673.766634106285 19057.29271782355
674.7534352856092 18849.1099586342
675.7399872729766 18917.814453466883
676.7262901446538 18866.47540963157
677.712343976862 18858.67287741042
678.6981488457986 19018.44036493617
679.6837048276229 18870.79649940545
680.6690119984596 19049.7880736866
681.6540704344043 18875.173616691
682.6388802115107 18956.053358178724
683.6234414058108 18981.13041891117
684.6077540932874 18847.59367096821
685.591818349907 18913.463565092345
686.575634251587 18848.129823377796
687.5592018742263 18722.40924284324
688.5425212936734 18616.33055616539
689.5255925857564 18763.42516757902
690.5084158262707 18566.237675510532
691.4909910909646 18483.948446603546
692.4733184555644 18296.227335224114
693.4553979957618 18263.555667849185
694.4372297872123 18303.589282238732
695.4188139055404 18172.204707444274
696.4001504263324 18107.604433385186
697.3812394251509 18148.86779536289
698.3620809775111 18136.58537532396
699.3426751589104 18078.713203255807
700.3230220448004 17981.54907123387
701.3031217106054 18082.356260332865
702.2829742317172 18199.23026197486
703.2625796834873 17902.387963314075
704.2419381412474 17842.548171976196
705.22104968028 17957.554525980617
706.1999143758458 17914.17894078873
707.178532303169 17797.772185
708.1569035374378 17854.830695372628
709.1350281538107 17888.564845065135
710.1129062274158 17904.968431822635
711.0905378333373 18021.74347932485
712.0679230466376 17928.88674553644
713.0450619423427 18058.531922479342
714.0219545954424 18156.254186490427
714.9986010808989 17964.83137577847
715.9750014736292 18083.828096243822
716.9511558485392 18310.078248139755
717.9270642804786 18272.21835877589
718.9027268442787 18370.733369514295
719.8781436147328 18366.48929971659
720.8533146666014 18388.865711718747
721.828240074612 18261.91351747758
722.8029199134635 18299.555969717978
723.7773542578125 18280.00827378261
724.751543182294 18218.07877651815
725.7254867615029 18262.962916725395
726.6991850700015 18209.3386496117
727.6726381823228 18192.444855964794
728.6458461729599 18277.950600196647
729.6188091163858 18163.95146774413
730.5915270870246 18226.681739425378
731.5640001592856 18087.771781113064
732.536228407529 18307.16450738062
733.5082119060917 18315.0471623708
734.4799507292755 18130.833479918896
735.4514449513481 18142.017483033986
736.4226946465496 18350.279164098207
737.3936998890786 18239.94052699475
738.3644607531078 18090.044097953854
739.3349773127793 18019.24258310073
740.3052496421951 18118.020972971983
741.27527781543 17906.14491597341
742.2450619065221 17863.970679811362
743.2146019894826 17868.69020644511
744.183898138288 17746.31700380063
745.1529504268801 17678.031136414902
746.1217589291682 17603.25961097348
747.0903237190341 17503.24668672417
748.058644870318 17684.52186125655
749.0267224568397 17450.00389753599
749.994556552374 17363.781048471494
750.9621472306771 17428.626487907524
751.9294945654583 17435.205390597544
752.8965986304011 17419.87898038218
753.8634594991636 17432.482818683282
754.8300772453586 17524.030619420828
755.7964519425768 17473.606273477195
756.762583664371 17469.251914137414
757.7284724842611 17543.33018394057
758.6941184757416 17508.10312862328
759.6595217122667 17476.409325299457
760.6246822672638 17538.88859630531
761.5896002141235 17501.597999735866
762.5542756262093 17570.963645146963
763.5187085768503 17569.614291873288
764.4828991393406 17496.62554812792
765.4468473869474 17381.673718099948
766.4105533929032 17385.712308502516
767.3740172304078 17284.709909470406
768.3372389726283 17479.390310414652
769.3002186926988 17289.299509248172
770.2629564637282 17124.210679114527
771.2254523587872 17210.60355519716
772.1877064509154 17105.744591812592
773.1497188131179 17038.96258683171
774.1114895183728 16919.395190625182
775.0730186396268 16925.739263441865
776.0343062497905 16773.815299707385
776.9953524217381 16684.150498164126
777.9561572283274 16815.044026320502
778.9167207423689 16809.335862125743
779.8770430366476 16737.80013401969
780.8371241839159 16732.692543874204
781.7969642568951 16721.36489141225
782.7565633282757 16911.19743838707
783.7159214707099 16690.041069031224
784.6750387568281 16752.08308379938
785.6339152592227 16702.508501660257
786.5925510504512 16669.948785947192
787.5509462030477 16656.361734013077
788.5091007895098 16804.905506225994
789.4670148823006 16772.57088737589
790.4246885538596 16685.03653765253
791.3821218765861 16814.676631701277
792.3393149228505 16642.28194596865
793.2962677649975 16760.216066013898
794.2529804753303 17015.446813359034
795.20945312613 16961.617410645373
796.1656857896378 16925.29465947272
797.1216785380675 17075.95474522537
798.0774314435985 17317.46099202556
799.0329445783846 17329.294845931254
799.9882180145414 17601.340004678106
800.9432518241574 17591.239371844556
801.89804607929 17725.731845620838
802.852600851962 17874.770632424483
803.8069162141637 17999.899494039302
804.760992237856 18026.065870292477
805.714828994971 18133.823952769046
806.6684265574077 18169.1823016444
807.6217849970271 18057.19743701725
808.574904385674 18121.478761068993
809.527784795142 18012.94787114023
810.4804262972102 18092.54188675
811.4328289636178 17812.353747499033
812.3849928660748 17537.780670414082
813.3369180762638 17512.167754431262
814.2886046658241 17423.56951151817
815.2400527063783 17261.21414564568
816.1912622695108 17091.43635368272
817.1422334267718 17067.31248004851
818.0929662496856 16842.481768129626
819.0434608097457 16694.656007584505
819.9937171784059 16667.399072133143
820.9437354271013 16607.82223323327
821.8935156272255 16624.29980367029
822.8430578501484 16519.115513904722
823.7923621672016 16275.092234943417
824.7414286496896 16481.301076134216
825.6902573688876 16332.832640179355
826.6388483960363 16326.035447068458
827.5872018023492 16138.094780382115
828.5353176590033 16314.145272793252
829.4831960371503 15989.7857790498
830.4308370079016 15925.595210863776
831.3782406423525 15988.073268348497
832.3254070115545 15901.780342938084
833.2723361865319 15657.523837843546
834.2190282382799 15767.826774217421
835.1654832377644 15774.572362295157
836.1117012559116 15762.706261357254
837.0576823636256 15881.071258186357
838.003426631778 15553.899881104802
838.9489341312074 15524.187372300705
839.8942049327197 15723.8546192941
840.8392391070975 15704.028685152913
841.7840367250865 15640.290230001448
842.7285978573982 15604.240324764187
843.672922574724 15751.558924740279
844.6170109477152 15619.267408461663
845.560863046996 15662.365961825772
846.5044789431595 15649.977792025744
847.4478587067697 15618.51574614316
848.3910024083561 15815.054796052957
849.333910118421 15715.828225698395
850.2765819074339 15692.766933128602
851.2190178458332 15838.430579589529
852.161218004032 15781.17119341266
853.1031824524016 15834.971951239457
854.0449112612987 15772.43693534302
854.9864045010327 15876.095310411256
855.9276622418947 15790.00779138652
856.8686845541379 15820.198051768448
857.8094715079915 15784.070444891779
858.7500231736467 15898.920855154447
859.690339621271 15824.656063355073
860.6304209209939 15886.410636776418
861.5702671429244 15651.793487292269
862.5098783571284 15788.951042753655
863.4492546336569 15877.322691392963
864.3883960425155 15797.495084446356
865.3273026536863 15753.226979088766
866.2659745371238 15886.034534253991
867.2044117627465 16100.19625452364
868.1426144004472 15941.829165998843
869.0805825200823 16162.655287406209
870.0183161914847 16208.704584241128
870.9558154844526 16278.37316181364
871.8930804687552 16295.598505845817
872.8301112141307 16189.448000952989
873.7669077902865 16559.19335884527
874.7034702669062 16585.31093055233
875.6397987136315 16518.182072849395
876.5758932000863 16626.19897940002
877.5117537958522 16843.250665883996
878.4473805704911 16767.746206998967
879.3827735935283 16774.687112328214
880.3179329344603 16870.095996660068
881.2528586627541 16905.20271833064
882.1875508478479 17057.252829483026
883.1220095591489 16713.372936518084
884.0562348660296 16767.85133269485
884.9902268378391 16988.177297194125
885.9239855438955 16794.716047928923
886.8575110534839 16614.582088965057
887.7908034358588 16605.278556629008
888.7238627602474 16711.69080764009
889.6566890958475 16432.523301510453
890.5892825118208 16347.395410615663
891.5216430773125 16462.880602550984
892.4537708614189 16366.080845109693
893.3856659332196 16226.550086549318
894.3173283617652 16081.126354770753
895.2487582160684 16038.077577273318
896.179955565116 16079.184971872533
897.110920477864 15882.487845279797
898.0416530232451 15872.172124679313
898.9721532701478 15818.931979147566
899.9024212874428 15912.312558784004
900.8324571439662 15771.154313528084
901.7622609085302 15765.567257773577
902.6918326499072 15567.930617087899
903.6211724368477 15739.745326831264
904.5502803380696 15478.557230648186
905.4791564222614 15758.103670941371
906.4078007580792 15428.353094879243
907.3362134141571 15378.319102020454
908.2643944590909 15369.060635237289
909.1923439614493 15222.380214509782
910.1200619897754 15118.533389847575
911.0475486125779 15385.03725883342
911.9748038983344 15069.908061988917
912.9018279155007 15076.465869248155
913.8286207324982 14935.38865379265
914.7551824177117 15026.055238115732
915.6815130395116 14938.200945090162
916.6076126662283 14996.540525771043
917.533481366163 14928.968956385424
918.4591192075914 14984.195250099676
919.3845262587565 14959.975426436975
920.3097025878706 14956.732470189298
921.2346482631237 14832.417802530948
922.1593633526682 14956.960026747785
923.0838479246304 15003.314706331294
924.0081020471061 15033.29962998338
924.9321257881656 14784.300856868955
925.8559192158464 14896.910606288171
926.7794823981512 14792.500360711896
927.7028154030686 14831.566782852955
928.6259182985414 14762.493102092543
929.5487911524906 14988.654558760061
930.4714340328119 14979.08581907984
931.3938470073608 14789.66399321621
932.3160301439748 14920.7820478326
933.2379835104548 14975.238097182004
934.1597071745709 15172.727102881885
935.0812012040769 15003.606875912845
936.002465666681 15110.12349078892
936.9235006300696 15069.212824473962
937.8443061619055 14996.899986283252
938.7648823298077 14786.556225149328
939.6852292013809 14888.483630930064
940.6053468441951 14969.55559139483
941.5252353257874 14749.078651593922
942.4448947136698 14877.977692805702
943.364325075323 14760.130349191171
944.2835264782043 14809.99755014372
945.2024989897309 14735.093855947494
946.1212426773054 14773.295611536852
947.0397576082851 14784.000462431311
947.9580438500125 14906.83284587817
948.8761014697939 14861.191221365389
949.7939305349064 14906.181540152189
950.7115311125999 14727.678635837769
951.6289032700952 14727.046742199538
952.5460470745875 14854.453277009967
953.4629625932339 14706.517225764732
954.3796498931715 14914.1921997094
955.2961090415029 14825.367291150207
956.2123401053068 14830.481340311093
957.1283431516276 14732.842177135908
958.0441182474842 14645.308024802498
958.9596654598663 14739.686355018048
959.8749848557309 14699.72884600076
960.7900765020167 14596.008274967136
961.7049404656209 14601.653535750516
962.6195768134185 14689.430691423051
963.5339856122537 14627.01846944642
964.4481669289453 14722.031742588271
965.3621208302793 14546.78827634934
966.2758473830145 14636.42051504419
967.1893466538822 14863.823800839693
968.1026187095813 14579.649513026932
969.0156636167867 14643.704593236393
969.9284814421426 14793.467178511162
970.8410722522622 14586.074067577725
971.753436113735 14600.777334788934
972.6655730931161 14657.405913867722
973.5774832569368 14737.870748679608
974.4891666716958 14643.24435346541
975.4006234038698 14619.251524299985
976.3118535198955 14600.966033695193
977.2228570861935 14739.953538548169
978.1336341691494 14673.248774311816
979.0441848351202 14690.663933522312
979.9545091504333 14706.7245095238
980.864607181391 14794.189393993767
981.7744789942699 14699.5042045379
982.6841246553086 14822.76269018462
983.5935442307236 14849.510083501818
984.5027377867027 14863.328901697769
985.4117053894024 14894.846416707713
986.3204471049557 14813.99762567513
987.2289629994648 14899.381146936425
988.1372531390007 14937.818595150422
989.0453175896091 14849.701391802582
989.9531564173067 14934.50105956483
990.860769688079 14910.451673007265
991.7681574678918 14927.91666776879
992.6753198226706 15005.382099502565
993.582256818323 14946.897160840546
994.4889685207218 15040.609856995909
995.3954549957143 15295.771183261819
996.301716309119 15176.663437457377
997.2077525267232 15257.575912891281
998.1135637142943 15041.24670245704
999.0191499375615 15279.794691527775
999.924511262232 15135.87946472722
1000.8296477539861 15352.867802521781
1001.7345594784656 15196.196852164281
1002.6392465012996 15217.790070301446
1003.5437088880753 15240.93675376048
1004.4479467043584 15164.047823626397
1005.3519600156869 15007.244887438796
1006.2557488875718 15075.710935093844
1007.1593133854858 15131.154293013216
1008.0626535748888 15092.32372788787
1008.9657695212009 14831.302171934492
1009.8686612898182 15127.707976144244
1010.7713289461135 15085.0588329813
1011.6737725554212 15075.674605547252
1012.5759921830577 14940.071332060828
1013.4779878943027 14967.286311632273
1014.379759754418 14916.74087260667
1015.2813078286254 14842.817892190758
1016.18263218213 14638.337896649737
1017.0837328801026 14748.385232004628
1017.9846099876886 14915.27316513824
1018.8852635700023 14760.303466422993
1019.7856936921362 14472.326807732412
1020.6859004191447 14736.514223394503
1021.5858838160675 14551.912048746253
1022.4856439479063 14504.948671688315
1023.3851808796389 14473.809034737487
1024.2844946762143 14613.51784180467
1025.183585402554 14446.068338781226
1026.082453123554 14292.95712727284
1026.9810979040776 14350.081625000374
1027.8795198089647 14361.728846820766
1028.777718903024 14402.27195270183
1029.6756952510368 14399.567625880416
1030.5734489177648 14243.674498150629
1031.4709799679313 14457.304446215834
1032.3682884662358 14577.8012119406
1033.2653744773506 14311.478420232332
1034.1622380659192 14348.099248355016
1035.058879296559 14506.363050823891
1035.9552982338591 14696.619488814345
1036.8514949423825 14734.521185879461
1037.7474694866614 14747.55766119139
1038.6432219312028 14911.75410726065
1039.5387523404825 15143.005654589037
1040.4340607789582 15078.784050090477
1041.3291473110476 15142.536969881568
1042.2240120011465 15541.418831497056
1043.1186549136273 15630.568440684287
1044.0130761128294 15567.464675084379
1044.9072756630649 15682.709319558644
1045.8012536286205 15925.403225737962
1046.6950100737577 15835.920669457171
1047.588545062701 16006.667444644016
1048.481858659663 16018.548218176851
1049.3749509288118 16189.235197782958
1050.2678219343034 15980.145238304069
1051.1604717402515 16017.928679709672
1052.0529004107575 15777.925649952256
1052.9451080098825 15999.570233754916
1053.8370946016694 15907.496967856665
1054.7288602501267 15911.03866542708
1055.6204050192446 15642.561458132113
1056.511728972977 15773.506875765102
1057.402832175254 15711.312338128893
1058.2937146899785 15396.910419288784
1059.1843765810263 15314.685960466912
1060.0748179122456 15489.148941841331
1060.9650387474576 15290.260515133192
1061.855039150456 15343.20168195694
1062.7448191850071 15177.561586786609
1063.6343789148505 15230.087570991765
1064.5237184037014 15180.904104813002
1065.412837715241 15018.424485097054
1066.3017369131267 14851.057487653505
1067.190416060992 14913.152344502005
1068.0788752224398 14630.279749877727
1068.9671144610438 14660.192498310633
1069.8551338403558 14785.632288350442
1070.7429334239023 14899.649944236637
1071.6305132751695 14570.140239891532
1072.517873457633 14712.993505617176
1073.4050140347335 14551.68980907095
1074.2919350698776 14533.929500053167
1075.1786366264623 14434.431665699856
1076.0651187678395 14477.566646259414
1076.95138155735 14228.72332245743
1077.8374250582929 14328.91394340728
1078.7232493339507 14230.66646602516
1079.608854447577 14272.575740709271
1080.4942404623907 14164.597817758793
1081.3794074415982 14227.891140743468
1082.2643554483657 14228.944874760511
1083.149084545841 14257.40311572398
1084.033594797138 13868.783453563554
1084.9178862653516 14127.833161265491
1085.8019590135427 13982.484500802495
1086.6858131047484 13917.879784190543
1087.5694486019802 13967.836221810421
1088.4528655682225 13935.21549212861
1089.3360640664287 14082.843370486336
1090.2190441595321 13902.396777343052
1091.1018059104317 13964.824724850952
1091.98434938201 14092.520687660905
1092.866674637111 13967.689917424173
1093.748781738559 14069.3410423044
1094.6306707491512 13758.83761474831
1095.5123417316554 13935.658158416583
1096.3937947488157 13938.256803929859
1097.2750298633455 13932.751117513442
1098.156047137938 13907.6987729106
1099.0368466352556 13984.948029077703
1099.9174284179317 13987.49572380945
1100.7977925485757 13820.824938568225
1101.6779390897755 13790.732347543182
1102.5578681040806 13851.32803972247
1103.4375796540226 13806.014895295637
1104.3170738021054 13914.666167093314
1105.1963506108077 13725.60759596565
1106.0754101425773 13767.683987263543
1106.9542524598382 13829.319219417364
1107.8328776249855 13808.498040584116
1108.7112857003904 13678.149356114678
1109.5894767483987 13825.253737431945
1110.4674508313292 13983.208808338019
1111.3452080114657 13929.356182294903
1112.2227483510815 13975.588069091114
1113.1000719124077 14179.591889529975
1113.9771787576592 14167.755725839519
1114.854068949022 14316.75541662288
1115.7307425486542 14352.305600928992
1116.6071996186893 14570.065515801918
1117.483440221229 14847.683509504297
1118.3594644183577 14827.044935781796
1119.235272272128 14984.104168279413
1120.1108638445658 15125.711016167546
1120.9862391976712 15319.543986446248
1121.8613983934229 15366.480854206928
1122.7363414937627 15468.653566940886
1123.6110685606182 15632.267593293926
1124.485579655884 15780.24815249175
1125.359874841426 15835.22268700895
1126.2339541790916 15868.567473876241
1127.1078177306936 16135.225352548488
1127.9814655580267 15998.825956476087
1128.854897722851 16105.751092654304
1129.7281142869106 16154.41594878422
1130.6011153119125 16352.447601408068
1131.473900859548 16308.031718014783
1132.3464709914697 16129.038376747205
1133.2188257693178 16016.921053903963
1134.0909652546961 16024.337777322158
1134.96288950919 15825.423727749187
1135.8345985943506 15958.479590691097
1136.7060925717087 15624.742421070576
1137.57737150277 15557.304511109474
1138.4484354490069 15441.28603256893
1139.3192844718778 15406.542214468334
1140.1899186327992 14958.386942881078
1141.060337993178 15305.473113469354
1141.930542614382 14929.959680256487
1142.8005325577597 14789.300436577929
1143.670307884635 14443.16525039477
1144.5398686563003 14688.421401747279
1145.409214934025 14582.881852083185
1146.2783467790541 14289.923047356313
1147.1472642526023 14219.028110432755
1148.0159674158622 14286.096737709895
1148.8844563300026 14042.087081156016
1149.7527310561618 13986.162273145974
1150.6207916554504 13875.0738731627
1151.4886381889592 13889.486363141306
1152.3562707177498 13997.062913172223
1153.2236893028585 13910.129556375545
1154.090894005296 13796.02097671125
1154.9578848860474 13866.767764421684
1155.8246620060709 13839.509819930987
1156.6912254262988 13714.73954458248
1157.5575752076438 13657.871654964518
1158.42371141098 13846.249869281406
1159.2896340971656 13692.506596182206
1160.1553433270346 13648.248049989872
1161.0208391613887 13643.399878382475
1161.8861216610057 13618.494098370244
1162.75119088664 13551.71195007181
1163.6160468990201 13440.367583912172
1164.4806897588442 13298.741848668671
1165.3451195267917 13424.517853287898
1166.2093362635114 13459.57196279192
1167.0733400296285 13401.646201943022
1167.9371308857444 13141.130414402049
1168.8007088924278 13203.268515632992
1169.6640741102328 13301.00365285102
1170.5272265996773 13147.66236871799
1171.390166421259 12970.67033952208
1172.252893635452 13339.863558423105
1173.1154083026995 13380.509522355987
1173.977710483421 13253.273648004446
1174.8398002380145 13127.473935860286
1175.7016776268483 13252.377565014476
1176.563342710264 13157.833091084656
1177.4247955485826 13098.21821735983
1178.2860362020947 13161.780917348744
1179.147064731069 13093.53024592054
1180.0078811957483 13178.953554187887
1180.8684856563486 13125.069235112427
1181.7288781730604 13224.35525762082
1182.589058806052 13370.155822725772
1183.4490276154593 13365.122955907378
1184.3087846614017 13270.638263465851
1185.1683300039676 13385.945498414518
1186.027663703222 13633.645092507164
1186.8867858192025 13466.85135444521
1187.7456964119228 13543.49661128339
1188.6043955413716 13585.373696016464
1189.4628832675116 13691.811790846972
1190.3211596502842 13747.431712628235
1191.179224749596 13902.105181822903
1192.0370786253388 13758.669216170249
1192.8947213373758 14009.606424839072
1193.7521529455407 14172.072620449588
1194.6093735096438 13920.235975794689
1195.466383089477 14030.172645751783
1196.3231817447977 14109.583046125254
1197.1797695353398 14289.846954889184
1198.0361465208189 14161.41067292177
1198.8923127609214 14091.568981498043
1199.7482683153048 14132.8462119454
1200.6040132436028 14279.053514834737
1201.459547605431 14162.056880865983
1202.3148714603722 13982.108669810932
1203.1699848679855 14129.978976191074
1204.0248878878065 14166.992039238938
1204.8795805793507 13922.341275389694
1205.7340630020935 14044.574411364554
1206.5883352155033 14035.905271187326
1207.4423972790064 13892.933948171722
1208.2962492520237 13834.113820283714
1209.1498911939307 13754.069917693472
1210.0033231640937 13827.394807133824
1210.8565452218427 13621.833962734341
1211.7095574264913 13517.717261951231
1212.5623598373222 13456.460385729457
1213.4149525135963 13372.0951098064
1214.2673355145507 13388.52509589634
1215.1195088993936 13275.51817780163
1215.9714727273113 13129.217148415259
1216.8232270574663 13406.75410987119
1217.6747719489904 12962.237969218579
1218.5261074609934 12997.176332217949
1219.3772336525653 13013.03130995036
1220.2281505827668 13180.525769699627
1221.0788583106296 13099.560625627391
1221.9293568951707 12881.45339363145
1222.7796463953746 12842.808991710936
1223.629726870202 12939.716347383594
1224.4795983785934 12974.843003248512
1225.3292609794553 12924.129676551816
1226.1787147316809 12788.37704064297
1227.0279596941327 12935.878230438666
1227.8769959256424 12871.079069263587
1228.7258234850306 12882.377793657412
1229.5744424310833 12663.21951497938
1230.422852822563 12881.194582135124
1231.2710547182105 13015.249981426548
1232.119048176739 12824.063338901706
1232.9668332568417 12665.46091762166
1233.8144100171812 12914.46779345681
1234.6617785163999 12863.485147069401
1235.508938813111 12748.920613943588
1236.3558909659114 12753.478665143075
1237.2026350333617 13005.011166640128
1238.049171074008 12916.399884374714
1238.8954991463652 12766.39528135931
1239.741619308932 12707.71533111206
1240.587531620169 13022.951317202987
1241.4332361385277 12852.122848933195
1242.2787329224248 12729.909562280995
1243.1240220302534 12743.738900114222
1243.9691035203869 12708.241714501783
1244.813977451171 12835.836034486678
1245.6586438809263 12877.091087377436
1246.5031028679496 12541.800785632531
1247.3473544705157 12821.326476418784
1248.1913987468706 12757.103593229658
1249.0352357552383 12697.556080972596
1249.8788655538228 12523.248540005983
1250.7222882007918 12936.967301585162
1251.565503754302 12830.511512037705
1252.4085122724755 12778.727564695051
1253.2513138134182 12856.313651284563
1254.0939084352049 12880.707786828303
1254.9362961958905 12757.902224444308
1255.7784771535007 12854.346523144253
1256.6204513660432 12774.7981543244
1257.4622188915 12962.02631798857
1258.3037797878242 12734.397917661938
1259.1451341129468 12816.776508698262
1259.9862819247755 12776.70014097094
1260.8272232811978 12752.641208559458
1261.6679582400666 12867.679590444417
1262.5084868592203 12605.044964883442
1263.34880919647 12644.285726354052
1264.1889253095997 12814.304635204608
1265.0288352563712 12820.070486057908
1265.8685390945266 12601.786575809576
1266.7080368817751 12719.551159041173
1267.5473286758115 12863.904146434112
1268.386414534294 12790.789157634976
1269.2252945148703 12527.347997375866
1270.0639686751547 12574.781248534851
1270.9024370727402 12648.560564355337
1271.7406997651997 12626.622281166616
1272.5787568100714 12398.100245822696
1273.4166082648808 12524.71835360617
1274.2542541871244 12575.911781250392
1275.091694634275 12727.428699414673
1275.9289296637817 12482.046949780128
1276.7659593330663 12368.51156795235
1277.6027836995308 12428.454604862163
1278.4394028205552 12439.944163887607
1279.2758167534867 12406.405899782603
1280.112025555658 12443.771982127142
1280.9480292843746 12450.45260027747
1281.7838279969128 12272.93318612043
1282.6194217505326 12342.532769394711
1283.4548106024686 12100.329515283569
1284.289994609926 12287.840057576857
1285.1249738300921 12431.476736443377
1285.959748320127 12240.808878580381
1286.7943181371702 12182.362105861099
1287.6286833383328 12450.599171867329
1288.4628439807038 12311.249942740335
1289.2968001213521 12313.68652254565
1290.1305518173194 12182.121703961808
1290.9640991256183 12303.41502847333
1291.7974421032523 12321.074427640458
1292.630580807183 12236.281499285378
1293.463515294361 12305.260604566825
1294.29624562171 12422.067949617382
1295.12877184613 12265.35041628133
1295.961094024493 12347.729853997444
1296.79321221365 12380.328125189128
1297.6251264704333 12483.21357334935
1298.4568368516466 12621.903911673726
1299.2883434140658 12615.23974405279
1300.1196462144526 12375.516589456467
1300.9507453095375 12540.000193795024
1301.7816407560313 12452.482954534096
1302.6123326106172 12512.574924493263
1303.4428209299622 12247.750940245449
1304.2731057707024 12657.575626644442
1305.1031871894502 12302.512264164616
1305.933065242798 12523.746328286596
1306.7627399873181 12519.333453618918
1307.5922114795467 12826.777184518622
1308.4214797760123 12739.04679284178
1309.2505449332057 12552.622026296482
1310.0794070076026 12723.587824446642
1310.9080660556538 12743.426175708979
1311.736522133786 12673.026858764193
1312.5647752983987 12669.537749739198
1313.3928256058734 12503.325492660311
1314.2206731125661 12797.78471907038
1315.048317874809 12725.888410295147
1315.8757599489109 12751.723956666778
1316.7029993911547 12749.883619345852
1317.5300362578055 13070.209087762072
1318.356870605101 12661.173841339278
1319.183502489257 12757.798030934366
1320.0099319664623 12748.06113213704
1320.836159092889 12903.248700918088
1321.66218392468 13020.043600456924
1322.4880065179532 12668.257374531926
1323.3136269288134 12694.937672651184
1324.1390452133292 12882.543051959809
1324.9642614275563 12940.450406059645
1325.7892756275214 12806.515292039607
1326.6140878692295 12629.351269962817
1327.4386982086617 13054.917107137604
1328.2631067017755 12872.723119291488
1329.0873134045069 12890.918634413501
1329.911318372764 12719.76684069198
1330.735121662441 12562.546120507091
1331.558723329399 12600.636965975322
1332.3821234294774 12722.827559159537
1333.2053220185007 12571.116085224254
1334.0283191522612 12765.33242448253
1334.851114886529 12713.450449434671
1335.6737092770582 12576.41771507883
1336.4961023795695 12530.435261738367
1337.3182942497697 12606.124385758456
1338.1402849433325 12569.564990522795
1338.962074515921 12480.2822838517
1339.7836630231632 12424.651783580339
1340.6050505206676 12797.242604520747
1341.426237064028 12611.523877025937
1342.2472227088037 12846.557773490196
1343.0680075105338 12172.112883216298
1343.888591524741 12415.943020646391
1344.7089748069138 12677.20272411493
1345.5291574125276 12377.15185743461
1346.3491393970307 12240.471968670126
1347.168920815846 12437.228784910307
1347.9885017243778 12341.265350212925
1348.8078821780036 12320.898647724813
1349.6270622320844 12332.56548480771
1350.4460419419447 12204.600295959804
1351.2648213629054 12434.175825362769
1352.0834005502438 12134.979670423474
1352.90177955923 12239.73218562424
1353.7199584451064 12788.019486957539
1354.5379372630887 12330.216995233839
1355.355716068374 12182.63209876197
1356.1732949161305 12244.527455098827
1356.9906738615155 12290.177758850728
1357.8078529596478 12312.221415855836
1358.6248322656375 12345.735484011695
1359.441611834567 12022.012749438232
1360.2581917214866 12516.937598300217
1361.0745719814367 12150.482075987737
1361.890752669433 12146.725105674104
1362.7067338404577 12199.179589323267
1363.5225155494845 12428.234912689455
1364.3380978514506 12339.864527028038
1365.1534808012839 12063.261304292439
1365.9686644538815 11925.534536495838
1366.783648864117 12303.107075950418
1367.5984340868417 12362.928971937075
1368.413020176893 12204.973756569441
1369.2274071890715 11977.843701919786
1370.0415951781652 12170.630593774913
1370.8555841989346 11993.696572124543
1371.6693743061223 12030.40053009275
1372.48296555444 11930.485763326775
1373.2963579985844 12252.486661730993
1374.1095516932255 12003.023185332602
1374.9225466930166 11966.506185637769
1375.7353430525782 12166.352062434311
1376.5479408265164 11991.346468578642
1377.36034006941 12156.963676861054
1378.1725408358216 12261.958020739054
1378.9845431802805 11898.751815620737
1379.796347157304 12310.849135436783
1380.6079528213813 12182.230632412235
1381.4193602269788 12022.366260637951
1382.230569428546 11930.341087112964
1383.0415804805016 12282.761386407139
1383.852393437246 12114.528395115427
1384.6630083531563 12040.606536495707
1385.4734252825892 12178.158262991648
1386.2836442798798 12132.989920858407
1387.0936653993322 11959.55786127207
1387.9034886952395 11930.999701077788
1388.713114221864 12016.807920694222
1389.5225420334482 11968.369590440878
1390.331772184214 11726.190309034679
1391.1408047283585 11800.6296592392
1391.9496397200564 11747.633015791977
1392.758277213461 11956.681962631064
1393.5667172627054 11934.109992576687
1394.3749599218918 11736.311736575068
1395.1830052451114 11433.330159267374
1395.9908532864265 11715.282106604105
1396.7985040998774 11838.363023523265
1397.6059577394808 11630.52908028447
1398.4132142592352 11684.489196433502
1399.2202737131156 11604.521182486431
1400.027136155073 11618.13509559948
1400.8338016390353 11643.36917059505
1401.6402702189134 11451.767420053315
1402.446541948586 11618.594302724292
1403.2526168819204 11310.840132839283
1404.058495072757 11473.125317016715
1404.8641765749107 11368.909940487089
1405.6696614421799 11461.436750373217
1406.4749497283356 11490.937757299262
1407.280041487129 11364.818865576719
1408.084936772295 11003.29708048303
1408.8896356375335 11349.099477577056
1409.6941381365323 11289.449480873805
1410.498444322955 10921.438274066317
1411.3025542504402 11060.406780085123
1412.106467972606 11062.753656841107
1412.9101855430508 11125.236841391674
1413.7137070153458 10818.67064771709
1414.5170324430437 10782.21556297054
1415.320161879672 10909.656482965413
1416.1230953787435 11100.975647258889
1416.925832993742 10844.180263802813
1417.7283747781275 10513.546768670645
1418.5307207853439 10766.843835990589
1419.3328710688093 10710.09396030207
1420.134825681922 10501.151061845047
1420.9365846780584 10597.06251206002
1421.7381481105713 10854.591804206926
1422.539516032788 10799.565900536045
1423.3406884980232 10503.148743901409
1424.1416655595604 10416.799518373935
1424.942447270665 10544.321087672293
1425.7430336845828 10591.186633316445
1426.5434248545298 10364.357430754706
1427.3436208337116 10610.794987220848
1428.143621675301 10726.632576113447
1428.9434274324558 10681.8489880201
1429.7430381583108 10440.71390278644
1430.5424539059713 10455.663657723924
1431.3416747285337 10864.671239208768
1432.1407006790632 10552.380356206166
1432.9395318106053 10593.052028597802
1433.7381681761835 10430.202892225114
1434.5366098288014 10461.986765220554
1435.3348568214424 10608.726404140805
1436.1329092070573 10448.384767533407
1436.9307670385879 10522.957174994506
1437.7284303689503 10650.84818223206
1438.5258992510335 10775.697099964655
1439.3231737377118 10536.71762410567
1440.1202538818306 10498.792752653388
1440.9171397362225 10410.604828931377
1441.7138313536925 10467.211174126805
1442.5103287870243 10394.746285373787
1443.3066320889775 10305.579663525254
1444.1027413122956 10581.173773838516
1444.8986565096966 10458.913396268295
1445.694377733882 10460.768576782699
1446.4899050375207 10290.135680252832
1447.2852384732687 10368.767821092866
1448.0803780937622 10526.253874701431
1448.8753239516063 10467.984363888603
1449.6700760993954 10248.123563584068
1450.464634589689 10261.318836718438
1451.2589994750397 10577.913637992819
1452.0531708079689 10338.425970960783
1452.8471486409799 10107.675957667747
1453.6409330265524 10517.94383129973
1454.4345240171442 10243.99924171752
1455.2279216651987 10316.54595200965
1456.0211260231263 10242.86091770583
1456.8141371433194 10284.997180735681
1457.6069550781594 10297.186666789854
1458.3995798799897 10180.8006166219
1459.1920116011424 10192.574237798723
1459.98425029393 10148.02165344249
1460.7762960106338 10110.835525975748
1461.5681488035225 10074.588651401431
1462.3598087248392 10163.184107214689
1463.1512758268036 10297.14059319873
1463.942550161617 10152.53831464802
1464.7336317814625 10064.837152178912
1465.524520738496 10094.909618290047
1466.3152170848552 10003.566048689816
1467.1057208726506 10028.933014015913
1467.8960321539817 9990.426161131198
1468.6861509809169 9885.981170632727
1469.4760774055085 10012.781927238066
1470.265811479785 10036.08194380278
1471.055353255755 9740.720035014023
1471.844702785409 9927.343276394779
1472.6338601207044 9968.072715646631
1473.4228253135934 10460.992420198301
1474.2115984159936 9932.797688599621
1475.0001794798063 9680.222237824068
1475.7885685569145 10001.160246824273
1476.576765699172 9978.880486083066
1477.3647709584238 10036.240306909167
1478.1525843864802 9980.425651201129
1478.9402060351367 10141.677503259429
1479.7276359561693 10024.117990474188
1480.514874201328 9874.576185169213
1481.3019208223468 9984.815825428475
1482.0887758709323 9815.435545941264
1482.8754393987747 10056.013784430997
1483.6619114575406 9823.21457591694
1484.4481920988783 10060.821222716526
1485.2342813744108 10142.684360171512
1486.0201793357446 10237.980833637801
1486.8058860344572 10034.958019583244
1487.591401522117 10012.860456592076
1488.3767258502594 9898.947557710208
1489.1618590704056 9915.654765561489
1489.9468012340494 9672.146469392628
1490.7315523926754 10063.380434525614
1491.5161125977356 10205.65242153843
1492.3004819006637 9991.802703054276
1493.084660352877 9962.177048435096
1493.8686480057622 9981.837082781265
1494.6524449106964 10274.015946567904
1495.4360511190262 10180.861833453275
1496.219466682087 9926.351942120487
1497.0026916511779 10021.704168308828
1497.7857260775945 9967.081220553831
1498.5685700125996 10053.56051024723
1499.3512235074395 9972.56581163966
1500.133686613337 9918.50320284272
1500.9159593814966 9950.26909787822
1501.698041863101 10257.028408910865
1502.4799341093094 9823.532703194678
1503.2616361712662 9736.439801867476
1504.043148100087 10146.296104780078
1504.8244699468742 10012.428991323019
1505.6056017626997 9996.370062072736
1506.3865435986281 9598.132911620107
1507.1672955056893 9999.502552503202
1507.9478575348967 9808.871999938803
1508.7282297372512 10064.006834598353
1509.5084121637192 9935.655531646868
1510.2884048652577 9978.512631166192
1511.0682078927948 9873.161642633662
1511.8478212972423 9906.734250030853
1512.6272451294917 9867.560413731446
1513.4064794404076 10090.322096404056
1514.1855242808433 9947.810359684501
1514.9643797016215 9966.97087460723
1515.743045753552 9914.851302817495
1516.5215224874191 9973.633193396094
1517.2998099539836 9685.338849223792
1518.077908203999 9857.907829771993
1518.8558172881785 9844.9401784314
1519.633537257234 10071.70772300016
1520.4110681618404 9936.252661805029
1521.1884100526604 10107.60468578932
1521.9655629803365 10080.76723908266
1522.7425269954856 10239.242409012124
1523.5193021487103 10210.50907740126
1524.2958884905856 9786.989754427505
1525.0722860716687 9945.700390936985
1525.848494942502 10022.874849493246
1526.624515153595 9918.23303833556
1527.4003467554485 10099.053137341594
1528.175989798534 10184.75609562756
1528.9514443333064 9872.403369687554
1529.726710410203 10251.538240938587
1530.5017880796331 9927.508972776617
1531.276677391992 9988.16832207036
1532.0513783976457 10123.358583330988
1532.825891146953 10023.278604553794
1533.6002156902414 10164.360167681314
1534.3743520778207 9993.430670250333
1535.1483003599806 10121.617766100524
1535.9220605869923 10013.258310110776
1536.6956328091019 10232.702250613776
1537.4690170765407 10101.153783799828
1538.242213439511 10223.598925599334
1539.015221948208 10130.763089962957
1539.78804265279 9966.61039790036
1540.560675603405 9786.632545876868
1541.3331208501804 10340.03302679228
1542.1053784432224 10343.417782057204
1542.8774484326168 10152.512423129094
1543.649330868422 9944.737134532827
1544.4210258006842 10238.06537303844
1545.1925332794308 10024.580643664736
1545.9638533546604 10208.007752945958
1546.7349860763552 9977.373722632088
1547.5059314944829 10485.411967037226
1548.27668965898 10160.78396466521
1549.0472606197673 10253.952961590456
1549.817644426752 9977.777646942992
1550.5878411298072 10302.020226811324
1551.3578507787988 10080.320527895994
1552.1276734235635 10089.661765857814
1552.8973091139233 10131.738247913043
1553.6667578996767 10279.19250917007
1554.436019830604 10315.197018409373
1555.20509495646 10172.939734785095
1555.9739833269869 10007.220532682835
1556.7426849919011 10132.234514273561
1557.511200000903 10474.442902710525
1558.2795284036674 10343.23076311677
1559.0476702498509 10215.870252290131
1559.8156255890954 10386.423041437807
1560.5833944710157 10356.352206556405
1561.3509769452048 10207.52549894583
1562.1183730612447 10166.785603412733
1562.8855828686865 10220.406466232103
1563.6526064170703 10569.13586836325
1564.4194437559127 10579.434902075373
1565.1860949347047 10091.041723584709
1565.9525600029283 10591.843336989508
1566.7188390100328 10540.26115698132
1567.4849320054564 10159.032895706194
1568.250839038612 10257.646546173397
1569.0165601588997 10167.874630205017
1569.7820954156887 10506.0523549185
1570.5474448583373 10176.794079759686
1571.31260853618 9912.892373288276
1572.0775864985299 10052.475163265628
1572.8423787946813 10274.156858097942
1573.6069854739108 10099.18310945894
1574.371406585471 10278.03763867079
1575.1356421785986 10228.462197638455
1575.899692302506 10006.760672039081
1576.6635570063845 10123.94257262249
1577.4272363394157 9997.49542081027
1578.190730350747 10021.774257933988
1578.9540390895163 9922.226621168864
1579.7171626048384 9719.338958047763
1580.480100945806 9792.48221475732
1581.2428541614918 9901.175208008004
1582.0054223009538 9789.544270445183
1582.767805413223 9887.996656698528
1583.5300035473156 9819.52576042338
1584.292016752228 9928.631263771029
1585.0538450769309 9869.85500791639
1585.8154885703807 9759.755062395105
1586.5769472815136 9676.383306968164
1587.3382212592405 9855.912504186188
1588.099310552463 9954.554093994677
1588.8602152100484 9420.210275867375
1589.6209352808564 9947.750522526705
1590.3814708137234 9928.03593963048
1591.14182185746 9308.586707260112
1591.9019884608679 9877.885534115887
1592.6619706727215 9508.952560202843
1593.4217685417734 9981.433229706621
1594.1813821167616 10054.236696484915
1594.9408114464022 9660.00579190018
1595.7000565793933 9812.432054297204
1596.459117564409 9904.965997580211
1597.2179944501113 9729.408557950188
1597.9766872851324 9829.69157112127
1598.735196118092 9748.548363986189
1599.4935209975883 9955.89587712207
1600.2516619721973 10021.63471971667
1601.0096190904787 9713.14172373201
1601.7673924009723 9843.189853937443
1602.524981952196 9734.852859633374
1603.2823877926476 9624.015933132283
1604.0396099708087 9587.703227984635
1604.7966485351371 9607.41635565511
1605.5535035340745 9843.972533979231
1606.3101750160404 9995.071155699745
1607.0666630294363 9715.629898453713
1607.822967622642 9515.06107868996
1608.5790888440224 9728.899067601877
1609.3350267419137 9850.281234732454
1610.0907813646445 9794.644832694112
1610.8463527605145 9591.82578235756
1611.601740977805 9833.500565825558
1612.356946064785 9681.99996500053
1613.1119680696902 9480.80145080407
1613.8668070407512 9516.734101981681
1614.6214630261748 9680.187725919046
1615.375936074137 9509.912082621351
1616.1302262328118 9700.8869378795
1616.8843335503425 9624.02432214178
1617.638258074854 9453.500830509554
1618.391999854457 9461.20513597795
1619.1455589372363 9622.09259396433
1619.8989353712623 9632.44222559502
1620.65212920458 9086.084312559226
1621.4051404852235 9333.63941045512
1622.1579692611976 9326.555081114984
1622.9106155804966 9089.815224178476
1623.663079491087 9227.630107478511
1624.4153610409248 9398.644397770366
1625.1674602779385 9426.778346387884
1625.9193772500403 9047.628055204403
1626.6711120051277 9367.131784356186
1627.4226645910676 9242.51577547396
1628.174035055721 8922.802308444854
1628.9252234469168 9111.613754892063
1629.676229812474 9176.01687215322
1630.4270542001905 9481.352254978912
1631.1776966578382 9223.79722353332
1631.9281572331747 9130.927727717999
1632.678435973945 9188.798493985454
1633.4285329278573 9117.225752788367
1634.1784481426203 9013.104659340821
1634.9281816659113 9035.557824124156
1635.677733545388 9274.130451497973
1636.4271038286934 8902.980939614023
1637.176292563452 9036.821070507754
1637.9252997972635 9233.4983916669
1638.674125577716 9313.412901744776
1639.4227699523672 9482.457797380705
1640.171232968767 8820.238324585513
1640.9195146744423 9122.2182608172
1641.6676151168977 9152.008854120879
1642.4155343436178 9236.351109889123
1643.1632724020765 9223.012105967147
1643.9108293397167 9271.300993672525
1644.658205203974 8955.495700990195
1645.4054000422566 9647.623960989353
1646.1524139019566 9124.382230297004
1646.8992468304423 9111.44211741794
1647.6458988750728 9238.457954191897
1648.3923700831765 9310.525022101712
1649.1386605020743 9175.936323654803
1649.8847701790564 9341.922295331726
1650.6306991614038 9266.209127580414
1651.3764474963682 9330.362599796223
1652.1220152311944 9031.70341608345
1652.867402413096 9292.604735201772
1653.6126090892776 9001.307014535541
1654.3576353069184 9304.9702805286
1655.1024811131829 9113.732343889813
1655.8471465552066 9184.817164143891
1656.5916316801213 9294.820807009532
1657.3359365350298 9187.340835222525
1658.0800611670165 9102.630849346051
1658.824005623148 8975.002755565678
1659.5677699504722 8749.488977816047
1660.3113541960192 9071.865158516439
1661.054758406799 9030.110156408053
1661.7979826297997 8820.73787080901
1662.5410269119966 8685.1011434772
1663.283891300338 9058.895437446588
1664.0265758417645 8719.086606530427
1664.7690805831826 8765.05560673555
1665.5114055714948 8867.873030594305
1666.2535508535748 8902.325030976386
1666.9955164762814 8420.378820124355
1667.7373024864555 8662.310563460796
1668.478908930916 8679.672979030145
1669.220335856462 8276.72099947945
1669.9615833098778 8458.374936305127
1670.7026513379296 8373.404959955513
1671.44353998736 8420.736762736102
1672.1842493048916 8358.817763049212
1672.9247793372379 8323.74298025329
1673.6651301310812 8441.271901929444
1674.4053017330934 8218.56277048836
1675.1452941899242 8233.934573328248
1675.885107548207 7829.753238092517
1676.6247418545518 7948.125369437919
1677.3641971555535 8019.887242390573
1678.1034734977893 8052.525625367809
1678.8425709278108 8176.525444574561
1679.5814894921605 8103.94936794524
1680.320229237359 7861.026949993468
1681.0587902098978 7948.373835177372
1681.7971724562685 7840.4405242634
1682.5353760229264 7897.188080308498
1683.2734009563173 7754.980859717059
1684.0112473028657 7555.616356038443
1684.7489151089794 7794.323749159774
1685.4864044210462 7785.065011113053
1686.2237152854377 7566.526655055774
1686.960847748498 7729.302377460275
1687.6978018565642 7458.349655441234
1688.434577655944 7371.357893335387
1689.1711751929379 7502.78912896517
1689.9075945138156 7376.144107519159
1690.6438356648396 7405.457493935709
1691.3798986922448 7046.991417459445
1692.1157836422499 7237.8744088518315
1692.851490561059 7328.049569922633
1693.587019494853 7207.82971878511
1694.3223704897991 7076.699576391489
1695.0575435920364 6925.235522070977
1695.792538847696 7267.61847006135
1696.527356302886 7083.384537316248
1697.2619960036936 6836.02829449584
1697.9964579961907 6900.785425891447
1698.730742326432 6513.59525188699
1699.4648490404488 6601.241012954881
1700.1987781842563 6784.338167897773
1700.9325298038548 6914.2909216556245
1701.6661039452174 6916.935170624754
1702.3995006543082 6784.0607741978365
1703.1327199770658 6893.59286057296
1703.865761959416 6639.158796191924
1704.598626647261 6814.865772549694
1705.3313140864866 6619.564450540905
1706.0638243229587 6631.156366407918
1706.7961574025303 6878.066281046301
1707.528313371029 6543.150064069423
1708.260292274268 6251.715594930797
1708.9920941580403 6541.795958918056
1709.7237190681226 6578.8878254181545
1710.4551670502697 6395.043127256695
1711.18643815022 6113.6596392276115
1711.9175324136959 6729.79294330602
1712.6484498863938 6449.050288035423
1713.379190614005 6198.724100000154
1714.109754642188 6386.462140222267
1714.8401420165883 6298.63189756272
1715.570352782839 6447.525629593618
1716.3003869865497 6435.452743565699
1717.0302446733076 6254.385877251314
1717.7599258886876 6242.149958300046
1718.4894306782444 6354.377856565202
1719.2187590875183 6088.015530108103
1719.9479111620203 6343.60819216547
1720.6768869472544 6187.396243910275
1721.4056864887025 6446.532517449552
1722.1343098318284 6431.127303719279
1722.8627570220742 6067.690233312451
1723.591028104871 5972.315437667931
1724.3191231256242 5987.038863060772
1725.0470421297232 6118.741823399434
1725.7747851625427 6126.04493314256
1726.5023522694337 6143.39951638134
1727.2297434957363 6233.407183728213
1727.9569588867635 5830.283356375759
1728.6839984878152 6265.27410497408
1729.4108623441734 5774.486313544707
1730.1375505011038 6160.199518298807
1730.8640630038426 6021.400358903429
1731.5903998976264 5896.086096918782
1732.316561227657 6128.60910725081
1733.0425470391274 5904.460151335137
1733.7683573772065 6020.045318621612
1734.4939922870508 5967.293754378338
1735.2194518137949 5872.40534203316
1735.9447360025606 5991.713960393916
1736.669844898439 5863.096317366626
1737.3947785465189 5877.21198682583
1738.1195369918605 5697.617077408008
1738.8441202795093 5765.6532716065485
1739.5685284544943 5836.402073400588
1740.292761561821 5936.735074713596
1741.0168196464838 5965.686767368292
1741.7407027534518 5970.793805971333
1742.464410927687 5847.886629696738
1743.187944214118 5749.545642127336
1743.9113026576688 5639.86359604628
1744.634486303241 5802.395604138426
1745.3574951957125 5731.811352241819
1746.0803293799509 5766.932160953294
1746.8029889008048 5629.082518731046
1747.5254738031017 5951.573576670402
1748.2477841316504 5616.3300269434
1748.969919931249 5743.2971195003975
1749.6918812466665 5610.597458061496
1750.4136681226646 5977.840756420467
1751.1352806039777 5840.559686417705
1751.856718735331 5632.563388236099
1752.5779825614281 5693.079252479148
1753.2990721269507 5792.80848709291
1754.0199874765676 5840.667095343665
1754.7407286549314 5551.844305216377
1755.4612957066693 5711.485309357215
1756.1816886763954 5636.651190373947
1756.9019076087097 5711.112285361966
1757.6219525481865 5675.50805359294
1758.3418235393856 5797.297581004005
1759.061520626854 5697.85473855599
1759.7810438551096 5786.758568499355
1760.5003932686614 5588.688425048679
1761.2195689119999 5978.634451314283
1761.938570829594 5562.5720733490025
1762.657399065898 5584.465842989794
1763.376053665348 5442.590409338106
1764.0945346723602 5512.4192457324225
1764.812842131334 5771.576064328249
1765.5309760866512 5438.666711563147
1766.2489365826787 5536.569425369045
1766.9667236637597 5622.300220440217
1767.684337374223 5376.022120877538
1768.401777758383 5296.235467066467
1769.1190448605284 5317.765551127672
1769.836138724937 5421.8930227715755
1770.5530593958665 5692.124238975357
1771.2698069175603 5724.7868104581885
1771.9863813342326 5551.554571332669
1772.702782690094 5406.318541548642
1773.4190110293293 5592.561976575099
1774.1350663961111 5688.593763013324
1774.8509488345844 5321.514360896427
1775.5666583888924 5552.313718338057
1776.2821951031437 5679.2873089708755
1776.9975590214362 5466.4806425426805
1777.7127501878585 5711.137651326104
1778.4277686464684 5450.278566362139
1779.1426144413108 5693.410716140486
1779.8572876164162 5477.7193851716365
1780.571788215797 5305.339514844196
1781.2861162834415 5451.103675055374
1782.0002718633277 5351.960263517403
1782.7142549994132 5363.710558842709
1783.4280657356376 5447.825456339471
1784.141704115922 5242.972011153938
1784.855170184177 5332.072385647403
1785.5684639842839 5338.550812249914
1786.2815855601148 5164.5146800728335
1786.9945349555237 5525.823588968994
1787.707312214343 5173.689956057211
1788.4199173803918 5407.257578810323
1789.132350497468 5146.918968670992
1789.8446116093583 5207.256010026808
1790.556700759822 5386.761496846406
1791.2686179926077 5100.631916567636
1791.9803633514493 5262.801721699942
1792.6919368800554 5117.0060822407595
1793.4033386221236 5342.252824253002
1794.1145686213295 5303.86975158573
1794.8256269213307 5644.938428230934
1795.536513565774 5337.9940524198155
1796.247228598284 4956.5982496909355
1796.9577720624693 5111.12015448794
1797.6681440019165 5215.773457023523
1798.3783444602013 5236.59543013841
1799.0883734808776 5288.519215467212
1799.7982311074884 5322.941626670545
1800.5079173835475 5169.91236291311
1801.2174323525633 5311.752346282321
1801.9267760580187 5187.578357311619
1802.635948543386 5203.472325342195
1803.3449498521113 5154.709496704242
1804.0537800276325 5157.905159636239
1804.7624391133668 5113.8926228362925
1805.47092715271 4816.365194682383
1806.1792441890484 4985.308203947415
1806.8873902657433 5205.21340430207
1807.5953654261448 5123.372665485165
1808.3031697135812 4911.059365214516
1809.0108031713662 5119.925231464534
1809.71826584279 5070.239758321385
1810.425557771141 5034.450884714432
1811.1326789996747 5581.437308534996
1811.839629571632 5203.624335887554
1812.5464095302468 4984.404255608637
1813.2530189187182 5258.627897568687
1813.959457780249 4944.553940819907
1814.6657261580076 5272.223546629425
1815.371824095153 5134.940404697066
1816.0777516348262 5163.109318615751
1816.78350882015 4785.968224429468
1817.4890956942272 4975.763262419463
1818.1945123001533 4990.998146900225
1818.8997586809928 5035.65248015389
1819.6048348798067 5023.397640939065
1820.3097409396287 5000.975343792289
1821.0144769034796 5273.586453128735
1821.7190428143622 5037.675401217593
1822.423438715261 5281.440565461266
1823.1276646491478 5027.116452111269
1823.8317206589727 5024.38105800826
1824.5356067876692 5032.375852520992
1825.2393230781581 4964.615394961157
1825.942869573335 4763.944463660659
1826.646246316086 4941.527111837858
1827.3494533492758 4967.015987491062
1828.052490715756 4989.238639629314
1828.7553584583547 5064.598947053075
1829.458056619891 5059.352937419334
1830.1605852431585 4773.9415821541725
1830.8629443709433 4803.519751493054
1831.5651340460063 4923.510837029361
1832.2671543110919 5000.892604872061
1832.9690052089318 5022.991039708423
1833.6706867822395 4758.555092394497
1834.3721990737104 5120.026417662079
1835.0735421260233 5031.363567616532
1835.774715981841 5049.170692247213
1836.4757206838058 5284.162186157374
1837.1765562745459 4631.201574675926
1837.8772227966747 4676.969481685782
1838.5777202927839 4926.125589029523
1839.2780488054523 4950.474963834874
1839.9782083772352 4643.584197773025
1840.6781990506806 5139.26560117671
1841.378020868313 4881.629261038355
1842.0776738726418 4788.826879465
1842.777158106157 4791.526277466567
1843.4764736113375 4622.659671179853
1844.1756204306403 4897.009120132717
1844.8745986065078 4848.209942270645
1845.5734081813607 4613.7420859617105
1846.2720491976124 4590.675023792264
1846.970521697649 4626.940811742576
1847.6688257238511 4762.609500761669
1848.3669613185684 4709.284846865268
1849.0649285241452 4594.708967915275
1849.7627273829057 4866.070785283475
1850.460357937156 4875.623035069204
1851.1578202291857 4502.666394821385
1851.8551143012664 4787.043740038132
1852.5522401956569 4965.5395112813085
1853.2491979545957 5000.420548062436
1853.9459876203055 4473.002708392289
1854.6426092349902 4586.158265485366
1855.3390628408451 4675.045334851008
1856.0353484800362 4773.986447524696
1856.7314661947203 4660.987115691381
1857.4274160270397 4600.668974264108
1858.123198019115 4657.928212589986
1858.8188122130487 4742.104964158533
1859.5142586509319 4657.489849883878
1860.209537374838 4664.586513661345
1860.9046484268183 4558.872279963295
1861.599591848917 4886.990967646962
1862.294367683151 4602.206594629435
1862.988975971528 4508.182862977703
1863.6834167560355 4653.220353581046
1864.3776900786452 4734.871385214789
1865.0717959813119 4476.851332579616
1865.7657345059724 4608.242631141193
1866.4595056945564 4744.302541096256
1867.1531095889586 4729.669898555362
1867.846546231076 4662.746492053613
1868.5398156627743 4832.884885528697
1869.2329179259123 4564.7967986602725
1869.9258530623283 4907.801744291214
1870.618621113843 4548.018130338711
1871.3112221222636 4409.535713365161
1872.0036561293764 4441.082883979291
1872.695923176956 4746.810728991856
1873.3880233067594 4687.911590354578
1874.0799565605212 4446.725430213586
1874.7717229799673 4534.718120533574
1875.4633226068036 4675.832783182593
1876.1547554827175 4533.142028202711
1876.8460216493859 4515.640774927937
1877.5371211484617 4512.250928043988
1878.2280540215852 4819.284981183454
1878.9188203103804 4435.381314990079
1879.6094200564548 4569.969972045356
1880.299853301396 4284.459115872068
1880.9901200867826 4585.826355981789
1881.6802204541673 4510.226581256082
1882.3701544450942 4595.274828249938
1883.059922101087 4515.870540254351
1883.7495234636517 4638.27046143773
1884.4389585742792 4498.9715841710995
1885.1282274744517 4474.368302685952
1885.8173302056166 4905.331930147538
1886.506266809225 4461.599883267491
1887.195037326701 4236.959864636588
1887.8836417994517 4406.1010749401285
1888.5720802688702 4761.55890397143
1889.260352776333 4606.735630203552
1889.9484593632042 4603.119962878615
1890.63640007082 4459.796722783042
1891.3241749405151 4300.180070339099
1892.0117840135954 4518.270067813015
1892.6992273313572 4446.574323375835
1893.3865049350788 4413.390785486599
1894.0736168660223 4948.773454909519
1894.7605631654333 4350.126886914999
1895.4473438745408 4150.512900872908
1896.133959034556 4601.512491985856
1896.820408686679 4262.392528472652
1897.506692872088 4672.134615456028
1898.192811631945 4457.993718639778
1898.8787650073991 4369.303544904274
1899.5645530395832 4571.0011697117125
1900.2501757696118 4574.076338997901
1900.9356332385796 4320.229355950862
1901.620925487574 4651.953463543869
1902.3060525576602 4491.915520264445
1902.9910144898859 4479.937479589093
1903.6758113252872 4185.443402225088
1904.3604431048789 4444.792904956559
1905.0449098696663 4442.3993739704465
1905.7292116606295 4430.908649745198
1906.4133485187394 4412.067353286007
1907.0973204849488 3925.9584653155302
1907.7811276001976 4286.154373245222
1908.4647699053967 4324.491355648897
1909.1482474414588 4217.8396391813185
1909.8315602492694 4172.274039682399
1910.5147083696957 4560.01938023162
1911.1976918436012 4305.468059050536
1911.880510711815 4183.715594639406
1912.5631650151681 4359.048354974898
1913.2456547944657 4290.306284398029
1913.927980090495 4258.294558929918
1914.6101409440362 4238.23881325034
1915.2921373958416 4277.300801549994
1915.9739694866603 4140.891707172101
1916.655637257214 4491.76739992712
1917.3371407482136 4360.964953918858
1918.0184800003572 4501.333974081501
1918.6996550543154 4399.8566907349705
1919.3806659507554 4375.038109013061
1920.0615127303208 4426.997199106816
1920.7421954336423 4489.941129780576
1921.4227141013343 4277.730666501246
1922.103068773993 4150.755697420279
1922.783259492202 4364.160868903182
1923.4632862965227 4074.415600747314
1924.1431492275078 3958.681867539989
1924.8228483256917 4089.976854550532
1925.5023836315922 4246.838339231368
1926.1817551857057 3961.6883953360475
1926.8609630285227 4427.284967245569
1927.5400072005123 4169.277350582263
1928.218887742125 4115.9695134314625
1928.8976046938005 4019.7332781732175
1929.5761580959588 4228.309448549029
1930.2545479890086 4325.913294274331
1930.9327744133352 3951.2503017849995
1931.6108374093164 4197.730562813727
1932.2887370173066 4418.421370859126
1932.9664732776473 3753.96572966545
1933.6440462306673 4224.609518921563
1934.3214559166754 3983.4651422953807
1934.9987023759659 4259.236301051279
1935.675785648813 4267.459905833572
1936.3527057754836 3792.135127454539
1937.029462796223 4424.463419634714
1937.70605675126 4052.01062053431
1938.3824876808085 4163.02011427039
1939.058755625072 3839.1700564772923
1939.7348606242267 4052.3533535780834
1940.4108027184448 4195.424919608683
1941.0865819478713 4287.2191304767575
1941.7621983526478 3889.3800815293957
1942.4376519728921 4009.701437870065
1943.1129428487038 3904.89723944054
1943.7880710201734 4128.057283715401
1944.4630365273733 4282.397524757579
1945.1378394103576 3895.351466493895
1945.8124797091714 3845.359970235683
1946.4869574638324 3795.134740052931
1947.161272714353 4063.0700453490454
1947.8354255007234 4105.44375097712
1948.5094158629272 3941.952813311388
1949.1832438409183 4113.818507339792
1949.8569094746435 4088.457077806911
1950.530412804037 4251.0481394581275
1951.2037538690092 4188.880268189279
1951.8769327094578 3917.8154939117276
1952.5499493652678 4053.3069861053386
1953.222803876306 4109.113795418467
1953.895496282421 4054.8477473848097
1954.5680266234522 4006.1307155037553
1955.2403949392155 4123.821277158085
1955.9126012695142 3780.2808448728783
1956.5846456541403 4092.006282432616
1957.2565281328643 3996.035813188839
1957.9282487454457 4050.5355746992764
1958.5998075316202 4282.26172426213
1959.27120453112 4043.830333373821
1959.9424397836501 3878.603725250584
1960.613513328908 4055.2233168064936
1961.2844252065697 4227.191144938373
1961.9551754563017 4050.819677180402
1962.6257641177453 3842.5740708397607
1963.29619123054 3824.558110747329
1963.966456834296 3868.293597391896
1964.6365609686181 3609.7669034465384
1965.306503673086 4118.966369377082
1965.976284987275 3902.42258367476
1966.645904950734 3840.3196637498527
1967.315363603002 3616.2695376604834
1967.9846609836077 3879.289064713876
1968.6537971320486 3891.608657370894
1969.3227720878222 3860.321001862683
1969.9915858904042 3736.095252449133
1970.660238579252 3917.172909232333
1971.3287301938108 3967.1600550603666
1971.997060773514 3561.6702358783796
1972.665230357772 3837.9630240051724
1973.3332389859843 3678.358406946971
1974.0010866975335 3856.7942412027273
1974.6687735317864 4004.97086237482
1975.3362995280932 3943.921161805162
1976.003664725793 3930.2887998609403
1976.6708691642052 3414.2003095503414
1977.3379128826364 3712.0453297549766
1978.004795920373 3885.572720493784
1978.6715183166925 4342.078242207443
1979.3380801108524 3620.8747503966806
1980.0044813420973 3936.2228297689444
1980.6707220496555 3635.3969609005712
1981.3368022727373 3708.9740465634
1982.0027220505417 4025.875105066659
1982.66848142225 3489.2120877629213
1983.3340804270283 3672.8210012469476
1983.999519104027 3826.8593985770503
1984.6647974923835 4023.402526923504
1985.329915631215 3960.1400049259146
1985.99487355963 3978.0717571238156
1986.6596713167146 3882.141632873018
1987.3243089415428 3781.841128565445
1987.9887864731754 4112.750597888827
1988.6531039506553 3544.134430594201
1989.3172614130071 4116.729365244477
1989.9812588992481 3807.9944020070716
1990.645096448372 3707.1807526021976
1991.3087740993633 3800.6607057079664
1991.9722918911848 3678.4875288444164
1992.635649862792 3658.5892488670274
1993.2988480531185 3891.564464173003
1993.9618865010852 3997.0548689765537
1994.6247652455968 3705.1067339925676
1995.287484325545 3489.1230601491343
1995.9500437798033 3810.228053737177
1996.6124436472292 3473.727051763936
1997.2746839666706 3994.0954915310804
1997.936764776954 3829.055918153351
1998.598686116895 3590.8229508329377
1999.2604480252903 4110.032434554325
1999.9220505409212 3513.9251796002463
2000.5834937025593 3472.509967371517
2001.2447775489582 3747.7588886324374
2001.9059021188514 3634.8834265347336
2002.5668674509616 3463.748890105683
2003.2276735839987 3715.0920754028857
2003.8883205566508 3844.7345946689893
2004.5488084075987 3625.189706864915
2005.2091371755014 3590.453503590407
2005.8693068990033 3610.663678672178
2006.5293176167397 3798.938603613985
2007.1891693673224 3457.196777496999
2007.848862189354 3372.424636776632
2008.5083961214223 3594.164867772608
2009.1677712020955 3425.685612300789
2009.8269874699254 3490.2379598543266
2010.4860449634598 3805.3439430241247
2011.1449437212177 3308.369007666821
2011.8036837817108 3792.766060123495
2012.4622651834325 3789.8886983258626
2013.1206879648653 3867.8807944617656
2013.7789521644736 3950.404886730422
2014.4370578207036 3309.742465317261
2015.0950049719922 3606.487141868929
2015.7527936567585 3731.0611203952008
2016.4104239134067 3758.7028465056487
2017.067895780323 3891.011255247767
2017.725209295886 3287.3974621490706
2018.3823644984514 4115.051210970063
2019.0393614263648 3572.5840287825463
2019.6962001179545 3400.8559273634464
2020.3528806115355 3644.017660679241
2021.0094029454067 3356.7504396668533
2021.6657671578487 3561.0799482391058
2022.321973287133 3513.709028511673
2022.9780213715148 3531.6920367252665
2023.6339114492293 3390.103129559849
2024.2896435585026 3524.38342640011
2024.9452177375442 3474.187841246712
2025.600634024544 3857.2968094819676
2026.2558924576842 3617.695921351949
2026.9109930751292 3705.0478005443265
2027.565935915025 3487.154380716941
2028.2207210155066 3825.2416445040567
2028.8753484146964 3777.353592446646
2029.529818150695 3332.7709921721857
2030.1841302615903 3616.2059515261403
2030.8382847854573 3429.4126096604296
2031.4922817603601 3424.3865310001866
2032.1461212243357 3565.708559504408
2032.7998032154192 3156.450050846083
2033.4533277716218 3489.040463871701
2034.1066949309443 3413.171561041186
2034.7599047313688 3566.6899956249517
2035.4129572108704 3852.300871969699
2036.0658524074006 3721.9452220195903
2036.7185903589016 3614.575887232554
2037.3711711032956 3587.7265720783957
2038.023594678496 3407.64396666084
2038.675861122394 3314.8693429110513
2039.3279704728757 3649.2901619465274
2039.9799227678031 3180.647695808875
2040.6317180450278 3398.680583332287
2041.2833563423865 3400.8285760358294
2041.9348376977014 3555.280249104203
2042.5861621487784 3605.325008920743
2043.2373297334088 3719.881525598328
2043.8883404893695 3558.774231557386
2044.5391944544208 3811.350845275305
2045.1898916663158 3581.095237971496
2045.8404321627804 3607.4236133028508
2046.4908159815368 3434.188269373404
2047.1410431602853 3320.937710588114
2047.7911137367173 3171.4627720358417
2048.441027748504 3547.610480762217
2049.090785233302 3277.7518423865477
2049.7403862287592 3431.8692157083788
2050.389830772503 3705.189445451558
2051.0391189021466 3120.5181769745795
2051.688250655294 3435.8089809184667
2052.337226069527 3310.7708513637167
2052.986045182417 3468.3482627730955
2053.634708031521 3068.8704549080408
2054.283214654375 3576.4659791791673
2054.931565088511 3048.1467891364373
2055.579759371436 3280.0552878601434
2056.2277975406523 3440.9927561499435
2056.8756796336384 3684.4396232555728
2057.5234056878617 3078.9273958511726
2058.1709757407752 3292.1001362266798
2058.8183898298194 3583.1353993263233
2059.465647992416 3505.736721929114
2060.1127502659747 3627.4590027912227
2060.759696687888 3087.314288415967
2061.4064872955405 3703.0433769436895
2062.053122126292 3678.6727789100646
2062.699601217497 3092.193514076755
2063.345924606485 3340.2679730611067
2063.992092330587 3589.8258144897177
2064.638104427102 3173.569522426416
2065.283960933324 3634.6508574456757
2065.92966188653 3539.634525186741
2066.5752073239855 3726.360045281797
2067.2205972829397 3190.296882253041
2067.86583180062 3358.8833971479166
2068.5109109142522 3202.258182193022
2069.15583466104 2808.7557464269985
2069.8006030781708 3471.7246217579864
2070.445216202821 3488.1382926858255
2071.089674072153 3683.496992366328
2071.7339767233116 3490.1625626048162
2072.3781241934303 3298.960691702032
2073.0221165196253 3568.8001470955687
2073.6659537390024 3438.171159939586
2074.3096358886505 3532.644486922372
2074.953163005637 3223.7543497870847
2075.596535127028 3142.2450483229222
2076.2397522898664 3278.2019615349186
2076.882814531182 3459.02197783777
2077.5257218879924 3505.950017691811
2078.1684743973 3160.6283971779726
2078.8110720960885 3237.1918692813138
2079.453515021336 3659.4522064021558
2080.095803209997 3408.743819052301
2080.7379366990135 3282.960817236056
2081.37991552532 3263.936790957717
2082.0217397258275 3389.860556077033
2082.6634093374414 3157.8542177687796
2083.3049243970418 3356.6108420416713
2083.9462849415067 3404.8106487968216
2084.587491007689 3396.8172882454064
2085.2285426324324 3382.1470956554053
2085.869439852564 3440.4420506839247
2086.510182704902 3058.3221967882937
2087.1507712262483 3327.216837848818
2087.791205453381 3115.741647534504
2088.4314854230743 3452.2580225271313
2089.0716111720867 3291.470144497209
2089.7115827371617 3063.088662412137
2090.351400155023 3134.892689330788
2090.991063462385 3206.9836491071496
2091.6305726959527 3193.7993936943976
2092.2699278924047 3492.0010758216076
2092.9091290884153 3334.667898073333
2093.548176320641 3126.8379348340104
2094.187069625721 3364.1740884456
2094.8258090402887 3062.2816839342822
2095.464394600951 3318.8247771585384
2096.102826344313 3246.2145062368704
2096.741104306955 3508.255232845233
2097.379228525453 2872.412493780088
2098.017199036358 2995.6949130633866
2098.6550158762147 3560.022194332482
2099.2926790815527 3263.038618756846
2099.9301886888825 3221.671769511051
2100.5675447347076 3258.2126595433056
2101.2047472555114 3641.6321007646684
2101.841796287761 3288.833218405854
2102.47869186792 3187.9605068140186
2103.1154340324265 3272.156109818089
2103.752022817709 3175.8625286873757
2104.388458260184 3242.423986596754
2105.024740396251 3350.867553124347
2105.660869262292 3204.3474529424466
2106.296844894685 3298.7626951035445
2106.93266732978 3350.437568563933
2107.5683366039284 2879.252996753602
2108.2038527534532 3286.628920132225
2108.8392158146726 3434.6964968707193
2109.4744258238843 3204.757141125727
2110.1094828173755 3137.8782295081614
2110.744386831422 3664.699578991257
2111.3791379022787 3322.1627755714558
2112.01373606619 3482.357843310245
2112.648181359389 3226.9684964053395
2113.28247381809 3271.136217762763
2113.916613478492 3212.241428616465
2114.550600376786 3275.637988647349
2115.1844345491445 3445.945292921003
2115.818116031729 2986.2198376511215
2116.451644860679 3273.119227569215
2117.085021072133 3078.8781402993873
2117.718244702204 3025.654487533772
2118.3513157869984 3050.3471151360322
2118.984234362604 2980.815722433346
2119.617000465092 3204.6643246351196
2120.249614130529 3400.635844454576
2120.8820753949585 2960.9822261169993
2121.5143842944162 3136.333944040778
2122.14654086492 3011.4780337809016
2122.7785451424734 3328.9900462114942
2123.4103971630702 2670.9350639215304
2124.042096962681 3340.4248346672894
2124.6736445772767 3074.749463302306
2125.305040042802 2966.569741711132
2125.936283395191 2966.897138947935
2126.567374670365 3094.5943969000664
2127.198313904233 3066.1435390238657
2127.8291011326855 2977.077883568551
2128.4597363916037 2887.4721051757706
2129.0902197168507 3045.4077599528246
2129.720551144279 2976.868019481528
2130.3507307097225 3444.653372174045
2130.980758449008 3384.5680528635144
2131.6106343979427 2995.1080187465186
2132.2403585923203 3304.8080400885506
2132.8699310679276 3367.613907665186
2133.499351860526 3263.1152062319356
2134.1286210058715 3250.9596672551806
2134.7577385397053 2992.6693694127407
2135.3867044977487 3119.3972415082067
2136.0155189157176 3482.958781843252
2136.644181829308 3267.4801183953837
2137.2726932742025 3053.1437496638964
2137.901053286074 3257.505162917516
2138.5292619005777 3120.941154149902
2139.1573191533535 3101.068000131412
2139.7852250800315 3310.074433357719
2140.4129797162295 3079.034849753856
2141.0405830975433 2896.7447138392226
2141.6680352595613 3487.0924457833257
2142.2953362378576 2947.7319830639567
2142.9224860679915 2997.3476448773686
2143.549484785508 2904.1700737012115
2144.1763324259373 3080.4153387157958
2144.803029024799 2978.1629762714592
2145.429574617594 2999.8545443550724
2146.0559692398165 3397.0679116368715
2146.682212926942 2897.889446454753
2147.308305714432 2997.694681589206
2147.9342476377333 3337.818703299552
2148.5600387322847 3272.3243792185085
2149.185679033506 3197.905754967819
2149.8111685768017 3042.0427212411014
2150.4365073975678 3058.372401485859
2151.061695531187 3009.972161548883
2151.686733013021 3140.6150992173834
2152.311619878423 3280.676574473905
2152.9363561627342 3193.2139768654542
2153.560941901278 2886.3316561939732
2154.1853771293663 3127.543880637863
2154.809661882293 3183.9565577237663
2155.433796195348 3295.2577039049406
2156.0577801037944 3320.1736640847143
2156.681613642895 3295.9215061644218
2157.3052968478896 3082.378131662836
2157.928829754006 2978.0024577366803
2158.552212396462 3134.9432858534137
2159.1754448104566 3025.6708348693023
2159.7985270311783 2881.7909339608586
2160.4214590938027 2655.5072030913702
2161.0442410334927 2558.1973019999164
2161.6668728853874 3014.986692428934
2162.289354684628 2818.630741786812
2162.911686466332 3047.627633661402
2163.533868265602 3156.550415207216
2164.1559001175337 3479.406031636926
2164.7777820572046 3256.5465951210217
2165.399514119681 2891.7161148496016
2166.021096340013 2606.8342093382535
2166.6425287532384 2768.1862660735487
2167.263811394385 2929.9640151951457
2167.8849442984574 3230.9948646401854
2168.505927500455 2852.3114356885753
2169.126761035366 3050.1029602462104
2169.7474449381552 3006.866001302397
2170.367979243778 2865.577363213818
2170.9883639871823 2984.8345443809785
2171.608599203293 2956.147412029012
2172.2286849270276 3292.670548531817
2172.8486211932886 3483.9154612218167
2173.4684080369625 3126.076479381475
2174.0880454929265 2744.7849486222703
2174.7075335960417 2904.0720119478488
2175.3268723811543 3250.2427932059063
2175.9460618831 2931.23196034162
2176.565102136701 2803.7365899758033
2177.1839931767627 2861.8520547164676
2177.802735038078 2920.162212026848
2178.421327755432 2772.280789962166
2179.0397713635866 2865.22340357956
2179.658065897298 2779.455308400862
2180.276211391305 2788.2131964303103
2180.8942078803357 2885.14888116456
2181.5120553991 3093.356417717891
2182.129753982299 2753.531697062475
2182.7473036646206 2970.0558061801166
2183.3647044807367 3025.8733166788643
2183.9819564653044 2846.468581604785
2184.599059652968 3153.0603092208694
2185.216014078367 3170.443664499666
2185.832819776113 2621.9482746834474
2186.4494767808137 3223.9387453378667
2187.065985127063 3112.3515570850514
2187.682344849436 2966.36443565132
2188.298555982501 3290.3823803735672
2188.9146185608097 3046.1057033294737
2189.530532618901 2998.300758010825
2190.1462981912937 2953.1473842151026
2190.761915312507 3073.9916782406585
2191.377384017036 3086.241010892383
2191.9927043393654 2999.160817598152
2192.6078763139667 2714.2165353992154
2193.2228999753006 2720.3464367465003
2193.837775357808 2726.5363812594487
2194.452502495922 2697.8469420844863
2195.0670814240602 2841.6842836566248
2195.6815121766285 2840.4407197501596
2196.2957947880186 2720.4539684520055
2196.9099292926057 2600.2344674852266
2197.523915724758 3036.1542711682628
2198.137754118825 2894.80948106185
2198.7514445091456 3187.455998711784
2199.3649869300443 2828.1833090659425
2199.9783814158327 3273.650634778306
2200.5916280008096 3534.9405072912386
2201.2047267192593 3218.0287997761193
2201.8176776054515 3145.81651292467
2202.430480693649 2798.533910442431
2203.0431360180955 3131.6452632282235
2203.6556436130195 3106.5322189487697
2204.268003512645 2748.2874060505887
2204.8802157511727 3136.018896315679
2205.492280362796 3157.3237555406404
2206.1041973816937 2970.163378720855
2206.715966842032 3023.598845218013
2207.3275887779655 2704.9549011987583
2207.93906322363 2885.681341801209
2208.550390213153 3048.149475608595
2209.1615697806465 2804.655616420754
2209.7726019602105 2650.5309922792117
2210.3834867859277 2748.331194332522
2210.9942242918787 2924.9499428490635
2211.6048145121167 2732.763965651762
2212.2152574806914 3533.7893289303565
2212.825553231638 2672.860623093625
2213.435701798975 3732.2509598545353
2214.045703216707 2801.759241469463
2214.655557518832 2614.028620679102
2215.2652647393297 2528.46581719488
2215.874824912169 2319.6359746951352
2216.4842380713 2829.552742869023
2217.09350425067 2632.4677039959215
2217.7026234842033 2754.0348464660724
2218.311595805819 3111.189178438185
2218.9204212494133 2747.977412248926
2219.52909984888 3078.469568981273
2220.137631638092 3152.5871667560864
2220.7460166509154 3226.6583481453986
2221.354254921198 2984.558566442046
2221.9623464827764 3005.9995228365647
2222.5702913694713 2992.9840026919906
2223.178089615096 3100.732045584877
2223.7857412534486 2668.984261742487
2224.39324631831 2680.0983822627068
2225.000604843457 2720.0031096339544
2225.607816862641 3166.8044037104432
2226.214882409611 2906.4954432334575
2226.8218015180973 2986.6764583150275
2227.4285742218217 2518.6145379573054
2228.0352005544864 2925.301902591909
2228.6416805497847 2520.052358621493
2229.248014241399 2783.58220337858
2229.8542016629945 2348.7772658051235
2230.460242848223 2963.4976179879686
2231.0661378307304 3342.479935349499
2231.671886644139 2773.8993111090776
2232.277489322065 2692.824863490219
2232.8829458981127 2437.2321576926406
2233.48825640587 3096.330455328379
2234.0934208789095 3339.990376795612
2234.6984393507955 3190.7395686351456
2235.3033118550793 3379.5394547884875
2235.9080384252975 2953.150316384365
2236.5126190949723 2537.9096548073367
2237.1170538976166 2412.830943371334
2237.721342866729 2287.5913278280154
2238.32548603579 2892.379025255309
2238.9294834382763 3041.1724782965607
2239.533335107646 2641.9785433222205
2240.1370410773434 3037.1749855462554
2240.740601380803 2787.0482981235805
2241.3440160514474 2862.7156274290555
2241.9472851226783 2976.7856283688575
2242.550408627896 3070.491911625798
2243.1533866004793 3164.406429971653
2243.756219073799 2954.867076018684
2244.3589060812064 2746.4755131566208
2244.961447656049 2779.944177297736
2245.5638438316564 2872.660366226207
2246.166094641343 2836.9112957931975
2246.7682001184166 2924.0822076827017
2247.3701602961664 2918.0786514225556
2247.971975207871 2992.192975926366
2248.5736448867974 2959.4518349113714
2249.175169366197 2904.225303283219
2249.7765486793123 2929.083382552788
2250.3777828593684 2980.5889107095227
2250.9788719395783 3093.0760596828254
2251.579815953146 2859.5670562311257
2252.1806149332606 2542.053296510012
2252.781268913097 2967.6712260493346
2253.381777925817 2480.9012357723213
2253.9821420045737 2760.4715160431297
2254.5823611825035 3049.4108493256704
2255.1824354927303 2778.948995882129
2255.782364968365 2729.150372871066
2256.38214964251 2679.3678629334786
2256.9817895482483 2685.8570198665725
2257.5812847186553 2938.6482946343544
2258.180635186791 2750.223194286095
2258.779840985704 2902.920976389086
2259.37890214843 2559.297974929925
2259.97781870799 2659.487485847426
2260.5765906973957 2759.877968520488
2261.175218149645 2777.4377334514493
2261.773701097718 3039.665731854694
2262.3720395745895 2552.473966958019
2262.970233613216 2569.692852729015
2263.568283246548 2605.0087638556524
2264.1661885075137 2759.974372807482
2264.763949429038 2775.5788371640347
2265.3615660440246 2874.613132765553
2265.959038385374 2659.4882311582155
2266.5563664859637 2799.6892991792356
2267.153550378669 2628.494825080921
2267.7505900963424 2921.393656075316
2268.3474856718312 2698.5993256188895
2268.9442371379664 2757.6577851623497
2269.5408445275643 2526.960415017641
2270.1373078734377 2807.744981580743
2270.7336272083758 2749.5517474778017
2271.32980256516 2822.900720458646
2271.925833976562 2977.5724009105925
2272.5217214753357 3153.9725579179094
2273.117465094223 2745.474426886069
2273.7130648659586 2537.5406523945176
2274.308520823257 2727.7705095097804
2274.903832998827 3086.271706323934
2275.4990014253563 2498.69841518061
2276.094026135528 3028.912537863952
2276.6889071620117 2495.638845869379
2277.2836445374614 2938.468288003097
2277.878238294519 2809.339611167156
2278.472688465812 2721.6885385417727
2279.066995083962 2633.8135455197416
2279.6611581815705 2783.072764196312
2280.255177791232 2986.9267473905356
2280.8490539455233 3191.2218665160035
2281.442786677013 3114.662746692371
2282.0363760182554 2947.9291461438515
2282.6298220017943 2725.0058214651353
2283.223124660155 2977.3625893945014
2283.816284025859 2732.4780168855573
2284.4093001314086 2941.9174392747836
2285.002173009292 2388.377829763959
2285.5949026919952 2948.845220823586
2286.1874892119777 2621.3493348738125
2286.7799326016993 2908.440266211089
2287.3722328936 2488.722285607225
2287.964390120109 2475.4359467530353
2288.556404313642 2940.6342606507997
2289.1482755066027 3176.3729116452873
2289.7400037313873 2672.6372263002745
2290.3315890203703 2679.472001652129
2290.9230314059205 3000.707307064698
2291.5143309203904 2694.8836578043492
2292.1054875961236 2652.933009392011
2292.6965014654506 2886.6626489787063
2293.287372560684 2870.513843593204
2293.878100914131 2710.8468985605346
2294.468686558086 2550.926260659364
2295.059129524827 2711.2112186685167
2295.649429846617 3093.1628913376753
2296.239587555716 3120.377177086443
2296.8296026843636 2849.0908943747854
2297.419475264791 2831.0662425280193
2298.0092053292137 2812.8323355291877
2298.598792909839 2787.9870381957903
2299.1882380388597 2818.961450391879
2299.777540748455 3210.3221380306672
2300.3667010707904 3092.128090056766
2300.9557190380256 2792.3260515047905
2301.544594682302 2630.921019599617
2302.1333280357503 3216.9175969466114
2302.721919130485 3065.2193533367326
2303.3103679986198 3063.869140553589
2303.898674672242 3067.6351813212946
2304.486839183437 2472.7158491563014
2305.0748615642697 3031.1484017762255
2305.6627418468015 2524.4200829661218
2306.2504800630704 2580.532508462804
2306.8380762451143 2758.1391071328735
2307.425530424949 2794.502313470186
2308.012842634582 2830.9272145733094
2308.6000129060103 3105.144759037361
2309.187041271214 3311.7621778532193
2309.773927762164 2821.1486334735864
2310.3606724108213 2995.480886576453
2310.9472752491274 2464.343843671245
2311.5337363090184 2991.3920159648596
2312.120055622414 2818.5952028766274
2312.706233221221 2535.729551469171
2313.2922691373424 2293.0937755552177
2313.8781634026564 2425.5106575243926
2314.463916049037 2558.2138399045366
2315.049527108342 3016.805359475619
2315.6349966124235 3092.8114784168183
2316.2203245931123 2982.671855051668
2316.8055110822315 2462.9486000767947
2317.3905561115935 2715.1698795591515
2317.9754597129977 2523.033097268046
2318.560221918229 3045.7758044809734
2319.1448427590603 2656.40076983338
2319.729322267256 2314.3488471325027
2320.313660474563 2872.21699302062
2320.8978574127195 3503.206599176163
2321.481913113452 2806.50979394618
2322.0658276084705 2460.0482146679524
2322.6496009294806 2630.6076289506263
2323.233233108165 3104.503179616121
2323.8167241762058 2845.8187955096823
2324.4000741652617 2889.976063291703
2324.983283106987 3095.3246334962378
2325.5663510330232 3191.56615937671
2326.1492779749933 2843.12699597524
2326.7320639645204 2700.920260445454
2327.3147090332004 2446.7752936075335
2327.897213212629 2635.085550128869
2328.4795765343843 2823.454499440299
2329.0617990300307 2576.731686230118
2329.643880731124 2980.87472680263
2330.22582166921 2965.9753121384015
2330.807621875816 2961.428784069946
2331.3892813824623 2538.432252256132
2331.9708002206517 2484.76129472332
2332.5521784218818 3217.4833070920145
2333.133416017634 2914.7799424900554
2333.7145130393765 2711.9323678833566
2334.295469518571 2852.857312139073
2334.876285486658 2890.082925674749
2335.456960975076 2473.250152378597
2336.037496015242 2884.577393032882
2336.6178906385667 2631.1847759846855
2337.198144876451 2952.9392478006866
2337.778258760278 2500.1260599560433
2338.3582323214214 2329.605676638821
2338.938065591243 3111.144430608139
2339.517758601087 2963.1561396735456
2340.0973113822965 2697.5509343697076
2340.676723966193 2507.1814398719353
2341.255996384094 2692.7777137307608
2341.835128667295 2989.3540594920314
2342.4141208470883 2769.195227272288
2342.992972954751 2732.18697027846
2343.5716850215467 2771.35982845879
2344.1502570787306 2728.0950167688607
2344.7286891575386 2684.6114697614867
2345.3069812892045 2947.7286850048013
2345.885133504944 2896.1363346639164
2346.4631458359618 2570.885778140531
2347.04101831345 2753.794435632845
2347.6187509685915 3053.640165488288
2348.196343832553 2535.6267493586047
2348.7737969364935 2593.024923105495
2349.351110311558 2774.5596242197134
2349.9282839888765 2736.1870843930656
2350.5053179995757 2512.4899295102664
2351.0822123747585 2383.111733331873
2351.658967145526 2443.7284180779307
2352.2355823429643 2504.5898788220447
2352.812057998144 2778.9206960345155
2353.3883941421263 2491.794936111286
2353.9645908059647 2861.861169319536
2354.540648020693 2901.8757132522246
2355.116565817336 2522.635889073317
2355.6923442269126 2543.061766011985
2356.2679832804224 2468.1458652607157
2356.8434830088518 2454.881566276098
2357.41884344318 2611.3932416353155
2357.994064614377 2364.182430530834
