#exp_cfg={"servo_angle": 0.0, "laser_lim": 100.0, "servo_angle_to": 18.0, "laser_wup": 0.0, "bt_dev": "EnSpectr-25AE3", "laser_wdn_max": 0.0, "frames": 10.0, "servo_used": 0, "servo_calib_use": 0, "laser_wdn_min": 0.0, "servo_pix_from": 90.0, "cooler_tout": 300.0, "servo_angle_from": 0.0, "servo_calib": "[-1.9174921013161362e-09, 3.9322238269163779e-05, -0.27385609119055809, 653.59552119713567]", "laser_autoctl": 0, "servo_pix_to": 3682.0, "laser_pw": 100.0, "cooler_on": 0, "laser_volt": 4.0, "cooler_autoctl": 0, "cooler_curr": 70.0, "cooler_startup": 10.0, "laser_fixed_pw": 0, "gain": 1.3, "offset": 2.53059635486, "servo_calib_degree": 3.0, "laser_curr": 55.0, "shutter": 8200.0, "servo_calib_step": 1.0, "laser_fixed_curr": 0, "exp": 2000.0, "ccd_volt": 4.7, "bt_addr": "00:06:66:62:5A:E3", "servo_delay": 500.0, "laser_autooff": 1}
#proc_cfg={"flat_auto_wnd": 200.0, "flat_auto_fr": 200.0, "flat_auto_shift": 5.0, "yconv": 1, "flatten": 1, "flatten_strength": 100.0, "xfrom": 300.0, "auto_max_frame": 2000.0, "auto_signal": 48000.0, "flat_auto_tol": 0.1, "autoclip": 1, "xrel_range": 0.0, "flat_auto_to": 4000.0, "intensity_adj": 1.0, "xrel": 7852.0, "rmhot": 1, "flat_auto_slit": 4.999999999999997, "auto_ini_exp": 300.0, "auto_off": 0, "xto": 2860.0, "flat_auto_ref": "", "flat_auto_rank": 1, "autobackg": 0, "xrel_adj": 0.0, "auto_black_lvl": 1, "base_wnd": 100.0, "sub_baseline": 0, "xconv": 2, "auto_max_exp": 1000.0, "auto_total_exp": 10000.0, "auto_exp": 0, "rmripple": 0, "black_lvl": 8267.8625, "shutter_clip_adj": 0.0, "auto_bckg": 0, "flat_auto_thr": 0.9, "subbackg": 1}
316.8218498245369 15040.675034065029
317.89969571804795 15007.371944110108
318.977263876126 14888.63504337238
320.05455438786703 14743.752468498806
321.1315673423287 14761.541567736636
322.2083028285215 14777.02669664648
323.2847609354267 14560.305974947038
324.3609417519747 14555.670748369803
325.43684536705587 14569.707442711293
326.5124718695279 14364.726978432202
327.58782134820103 14504.030396375389
328.66289389184385 14331.406777132255
329.7376895891921 14207.154606580682
330.8122085289342 14303.417184368625
331.88645079971866 14256.894647125304
332.9604164901575 14153.534206333052
334.03410568881554 14078.760140323046
335.1075184842266 14155.133979409884
336.18065496487543 14009.48160233337
337.2535152192122 14074.366431351023
338.32609933564163 14056.855102566153
339.39840740253203 13927.131037254128
340.4704395082099 13774.666567260423
341.5421957409617 13801.738477093915
342.6136761890357 13900.998632690153
343.6848809406365 13760.149080772919
344.75581008392874 13667.139007079915
345.82646370703696 13680.579749268887
346.8968418980512 13644.406824409414
347.96694474501055 13621.415629867886
349.0367723359268 13592.69894020533
350.106324758759 13491.358840336752
351.1756021014353 13507.78302181853
352.2446044518383 13406.77632135648
353.31333189781435 13549.144533645256
354.38178452716966 13440.430185530018
355.449962427665 13471.680651927678
356.51786568702846 13436.9964661442
357.58549439294256 13584.404289905424
358.6528486330535 13638.127796695053
359.71992849496564 13485.46552977071
360.7867340662433 13504.517735098789
361.8532654344144 13520.77168077587
362.9195226869597 13596.445073727586
363.9855059113288 13364.533534481083
365.05121519492604 13421.7332775313
366.11665062511565 13501.633940749976
367.1818122892273 13534.103037243365
368.2467002745434 13542.441850156392
369.31131466831175 13553.055777216738
370.375655557742 13566.577533668422
371.4397230299983 13613.0545129226
372.5035171722102 13568.266119505639
373.5670380714637 13487.54702457627
374.6302858148101 13733.984702070584
375.6932604892554 13698.682554057936
376.7559621817709 13696.837751340805
377.81839097928605 13548.608409324876
378.8805469686886 13622.709891563896
379.94243023683157 13590.708654163205
381.0040408705263 13582.084437172462
382.0653789565458 13451.919450401523
383.1264445816196 13548.141534017108
384.1872378324406 13485.00082094642
385.2477587956637 13542.166490530426
386.3080075579037 13471.624964034005
387.3679842057336 13430.300656099625
388.4276888256918 13407.79808763725
389.48712150426945 13351.99581186556
390.54628232792857 13359.402920802962
391.6051713830857 13256.22777705412
392.66378875611736 13375.014398350595
393.7221345333637 13335.136933739286
394.7802088011249 13149.421703605174
395.838011645661 13253.58258532786
396.89554315319765 13151.83089716995
397.9528034099112 13150.603409484338
399.00979250194723 13056.366353544323
400.06651051541485 13157.991367658364
401.1229575363741 13079.539795598956
402.17913365085224 12959.837663692368
403.23503894483656 13039.551778089446
404.2906735042761 12894.390027386598
405.3460374150818 12875.325190069778
406.401130763119 12936.07659716179
407.455953634224 12956.505029055304
408.5105061141876 12931.216391830845
409.56478828876243 12708.14854162521
410.6188002436629 12667.826259827918
411.6725420645689 12665.923298459707
412.72601383711117 12847.209727002166
413.77921564689314 12791.900706467577
414.8321475794728 12628.290630576961
415.88480972036814 12609.767819009654
416.93720215506437 12718.611129959994
417.9893249690049 12512.45218315264
419.04117824759123 12448.704194657525
420.09276207619223 12495.407279243209
421.144076540133 12514.733245437808
422.1951217247042 12439.985419188539
423.24589771515275 12470.422460411759
424.2964045966928 12344.076866269927
425.34664245449494 12359.965318454902
426.3966113736933 12324.231156882044
427.4463114393875 12339.53829356076
428.49574273662984 12299.294823121061
429.5449053504417 12274.046431903815
430.5937993658026 12329.496483166118
431.6424248676558 12185.039785899517
432.6907819409007 12154.01712876645
433.73887067040596 12120.68132565144
434.7866911409965 12203.303903073935
435.8342434374608 12128.0709663704
436.88152764455117 12052.086143565179
437.9285438469724 12052.303144358131
438.9752921294057 11988.2314210273
440.02177257648145 11965.300301726027
441.06798527279716 11939.884465764086
442.1139303029122 11990.924590910008
443.1596077513459 11986.073295462189
444.2050177025794 11940.575155619363
445.25016024105753 11987.152492335314
446.2950354511886 11930.425544964153
447.33964341733736 11919.74833149204
448.383984223834 11884.906615824486
449.4280579549686 11840.131317315263
450.471864694995 11808.278744556232
451.5154045281306 11873.38494311029
452.5586775385509 11794.891038345397
453.60168381039693 11735.36258913393
454.64442342776783 11879.669292655035
455.6868964747264 11810.099965697256
456.7291030353008 11773.114361768161
457.77104319347563 11752.31243262153
458.8127170332027 11800.761524146395
459.854124638392 11665.28784605602
460.895266092919 11810.565694061515
461.93614148061897 11870.461805025834
462.97675088529104 11861.839725497151
464.01709439069236 11738.913520410932
465.0571720805492 11752.544674688084
466.0969840385442 11811.282008725131
467.1365303483253 11899.08421283426
468.17581109350067 11773.835298235614
469.2148263576437 11830.787576795994
470.2535762242878 11906.941868391961
471.29206077693016 11954.048423004695
472.33028009902773 11927.564707084148
473.3682342740012 12016.382978717864
474.40592338523857 11984.754650774968
475.4433475160804 12076.438182757305
476.4805067498364 12084.288371012797
477.51740116978 12218.851568928
478.5540308591426 12324.97077540673
479.59039590112116 12477.911298610841
480.6264963788726 12517.451873337663
481.6623323755193 12748.40103059292
482.6979039741436 12797.02576505738
483.7332112577915 13125.194852144186
484.76825430947247 13425.028092011355
485.80303321215797 13477.184378798003
486.837548048783 13643.844175323811
487.8717989022425 14012.787405291925
488.90578585539697 13979.382962194719
489.9395089910686 14143.496237322746
490.97296839203955 14121.437209846199
492.00616414106116 14013.365533574522
493.0390963208429 14037.239341153105
494.0717650140559 14030.251585925125
495.10417030333883 13807.06290560013
496.1363122712901 13815.695561240174
497.16819100046814 13661.949105741081
498.1998065734024 13422.722289473462
499.2311590725767 13307.310649806832
500.26224858044407 13056.790573378928
501.2930751794156 12966.746581574056
502.3236389518679 12792.186269180269
503.35393998014115 12563.725304614467
504.38397834653733 12501.291317916923
505.4137541333221 12462.223320552095
506.4432674227228 12207.421873474425
507.4725182969323 12191.20370746306
508.5015068381035 12057.75624478836
509.53023312835467 12056.334354303854
510.55869724976765 11943.623803996286
511.58689928438434 11797.544977565154
512.6148393142121 11829.22694522768
513.6425174212218 11916.567235862056
514.6699336873462 11874.956190708723
515.6970881944835 11867.732684108505
516.7239810244901 11899.420468639928
517.7506122591931 11827.071378036984
518.7769819803761 11850.68269028945
519.8030902697901 11861.712505606582
520.8289372091476 11868.465180094745
521.8545228801249 12058.952307880032
522.8798473643619 11896.093458551826
523.9049107434621 11870.752311708462
524.9297130989908 11979.75760445149
525.9542545124805 11877.891671326443
526.9785350654201 11861.762634245491
528.0025548392696 11903.499371310767
529.0263139154504 11800.078167238407
530.0498123753423 11808.749405353552
531.073050300296 11792.116383342558
532.0960277716204 11703.426455552948
533.1187448705896 11733.421200826526
534.1412016784416 11631.489756323635
535.1633982763833 11610.442117515824
536.1853347455726 11594.14083501643
537.2070111671401 11473.558704458326
538.2284276221817 11458.402677710577
539.2495841917516 11383.946100965808
540.2704809568677 11212.613405531194
541.2911179985167 11304.222590947835
542.3114953976419 11195.702239930895
543.3316132351592 11075.891084952475
544.3514715919409 10980.32440403804
545.3710705488247 11073.050183297755
546.3904101866156 10938.213955667543
547.4094905860784 11040.434227949643
548.4283118279418 10966.058694998723
549.4468739929034 11024.08377306224
550.4651771616191 10908.302868255718
551.4832214147063 10803.659934788888
552.501006832761 10917.616384952129
553.5185334963226 10811.667986407372
554.5358014859103 10905.44797953674
555.5528108820035 10817.648957782625
556.5695617650363 10767.603877469213
557.5860542154242 10829.609903477354
558.6022883135283 10770.05423923988
559.6182641396881 10663.225692768645
560.6339817741991 10753.092614753921
561.6494412973225 10793.961878927254
562.6646427892883 10739.266510016121
563.6795863302796 10641.73158010577
564.694272000459 10689.475531514
565.7086998799423 10749.888646931588
566.7228700488104 10740.9232848911
567.7367825871115 10712.272610210788
568.7504375748576 10698.339637859684
569.7638350920224 10659.679941773058
570.7769752185486 10704.371955172915
571.7898580343353 10829.29855870061
572.802483619258 10756.39320302755
573.8148520531431 10913.802828480304
574.8269634157932 10901.73512206103
575.8388177869692 10917.069898812815
576.8504152463938 10942.607965662217
577.8617558737587 11159.144332130232
578.8728397487175 11036.352842107988
579.883666950891 11138.161320324167
580.8942375598654 11221.156429258179
581.9045516551851 11464.549429968269
582.9146093163617 11596.2544359605
583.924410622878 11584.060925431459
584.9339556541727 11682.256340031023
585.9432444896538 11891.62891874608
586.9522772086875 11703.744528367173
587.9610538906127 11866.70121701427
588.9695746147318 11729.39910695122
589.9778394603054 11764.034010246545
590.985848506567 11719.689810399792
591.9936018327098 11647.400037767085
593.0010995178891 11404.898836334436
594.0083416412344 11483.443771517686
595.0153282818283 11213.269598971767
596.0220595187293 11204.053659204488
597.0285354309508 11144.949432306172
598.0347560974806 11040.203440616537
599.0407215972609 10937.5929805299
600.0464320092051 10864.284106856912
601.0518874121954 10911.927977207622
602.0570878850685 10816.678231160633
603.062033506636 10781.418570033318
604.0667243556636 10805.39291717797
605.0711605108936 10679.474950093583
606.0753420510264 10865.260770107334
607.0792690547278 10859.780866604515
608.082941600629 10714.021708051216
609.0863597673306 10651.899128565201
610.0895236333909 10829.122356313379
611.0924332773357 10961.9610052571
612.0950887776617 10973.322337596826
613.0974902128219 11007.101397393762
614.0996376612384 11257.89316712322
615.1015312013005 11245.63299094527
616.1031709113595 11368.694137237813
617.1045568697336 11354.884555467837
618.1056891547069 11606.11633410746
619.1065678445229 11785.894029758256
620.1071930173985 12035.814081176672
621.1075647515099 12213.595229240285
622.1076831250048 12459.316245374446
623.1075482159849 12657.581296392853
624.1071601025305 12801.233851843805
625.1065188626781 13077.625218424617
626.105624574433 13401.913974234654
627.1044773157682 13628.642869047035
628.1030771646128 13816.009021783659
629.1014241988742 14010.78544778043
630.0995184964158 14262.698751273221
631.0973601350688 14308.70507758441
632.0949491926294 14638.2151898103
633.0922857468631 14483.099686533049
634.089369875499 14600.29010240251
635.0862016562278 14451.678505713722
636.0827811667077 14436.245036661709
637.0791084845641 14261.851408616567
638.0751836873878 14046.859319969508
639.0710068527369 14139.299093902377
640.0665780581294 13813.520513407426
641.0618973810506 13605.39996124311
642.0569648989604 13483.002524105968
643.0517806892676 13139.921691636244
644.0463448293649 12992.144289296124
645.040657396592 12746.973786130806
646.0347184682723 12534.778496061394
647.0285281216875 12247.255865130766
648.0220864340772 12126.13392609193
649.0153934826558 11957.75147359998
650.0084493446047 11797.695085505957
651.0012540970674 11563.314708600657
651.9938078171526 11455.218381523999
652.9861105819346 11259.342620299785
653.9781624684565 11287.656157788182
654.9699635537254 11028.58903197928
655.9615139147136 10907.77982677617
656.9528136283589 10748.830557108025
657.9438627715699 10830.558767825396
658.9346614212154 10703.871085978944
659.925209654135 10460.92556133421
660.9155075471263 10506.617767601958
661.9055551769616 10457.210829776024
662.895352620375 10456.458004513344
663.8848999540678 10277.895632461405
664.8741972547068 10183.809503042958
665.863244598926 10253.07451840146
666.8520420633213 10236.257288690631
667.8405897244611 10073.115856807764
668.8288876588758 10003.27515077121
669.8169359430613 10177.355795677608
670.8047346534822 10071.385038191245
671.7922838665672 10004.759954672661
672.7795836587156 10051.271985700567
673.766634106285 10161.329217266439
674.7534352856092 10059.457313400158
675.7399872729766 10088.325880586894
676.7262901446538 10060.43327001543
677.712343976862 10153.497474642214
678.6981488457986 10153.194636674922
679.6837048276229 10084.839904103645
680.6690119984596 10186.547923846036
681.6540704344043 10087.741436870483
682.6388802115107 10077.830957749471
683.6234414058108 10186.01794685748
684.6077540932874 10026.971789915784
685.591818349907 9997.928838357248
686.575634251587 9938.305584948439
687.5592018742263 9960.93766109378
688.5425212936734 9848.847563197776
689.5255925857564 9941.42348789926
690.5084158262707 9857.052684276814
691.4909910909646 9791.931600278967
692.4733184555644 9623.550545648539
693.4553979957618 9705.254614415882
694.4372297872123 9653.863387181756
695.4188139055404 9551.527202096857
696.4001504263324 9568.864963219208
697.3812394251509 9606.6588611899
698.3620809775111 9545.266949327002
699.3426751589104 9521.706407641395
700.3230220448004 9370.23344962758
701.3031217106054 9461.610146597493
702.2829742317172 9568.698573688565
703.2625796834873 9398.590536678395
704.2419381412474 9359.610210250394
705.22104968028 9415.278904772586
706.1999143758458 9321.802909944394
707.178532303169 9398.394672848364
708.1569035374378 9327.801421176748
709.1350281538107 9338.50301317074
710.1129062274158 9282.251676439171
711.0905378333373 9492.34021603331
712.0679230466376 9376.822703885238
713.0450619423427 9561.169499666206
714.0219545954424 9564.36923139975
714.9986010808989 9511.185867310116
715.9750014736292 9577.592026637703
716.9511558485392 9688.824622173179
717.9270642804786 9769.31284179294
718.9027268442787 9893.321970974222
719.8781436147328 9762.621313857675
720.8533146666014 9770.58118196377
721.828240074612 9779.193353265719
722.8029199134635 9711.307948943027
723.7773542578125 9708.558677873669
724.751543182294 9719.268348181984
725.7254867615029 9638.003064185854
726.6991850700015 9558.524267914352
727.6726381823228 9553.640816555877
728.6458461729599 9534.573661481969
729.6188091163858 9484.348008393656
730.5915270870246 9476.391050844531
731.5640001592856 9408.311635393462
732.536228407529 9479.871334528241
733.5082119060917 9474.525409019549
734.4799507292755 9438.897930241634
735.4514449513481 9388.531286236082
736.4226946465496 9476.804437079694
737.3936998890786 9555.449926508825
738.3644607531078 9420.49764632352
739.3349773127793 9418.871620715825
740.3052496421951 9422.837739056782
741.27527781543 9277.55095439495
742.2450619065221 9324.056482109578
743.2146019894826 9328.39313633942
744.183898138288 9318.410561321009
745.1529504268801 9216.351990069837
746.1217589291682 9193.671301558139
747.0903237190341 9037.73039494058
748.058644870318 9124.427263507461
749.0267224568397 8969.715478643888
749.994556552374 8950.126033926586
750.9621472306771 9001.650678977401
751.9294945654583 8976.146175187238
752.8965986304011 9004.098667814987
753.8634594991636 8984.294792498524
754.8300772453586 9052.362655046663
755.7964519425768 8960.312115913408
756.762583664371 9109.933203928793
757.7284724842611 9078.667970912442
758.6941184757416 8954.344840382972
759.6595217122667 8976.68184324494
760.6246822672638 9050.483404191657
761.5896002141235 8958.261219346521
762.5542756262093 8996.118163857838
763.5187085768503 9092.440541659185
764.4828991393406 9020.01365734731
765.4468473869474 9015.015938976805
766.4105533929032 8836.769937371828
767.3740172304078 8900.666316551482
768.3372389726283 8940.467130319894
769.3002186926988 8791.558898558069
770.2629564637282 8761.055838089971
771.2254523587872 8771.53981772241
772.1877064509154 8643.950178288553
773.1497188131179 8585.855785082922
774.1114895183728 8433.174621766597
775.0730186396268 8481.894783727486
776.0343062497905 8491.91852625822
776.9953524217381 8446.747231011348
777.9561572283274 8443.154244427533
778.9167207423689 8430.51073988083
779.8770430366476 8437.183622443783
780.8371241839159 8355.658703279198
781.7969642568951 8364.689456155855
782.7565633282757 8515.09647434334
783.7159214707099 8287.459271417756
784.6750387568281 8329.78441479261
785.6339152592227 8355.86518724014
786.5925510504512 8330.58146359461
787.5509462030477 8333.389720448495
788.5091007895098 8293.506191233146
789.4670148823006 8267.19801507201
790.4246885538596 8283.912057625526
791.3821218765861 8285.99918460318
792.3393149228505 8244.647492838943
793.2962677649975 8351.200872055295
794.2529804753303 8411.054016024536
795.20945312613 8465.384187565895
796.1656857896378 8401.08551892384
797.1216785380675 8469.218186896713
798.0774314435985 8546.398965107373
799.0329445783846 8714.351671353197
799.9882180145414 8678.00828987313
800.9432518241574 8651.947764373059
801.89804607929 8860.959801536948
802.852600851962 8866.20908875109
803.8069162141637 8923.484869687012
804.760992237856 9033.144457248865
805.714828994971 9118.213473758695
806.6684265574077 9172.96470255063
807.6217849970271 9109.514661950996
808.574904385674 9101.911252973365
809.527784795142 9173.830681356521
810.4804262972102 9218.516822875064
811.4328289636178 8985.596304247558
812.3849928660748 8901.601886009199
813.3369180762638 8887.967343862994
814.2886046658241 8832.452330598999
815.2400527063783 8640.89192039751
816.1912622695108 8549.0732825705
817.1422334267718 8556.176564198271
818.0929662496856 8454.797810374926
819.0434608097457 8331.351135955743
819.9937171784059 8143.714920548878
820.9437354271013 8086.895725318614
821.8935156272255 8064.296512150568
822.8430578501484 7946.465727805121
823.7923621672016 7835.803431986891
824.7414286496896 7893.724842193786
825.6902573688876 7876.770886158798
826.6388483960363 7856.497648664912
827.5872018023492 7717.824727432829
828.5353176590033 7763.196717564015
829.4831960371503 7631.896539991947
830.4308370079016 7655.224835197894
831.3782406423525 7699.16432618902
832.3254070115545 7638.396290466815
833.2723361865319 7496.170948755626
834.2190282382799 7654.728526609472
835.1654832377644 7646.585738064292
836.1117012559116 7548.478812300811
837.0576823636256 7681.149852258306
838.003426631778 7615.1042087
838.9489341312074 7497.873585437046
839.8942049327197 7591.587865113887
840.8392391070975 7701.187077894834
841.7840367250865 7556.004593880913
842.7285978573982 7456.64095931611
843.672922574724 7617.105119529496
844.6170109477152 7499.884486756988
845.560863046996 7587.122770063234
846.5044789431595 7530.688099347377
847.4478587067697 7528.743015878703
848.3910024083561 7562.199700489623
849.333910118421 7567.174938982726
850.2765819074339 7524.252417684457
851.2190178458332 7585.076600365823
852.161218004032 7626.335740073878
853.1031824524016 7630.82389022782
854.0449112612987 7551.6598996198445
854.9864045010327 7652.3504282106105
855.9276622418947 7518.76647436777
856.8686845541379 7579.17102430157
857.8094715079915 7527.984564339975
858.7500231736467 7618.733060861686
859.690339621271 7565.037036570948
860.6304209209939 7618.309984577155
861.5702671429244 7545.807128403314
862.5098783571284 7622.250868471965
863.4492546336569 7654.909425896379
864.3883960425155 7568.049561428998
865.3273026536863 7574.488247537546
866.2659745371238 7620.752641257648
867.2044117627465 7801.83503860285
868.1426144004472 7624.906934565345
869.0805825200823 7715.2225641262685
870.0183161914847 7845.540268225412
870.9558154844526 7966.569024189023
871.8930804687552 7939.4302197264315
872.8301112141307 7931.782351998666
873.7669077902865 8145.248084785628
874.7034702669062 8140.577727785228
875.6397987136315 8164.026912455731
876.5758932000863 8174.680041141886
877.5117537958522 8269.129684194828
878.4473805704911 8269.1327314451
879.3827735935283 8241.016717086719
880.3179329344603 8454.866321082625
881.2528586627541 8425.92773685037
882.1875508478479 8407.393992543693
883.1220095591489 8304.183683857653
884.0562348660296 8301.22271835024
884.9902268378391 8388.085043501316
885.9239855438955 8349.428727952392
886.8575110534839 8221.19026330011
887.7908034358588 8283.59782581372
888.7238627602474 8218.842449030291
889.6566890958475 8171.461571712631
890.5892825118208 7966.600033631623
891.5216430773125 8026.685157917386
892.4537708614189 7940.436788789528
893.3856659332196 7846.2539147256775
894.3173283617652 7677.081219656495
895.2487582160684 7791.561274506768
896.179955565116 7700.804339447964
897.110920477864 7549.180484583997
898.0416530232451 7478.6521646266
898.9721532701478 7396.6535649529615
899.9024212874428 7538.05559332606
900.8324571439662 7374.744009785289
901.7622609085302 7335.785546080035
902.6918326499072 7251.126830123314
903.6211724368477 7367.857044488049
904.5502803380696 7289.352818493787
905.4791564222614 7379.063505113217
906.4078007580792 7253.949985333433
907.3362134141571 7251.094956348216
908.2643944590909 7274.221489696715
909.1923439614493 7203.636243281697
910.1200619897754 7180.669021843067
911.0475486125779 7262.490616276741
911.9748038983344 7076.712493920606
912.9018279155007 7140.09693001462
913.8286207324982 7087.720444379012
914.7551824177117 7108.218670480144
915.6815130395116 6998.181524768561
916.6076126662283 7051.499593094707
917.533481366163 7031.673148770421
918.4591192075914 7018.4356207991
919.3845262587565 7145.117597835002
920.3097025878706 7031.738493380575
921.2346482631237 6990.80234574544
922.1593633526682 7042.94904904962
923.0838479246304 7082.933093130379
924.0081020471061 7132.961539496384
924.9321257881656 6975.154142293417
925.8559192158464 6971.0582307939185
926.7794823981512 6938.304105192174
927.7028154030686 6982.792533319816
928.6259182985414 6845.38017296974
929.5487911524906 7087.389644228069
930.4714340328119 7080.826211063453
931.3938470073608 6880.8930495989025
932.3160301439748 6992.963150799616
933.2379835104548 6917.484524614423
934.1597071745709 7055.230215360306
935.0812012040769 7019.13939759638
936.002465666681 6969.614311074302
936.9235006300696 7029.255423009633
937.8443061619055 7057.075257148953
938.7648823298077 6925.255842516985
939.6852292013809 7005.4995906491185
940.6053468441951 7043.987756332246
941.5252353257874 6911.755351854503
942.4448947136698 6988.685936117076
943.364325075323 6941.426111314615
944.2835264782043 7015.5410154157
945.2024989897309 6914.946601161045
946.1212426773054 6980.435317802284
947.0397576082851 6985.807549824417
947.9580438500125 7016.391497455431
948.8761014697939 7056.194353842538
949.7939305349064 7048.1717138869135
950.7115311125999 6956.219749444334
951.6289032700952 6941.726653405794
952.5460470745875 7047.8105924163565
953.4629625932339 7011.8643705747045
954.3796498931715 7131.9947218078
955.2961090415029 6991.931680986748
956.2123401053068 7048.142301613516
957.1283431516276 7010.187083658968
958.0441182474842 6964.737140683728
958.9596654598663 7081.739498388246
959.8749848557309 6998.832182160921
960.7900765020167 6920.4436599902965
961.7049404656209 6947.399103201351
962.6195768134185 6953.989266802612
963.5339856122537 6959.585043703444
964.4481669289453 6922.923118817013
965.3621208302793 6929.204645644667
966.2758473830145 6848.250575567436
967.1893466538822 6946.693213089539
968.1026187095813 6914.689249701791
969.0156636167867 7017.460097893896
969.9284814421426 6956.908754947946
970.8410722522622 6977.661753266977
971.753436113735 6827.24679607703
972.6655730931161 6880.703582313159
973.5774832569368 6994.978069204828
974.4891666716958 6800.707449964914
975.4006234038698 6715.993377418597
976.3118535198955 6780.581454009461
977.2228570861935 6911.830779847049
978.1336341691494 6902.840635836641
979.0441848351202 6836.039141620284
979.9545091504333 6890.1759422101695
980.864607181391 6952.521257659915
981.7744789942699 6919.074774877119
982.6841246553086 6896.525070363267
983.5935442307236 6882.062774165493
984.5027377867027 6967.609071824118
985.4117053894024 6971.910500397507
986.3204471049557 6883.507181369983
987.2289629994648 7079.848717723243
988.1372531390007 7140.275169116301
989.0453175896091 6953.832117574573
989.9531564173067 7077.917521729282
990.860769688079 6964.44641358378
991.7681574678918 7049.825659769061
992.6753198226706 7040.097980085276
993.582256818323 7112.156583627482
994.4889685207218 7120.095850264683
995.3954549957143 7213.485120729046
996.301716309119 7229.371797061869
997.2077525267232 7222.781396220537
998.1135637142943 7183.634694724412
999.0191499375615 7322.234273409663
999.924511262232 7301.636702677909
1000.8296477539861 7384.111218755558
1001.7345594784656 7254.448058831794
1002.6392465012996 7354.5421062693185
1003.5437088880753 7329.7823915178205
1004.4479467043584 7228.689578675932
1005.3519600156869 7211.770441261537
1006.2557488875718 7323.996760729002
1007.1593133854858 7257.551557707762
1008.0626535748888 7256.896687438998
1008.9657695212009 7188.551006715602
1009.8686612898182 7331.580009022317
1010.7713289461135 7248.718161312756
1011.6737725554212 7247.808846813929
1012.5759921830577 7188.155239384109
1013.4779878943027 7228.482784006138
1014.379759754418 7270.4380440926225
1015.2813078286254 7131.9853972114015
1016.18263218213 7008.88761992521
1017.0837328801026 7093.292331750815
1017.9846099876886 7117.545788530358
1018.8852635700023 7069.66095152881
1019.7856936921362 6940.477101479487
1020.6859004191447 7060.008591359062
1021.5858838160675 7035.425888321753
1022.4856439479063 6905.1661226506185
1023.3851808796389 6831.293166328901
1024.2844946762143 6988.271504994596
1025.183585402554 6905.415525137748
1026.082453123554 6808.782111519555
1026.9810979040776 6882.592273734423
1027.8795198089647 6788.001827163597
1028.777718903024 6899.750445700847
1029.6756952510368 6729.122285508058
1030.5734489177648 6763.696870318299
1031.4709799679313 6863.710829639182
1032.3682884662358 6996.856203778761
1033.2653744773506 6732.000369223361
1034.1622380659192 6900.224134528196
1035.058879296559 6931.866569896998
1035.9552982338591 7035.606709677419
1036.8514949423825 6896.526113619619
1037.7474694866614 6903.165256289433
1038.6432219312028 6955.548834546411
1039.5387523404825 6942.88403054963
1040.4340607789582 7035.481700429382
1041.3291473110476 6996.616324337466
1042.2240120011465 7175.2943788316425
1043.1186549136273 7164.540830469455
1044.0130761128294 7107.255996773177
1044.9072756630649 7242.854603559499
1045.8012536286205 7379.2832100649075
1046.6950100737577 7376.7279601464015
1047.588545062701 7379.175022950658
1048.481858659663 7421.029622414244
1049.3749509288118 7603.335172497095
1050.2678219343034 7479.779935382862
1051.1604717402515 7480.399315596124
1052.0529004107575 7482.423456245204
1052.9451080098825 7569.870174002492
1053.8370946016694 7463.750108875783
1054.7288602501267 7588.305298217463
1055.6204050192446 7435.5011468180455
1056.511728972977 7559.770817344814
1057.402832175254 7546.351445384554
1058.2937146899785 7440.021733453385
1059.1843765810263 7381.775840880824
1060.0748179122456 7539.672913638798
1060.9650387474576 7401.305179391081
1061.855039150456 7426.487113356832
1062.7448191850071 7331.362807845451
1063.6343789148505 7292.516662128881
1064.5237184037014 7345.163422655712
1065.412837715241 7171.483033784518
1066.3017369131267 7174.615912934401
1067.190416060992 7221.0793485121785
1068.0788752224398 7130.345621122155
1068.9671144610438 7103.595528936397
1069.8551338403558 7108.894555083054
1070.7429334239023 7206.16991145002
1071.6305132751695 7010.521305914296
1072.517873457633 7068.093215496944
1073.4050140347335 7013.148374657362
1074.2919350698776 7002.4141145503745
1075.1786366264623 6974.104197678983
1076.0651187678395 6985.255398482266
1076.95138155735 6760.9716460707405
1077.8374250582929 6744.354183550869
1078.7232493339507 6935.355268127164
1079.608854447577 6775.096730172615
1080.4942404623907 6740.367610359467
1081.3794074415982 6870.8408342619605
1082.2643554483657 6809.7309409916
1083.149084545841 6705.790969365706
1084.033594797138 6571.3496596699715
1084.9178862653516 6700.008365474385
1085.8019590135427 6751.72900999508
1086.6858131047484 6586.053847945465
1087.5694486019802 6707.781913688361
1088.4528655682225 6672.636105796172
1089.3360640664287 6766.460464619432
1090.2190441595321 6625.761499079677
1091.1018059104317 6694.693139524488
1091.98434938201 6695.997859503792
1092.866674637111 6737.075547960722
1093.748781738559 6638.04521458604
1094.6306707491512 6561.548602907764
1095.5123417316554 6571.610294962926
1096.3937947488157 6669.712607392711
1097.2750298633455 6557.434287496266
1098.156047137938 6608.792187046349
1099.0368466352556 6655.574971370111
1099.9174284179317 6653.707256776623
1100.7977925485757 6519.986119127379
1101.6779390897755 6500.117924747118
1102.5578681040806 6593.595289594805
1103.4375796540226 6582.102867277003
1104.3170738021054 6540.184121104717
1105.1963506108077 6438.998399225436
1106.0754101425773 6486.93353884405
1106.9542524598382 6509.711975111153
1107.8328776249855 6458.011109291843
1108.7112857003904 6489.559387546869
1109.5894767483987 6418.452154397034
1110.4674508313292 6662.207822642593
1111.3452080114657 6589.259387751714
1112.2227483510815 6618.9901585344705
1113.1000719124077 6722.369887920087
1113.9771787576592 6897.645913803413
1114.854068949022 6678.299913550161
1115.7307425486542 6842.5605842167815
1116.6071996186893 6961.547279621831
1117.483440221229 7188.788086241484
1118.3594644183577 6964.896657922158
1119.235272272128 7134.161869959846
1120.1108638445658 7353.158011969249
1120.9862391976712 7503.02046004001
1121.8613983934229 7499.742231871831
1122.7363414937627 7441.625471840659
1123.6110685606182 7594.495684155455
1124.485579655884 7689.3175337367675
1125.359874841426 7776.274896244929
1126.2339541790916 7852.772400110089
1127.1078177306936 8071.366297897005
1127.9814655580267 7947.784268811297
1128.854897722851 8028.812655984225
1129.7281142869106 8145.1343814408465
1130.6011153119125 8104.000783004702
1131.473900859548 8265.47050716956
1132.3464709914697 8177.932792370726
1133.2188257693178 8022.177012258804
1134.0909652546961 8078.737515873513
1134.96288950919 7991.574551411145
1135.8345985943506 8131.658771625383
1136.7060925717087 7925.042149240629
1137.57737150277 7935.32769673387
1138.4484354490069 7815.023205000829
1139.3192844718778 7754.608180079093
1140.1899186327992 7595.5095777146325
1141.060337993178 7630.217136145921
1141.930542614382 7501.444139999078
1142.8005325577597 7416.284255806166
1143.670307884635 7170.445701240907
1144.5398686563003 7300.153208431069
1145.409214934025 7110.640108789757
1146.2783467790541 6893.4272981042495
1147.1472642526023 6901.755855262934
1148.0159674158622 6827.896817425322
1148.8844563300026 6740.850145458011
1149.7527310561618 6654.498269180687
1150.6207916554504 6583.641417600321
1151.4886381889592 6560.076885586919
1152.3562707177498 6550.019021922291
1153.2236893028585 6413.59700355788
1154.090894005296 6291.502807435803
1154.9578848860474 6321.0090937226305
1155.8246620060709 6219.113662885315
1156.6912254262988 6268.34596683551
1157.5575752076438 6195.158277306569
1158.42371141098 6304.5272077081845
1159.2896340971656 6286.898704882898
1160.1553433270346 6223.09801043341
1161.0208391613887 6185.5258786859795
1161.8861216610057 6242.1386308719375
1162.75119088664 6236.470814129143
1163.6160468990201 6079.059862545616
1164.4806897588442 6054.2775144676
1165.3451195267917 6277.564840212244
1166.2093362635114 6150.034690530045
1167.0733400296285 6109.346909671064
1167.9371308857444 6042.706580378866
1168.8007088924278 6080.588323645295
1169.6640741102328 6121.681382212787
1170.5272265996773 5966.645922213883
1171.390166421259 5863.665453733936
1172.252893635452 6138.547072858044
1173.1154083026995 6198.154509736997
1173.977710483421 6120.745062880229
1174.8398002380145 6033.625973409631
1175.7016776268483 6204.608757044499
1176.563342710264 6118.1509333971135
1177.4247955485826 6065.971001470067
1178.2860362020947 6163.868176546284
1179.147064731069 6025.919491174415
1180.0078811957483 6186.189187306116
1180.8684856563486 6161.047701087584
1181.7288781730604 6261.087105387683
1182.589058806052 6277.868640463644
1183.4490276154593 6349.191682595601
1184.3087846614017 6320.659353939064
1185.1683300039676 6233.983264740419
1186.027663703222 6555.865630838547
1186.8867858192025 6416.62105930941
1187.7456964119228 6503.111624714132
1188.6043955413716 6511.7738955683635
1189.4628832675116 6613.955686058514
1190.3211596502842 6633.265937517489
1191.179224749596 6791.553202136961
1192.0370786253388 6621.231745765448
1192.8947213373758 6836.544924026986
1193.7521529455407 6956.207647380763
1194.6093735096438 6732.1891299821045
1195.466383089477 6799.133238972927
1196.3231817447977 6922.9463595330835
1197.1797695353398 6979.210343145591
1198.0361465208189 6872.676689917901
1198.8923127609214 6863.685032775706
1199.7482683153048 6949.230098525285
1200.6040132436028 7016.939109414396
1201.459547605431 6961.684019970829
1202.3148714603722 6803.147792129792
1203.1699848679855 6873.430946813773
1204.0248878878065 6937.769955407052
1204.8795805793507 6742.333268852415
1205.7340630020935 6816.886054555308
1206.5883352155033 6858.4410848804455
1207.4423972790064 6635.418693013348
1208.2962492520237 6649.407186054379
1209.1498911939307 6740.572154363717
1210.0033231640937 6689.741976268328
1210.8565452218427 6538.790411505481
1211.7095574264913 6453.870899481886
1212.5623598373222 6427.867762949545
1213.4149525135963 6426.344718911636
1214.2673355145507 6495.007881993939
1215.1195088993936 6322.889449036111
1215.9714727273113 6270.102485805085
1216.8232270574663 6401.658288331911
1217.6747719489904 6122.966962913373
1218.5261074609934 6188.721933924419
1219.3772336525653 6200.00162895465
1220.2281505827668 6236.42666853569
1221.0788583106296 6333.641056789116
1221.9293568951707 6069.886039411978
1222.7796463953746 6025.012443694152
1223.629726870202 6147.523118281416
1224.4795983785934 6204.890355956495
1225.3292609794553 6098.373635512598
1226.1787147316809 5984.330757770922
1227.0279596941327 6030.888657121235
1227.8769959256424 6149.607460479227
1228.7258234850306 6177.525437646943
1229.5744424310833 6079.786303377185
1230.422852822563 6206.962549157945
1231.2710547182105 6185.329728261219
1232.119048176739 6024.715141152406
1232.9668332568417 6039.222436412239
1233.8144100171812 6118.259652799347
1234.6617785163999 6125.749592837079
1235.508938813111 5999.529131799499
1236.3558909659114 6078.179618318917
1237.2026350333617 6183.279116635611
1238.049171074008 6254.352086091206
1238.8954991463652 6089.092447739766
1239.741619308932 6116.465999328487
1240.587531620169 7239.600937092643
1241.4332361385277 6230.817431467454
1242.2787329224248 6080.186339784379
1243.1240220302534 6097.601369450694
1243.9691035203869 6161.506593623295
1244.813977451171 6178.695090732384
1245.6586438809263 6280.3999102238895
1246.5031028679496 6003.982996774395
1247.3473544705157 6375.792937273272
1248.1913987468706 6291.955370781119
1249.0352357552383 6091.347912933959
1249.8788655538228 6179.631665555395
1250.7222882007918 6232.323777062334
1251.565503754302 6245.0089102652755
1252.4085122724755 6159.025484766778
1253.2513138134182 6292.024968091885
1254.0939084352049 6295.217675907233
1254.9362961958905 6315.115962771269
1255.7784771535007 6230.654967889914
1256.6204513660432 6278.618249706445
1257.4622188915 6422.1268812655835
1258.3037797878242 6235.3596288025565
1259.1451341129468 6156.35315037145
1259.9862819247755 6269.405800097689
1260.8272232811978 6120.406673080304
1261.6679582400666 6299.97615220592
1262.5084868592203 6026.137545332974
1263.34880919647 6012.268718571557
1264.1889253095997 6134.107799007648
1265.0288352563712 6145.665350902696
1265.8685390945266 6035.479313619377
1266.7080368817751 6036.212642201704
1267.5473286758115 6136.352683094116
1268.386414534294 6146.4363283134035
1269.2252945148703 5926.3055607975275
1270.0639686751547 5957.271236323429
1270.9024370727402 5972.691998355172
1271.7406997651997 5932.758008962376
1272.5787568100714 5889.523598220579
1273.4166082648808 5891.394806234994
1274.2542541871244 5909.056832375745
1275.091694634275 6013.734753578649
1275.9289296637817 5794.6330980412
1276.7659593330663 5843.61041579218
1277.6027836995308 5826.087368522892
1278.4394028205552 5965.489533281621
1279.2758167534867 5804.127199352174
1280.112025555658 5946.312598753212
1280.9480292843746 5861.074037663508
1281.7838279969128 5720.248690942512
1282.6194217505326 5725.495611532927
1283.4548106024686 5643.645171515223
1284.289994609926 5729.231303032031
1285.1249738300921 5941.803195906097
1285.959748320127 5779.10774188125
1286.7943181371702 5774.465038961235
1287.6286833383328 5792.387800759119
1288.4628439807038 5840.238974119156
1289.2968001213521 5664.278652778014
1290.1305518173194 5730.668078598768
1290.9640991256183 5829.499760358947
1291.7974421032523 5781.515109111603
1292.630580807183 5788.927504658499
1293.463515294361 5808.09629689781
1294.29624562171 5955.3666731939775
1295.12877184613 5840.522693902556
1295.961094024493 5851.824818117455
1296.79321221365 5915.508189005295
1297.6251264704333 5980.2983077087465
1298.4568368516466 6141.7218678001755
1299.2883434140658 5979.4373444664725
1300.1196462144526 5827.284086831415
1300.9507453095375 5913.6556084612685
1301.7816407560313 6027.560714316651
1302.6123326106172 5937.8097434019655
1303.4428209299622 5859.852022038806
1304.2731057707024 6088.18051755543
1305.1031871894502 5866.530018170526
1305.933065242798 6111.170358935256
1306.7627399873181 6006.889069668048
1307.5922114795467 6356.9355684664915
1308.4214797760123 6248.945841899966
1309.2505449332057 6095.0070519530045
1310.0794070076026 6085.066093719844
1310.9080660556538 6233.017578794629
1311.736522133786 6287.6087593849825
1312.5647752983987 6171.734805343797
1313.3928256058734 6045.000885727271
1314.2206731125661 6244.680198779052
1315.048317874809 6252.695483589524
1315.8757599489109 6221.4273730473415
1316.7029993911547 6262.263316528522
1317.5300362578055 6429.410589195128
1318.356870605101 6185.157078492061
1319.183502489257 6225.269029667973
1320.0099319664623 6403.186844877807
1320.836159092889 6365.856724977107
1321.66218392468 6406.697170928014
1322.4880065179532 6304.2644796571785
1323.3136269288134 6349.055417949981
1324.1390452133292 6493.169110216168
1324.9642614275563 6505.894670403692
1325.7892756275214 6358.262882311612
1326.6140878692295 6305.5663984656985
1327.4386982086617 6713.186803452038
1328.2631067017755 6491.815528388503
1329.0873134045069 6465.960223261162
1329.911318372764 6342.0512547049575
1330.735121662441 6343.506311660045
1331.558723329399 6286.813868916769
1332.3821234294774 6351.743252239423
1333.2053220185007 6360.726360047684
1334.0283191522612 6399.401619219174
1334.851114886529 6519.752726241455
1335.6737092770582 6258.7419063846355
1336.4961023795695 6220.057700647702
1337.3182942497697 6288.984535463513
1338.1402849433325 6375.160577653184
1338.962074515921 6103.7358201764755
1339.7836630231632 6180.953111346531
1340.6050505206676 6500.80583388841
1341.426237064028 6468.1578580418645
1342.2472227088037 6492.304049393428
1343.0680075105338 6136.5247909837835
1343.888591524741 6154.747761411847
1344.7089748069138 6330.381852030904
1345.5291574125276 6106.252440498021
1346.3491393970307 5996.882290355212
1347.168920815846 6176.9026708725805
1347.9885017243778 6206.013998703864
1348.8078821780036 6084.890882112053
1349.6270622320844 6107.0528276157875
1350.4460419419447 6071.395013420883
1351.2648213629054 6238.248643800307
1352.0834005502438 5989.367368851276
1352.90177955923 6035.427615642441
1353.7199584451064 6455.933564751974
1354.5379372630887 6174.577205721511
1355.355716068374 5988.646076272199
1356.1732949161305 6116.573283495902
1356.9906738615155 6061.622507621089
1357.8078529596478 6124.725380756137
1358.6248322656375 6124.139062926458
1359.441611834567 5967.2200211387735
1360.2581917214866 6249.597783338962
1361.0745719814367 6025.316740687212
1361.890752669433 6013.380838589371
1362.7067338404577 5967.053056929979
1363.5225155494845 6257.722751984166
1364.3380978514506 6159.433566676422
1365.1534808012839 5878.371481345186
1365.9686644538815 5888.221101903151
1366.783648864117 6147.912468641912
1367.5984340868417 6149.198272280499
1368.413020176893 6194.8523543202145
1369.2274071890715 5965.365363080235
1370.0415951781652 6122.036225710253
1370.8555841989346 6087.282751628263
1371.6693743061223 5991.064997043592
1372.48296555444 5933.376272911833
1373.2963579985844 6156.663536465661
1374.1095516932255 6075.373276788673
1374.9225466930166 5925.210486579101
1375.7353430525782 6042.169901274387
1376.5479408265164 5879.655923123981
1377.36034006941 6062.527642649981
1378.1725408358216 6009.481561629335
1378.9845431802805 5891.698680637883
1379.796347157304 6193.208011656867
1380.6079528213813 6129.991928297908
1381.4193602269788 5819.228595616869
1382.230569428546 5932.545062831521
1383.0415804805016 6244.945856937766
1383.852393437246 6097.842703144275
1384.6630083531563 6135.265249592564
1385.4734252825892 5990.032044893161
1386.2836442798798 6008.5108519913865
1387.0936653993322 5922.569353683013
1387.9034886952395 6000.005447825244
1388.713114221864 6038.620279181768
1389.5225420334482 6119.720743292839
1390.331772184214 5952.350434736732
1391.1408047283585 5874.772632927129
1391.9496397200564 5846.105373747532
1392.758277213461 6152.436638235033
1393.5667172627054 5998.43355659045
1394.3749599218918 5873.894004734678
1395.1830052451114 5643.79701559441
1395.9908532864265 5831.226068735343
1396.7985040998774 6007.375194231992
1397.6059577394808 5724.470749570366
1398.4132142592352 5943.486004967041
1399.2202737131156 5812.070621160082
1400.027136155073 5887.107476057065
1400.8338016390353 5844.50542634958
1401.6402702189134 5793.166536382851
1402.446541948586 5876.355146211432
1403.2526168819204 5675.302455604697
1404.058495072757 5764.06979635373
1404.8641765749107 5777.797672113379
1405.6696614421799 5791.217230851505
1406.4749497283356 6001.39980958661
1407.280041487129 5711.662242525876
1408.084936772295 5522.7388982661605
1408.8896356375335 5707.136965503537
1409.6941381365323 5816.288815224985
1410.498444322955 5527.5870411376545
1411.3025542504402 5583.706460275488
1412.106467972606 5689.982369839947
1412.9101855430508 5596.731860086349
1413.7137070153458 5464.919628151719
1414.5170324430437 5383.473599823431
1415.320161879672 5531.452213928503
1416.1230953787435 5733.583770633434
1416.925832993742 5309.040828680615
1417.7283747781275 5217.078000520115
1418.5307207853439 5494.042069581793
1419.3328710688093 5388.586040888312
1420.134825681922 5163.437377519878
1420.9365846780584 5178.617054683516
1421.7381481105713 5490.32659042609
1422.539516032788 5400.407652000193
1423.3406884980232 5153.252403437245
1424.1416655595604 5249.093643033488
1424.942447270665 5176.405640027007
1425.7430336845828 5266.939470412317
1426.5434248545298 5063.320124774152
1427.3436208337116 5236.996195822284
1428.143621675301 5278.8959187433975
1428.9434274324558 5335.9533915340435
1429.7430381583108 5055.017378767127
1430.5424539059713 5112.554313161785
1431.3416747285337 5361.887058325089
1432.1407006790632 5193.852979636189
1432.9395318106053 5220.294218941199
1433.7381681761835 5039.291716237529
1434.5366098288014 5038.917072827815
1435.3348568214424 5227.045269823297
1436.1329092070573 5040.496791518825
1436.9307670385879 5172.690694162453
1437.7284303689503 5325.494906042377
1438.5258992510335 5392.455972107689
1439.3231737377118 5237.209862308846
1440.1202538818306 5184.689855897586
1440.9171397362225 5154.462439240393
1441.7138313536925 5187.549402318292
1442.5103287870243 5074.868214231131
1443.3066320889775 5049.266001823168
1444.1027413122956 5290.9440211765095
1444.8986565096966 5115.978045524706
1445.694377733882 5178.058971369123
1446.4899050375207 4978.6194570858115
1447.2852384732687 4917.942466453801
1448.0803780937622 5194.572336500039
1448.8753239516063 4924.263420154845
1449.6700760993954 4926.539992976357
1450.464634589689 4908.516502366135
1451.2589994750397 5254.461430576986
1452.0531708079689 4967.780446451062
1452.8471486409799 4835.814857419157
1453.6409330265524 5160.8885457191955
1454.4345240171442 4965.778560198314
1455.2279216651987 4903.358743324861
1456.0211260231263 4977.428650583233
1456.8141371433194 4930.067438183046
1457.6069550781594 5069.280572076063
1458.3995798799897 4821.404843039656
1459.1920116011424 4881.348485749664
1459.98425029393 4867.0402016749995
1460.7762960106338 4885.19898595398
1461.5681488035225 4784.651688200933
1462.3598087248392 4919.568380048607
1463.1512758268036 5120.977489359184
1463.942550161617 4851.07974365989
1464.7336317814625 4845.570990829174
1465.524520738496 4922.34446086227
1466.3152170848552 4716.5737906236145
1467.1057208726506 4948.796178222592
1467.8960321539817 4747.345604839093
1468.6861509809169 4786.542761014158
1469.4760774055085 4809.750523343571
1470.265811479785 5039.494352774637
1471.055353255755 4811.537121046732
1471.844702785409 4858.212853502778
1472.6338601207044 4862.694450556294
1473.4228253135934 5467.645878391448
1474.2115984159936 4854.62367894044
1475.0001794798063 4695.370426826225
1475.7885685569145 4928.933310475665
1476.576765699172 4906.564794936775
1477.3647709584238 4845.992524199117
1478.1525843864802 4987.929885345058
1478.9402060351367 4954.18219380629
1479.7276359561693 4901.228854442017
1480.514874201328 4791.275164295881
1481.3019208223468 4713.444294465722
1482.0887758709323 4669.680536216916
1482.8754393987747 4776.554823699945
1483.6619114575406 4470.185103118468
1484.4481920988783 4809.1790551375225
1485.2342813744108 4868.63946533143
1486.0201793357446 4829.978126975935
1486.8058860344572 4780.156801983321
1487.591401522117 4751.163526936218
1488.3767258502594 4741.817558166561
1489.1618590704056 4724.197321183143
1489.9468012340494 4683.409089909978
1490.7315523926754 4838.781253610103
1491.5161125977356 4900.269346546867
1492.3004819006637 4838.472176663765
1493.084660352877 4761.595299526782
1493.8686480057622 4772.188573957729
1494.6524449106964 5019.562951395112
1495.4360511190262 4892.934791545981
1496.219466682087 4723.759206534655
1497.0026916511779 4877.069011456513
1497.7857260775945 4760.888948889127
1498.5685700125996 4927.542887178286
1499.3512235074395 4899.8583919355315
1500.133686613337 4750.588383734211
1500.9159593814966 4666.5578405054375
1501.698041863101 5103.10176964223
1502.4799341093094 4678.697869749803
1503.2616361712662 4705.545536626515
1504.043148100087 4908.841344002499
1504.8244699468742 4958.767571050341
1505.6056017626997 4702.629051261036
1506.3865435986281 4545.108133896524
1507.1672955056893 4844.173628616574
1507.9478575348967 4637.268573871263
1508.7282297372512 4847.684546443551
1509.5084121637192 4677.111120413666
1510.2884048652577 4724.005672488733
1511.0682078927948 4632.9043290847
1511.8478212972423 4623.06680608353
1512.6272451294917 4675.213999131659
1513.4064794404076 4870.894099500549
1514.1855242808433 4796.52074334942
1514.9643797016215 4771.679326440084
1515.743045753552 4803.926856969673
1516.5215224874191 4877.064951805339
1517.2998099539836 4466.544931889219
1518.077908203999 4708.855589719406
1518.8558172881785 4679.995511018084
1519.633537257234 4761.200029297228
1520.4110681618404 4853.775359400765
1521.1884100526604 4803.776621981943
1521.9655629803365 4706.115340998153
1522.7425269954856 4937.4056934038435
1523.5193021487103 5026.969989833965
1524.2958884905856 4629.5135813710685
1525.0722860716687 4687.520212456299
1525.848494942502 4750.4426349267105
1526.624515153595 4705.304677633625
1527.4003467554485 4787.856854627944
1528.175989798534 4923.984792618031
1528.9514443333064 4791.996484646182
1529.726710410203 5103.681259180223
1530.5017880796331 4582.774354136424
1531.276677391992 4733.07494810079
1532.0513783976457 4944.548630746573
1532.825891146953 4707.410251427407
1533.6002156902414 4893.57662121233
1534.3743520778207 4851.261682463993
1535.1483003599806 4861.477411267578
1535.9220605869923 4861.313325367275
1536.6956328091019 4953.606677587489
1537.4690170765407 4973.832408783706
1538.242213439511 4972.685480633358
1539.015221948208 4974.244079582384
1539.78804265279 4792.726418013914
1540.560675603405 4805.4444888621365
1541.3331208501804 5245.984420353397
1542.1053784432224 5095.528472077667
1542.8774484326168 4988.186787185356
1543.649330868422 4997.069116296775
1544.4210258006842 5096.343459483896
1545.1925332794308 5098.504648995669
1545.9638533546604 5020.381600938292
1546.7349860763552 4986.889615023474
1547.5059314944829 5431.738718580887
1548.27668965898 5128.692420760588
1549.0472606197673 5287.845848288313
1549.817644426752 5115.403266641316
1550.5878411298072 5339.511489450275
1551.3578507787988 5289.818643669267
1552.1276734235635 5160.061748304985
1552.8973091139233 5258.045584522491
1553.6667578996767 5211.857297874945
1554.436019830604 5268.417073288379
1555.20509495646 5207.493587813357
1555.9739833269869 5036.874958918395
1556.7426849919011 4923.858571631379
1557.511200000903 5356.634088780773
1558.2795284036674 5106.76232693434
1559.0476702498509 5136.538802199704
1559.8156255890954 5242.446419719949
1560.5833944710157 5251.56070409837
1561.3509769452048 4999.9980431051035
1562.1183730612447 5060.589123346778
1562.8855828686865 5139.548450723507
1563.6526064170703 5319.036314796524
1564.4194437559127 5249.954126520983
1565.1860949347047 5015.606706485286
1565.9525600029283 5324.430429851438
1566.7188390100328 5221.926702344224
1567.4849320054564 4997.97595728373
1568.250839038612 5004.5954426129265
1569.0165601588997 4923.0451048245
1569.7820954156887 5215.237508222862
1570.5474448583373 4955.835681707065
1571.31260853618 4866.213571989251
1572.0775864985299 4843.311801786154
1572.8423787946813 5001.976855126268
1573.6069854739108 4882.8179746917585
1574.371406585471 5031.421972878057
1575.1356421785986 5137.545809794379
1575.899692302506 5011.214017341068
1576.6635570063845 5002.219876213427
1577.4272363394157 4876.422251421198
1578.190730350747 4951.629380054534
1578.9540390895163 4869.956364221883
1579.7171626048384 4662.4054244062045
1580.480100945806 4819.826348215203
1581.2428541614918 4876.042831307697
1582.0054223009538 4829.287779076783
1582.767805413223 4882.3758708938585
1583.5300035473156 4804.314470989376
1584.292016752228 5021.937590469585
1585.0538450769309 4954.964248488866
1585.8154885703807 4750.994559878571
1586.5769472815136 4764.91053096135
1587.3382212592405 4833.985082996655
1588.099310552463 5124.265513335683
1588.8602152100484 4735.124854173713
1589.6209352808564 4970.0172532546485
1590.3814708137234 4950.957790823271
1591.14182185746 4885.832653195201
1591.9019884608679 4960.738268028307
1592.6619706727215 4616.294426643048
1593.4217685417734 4895.929069496785
1594.1813821167616 5097.408679538573
1594.9408114464022 4760.164177440243
1595.7000565793933 4982.862761235661
1596.459117564409 4985.917831504057
1597.2179944501113 4815.88376226811
1597.9766872851324 4881.8641267689045
1598.735196118092 4879.9817630024545
1599.4935209975883 4922.733063864188
1600.2516619721973 5168.6429454958825
1601.0096190904787 4822.82279389982
1601.7673924009723 4884.8294459959525
1602.524981952196 4853.222362792238
1603.2823877926476 4837.3640777890205
1604.0396099708087 4788.609976801135
1604.7966485351371 4752.169103364436
1605.5535035340745 4764.763324818619
1606.3101750160404 5093.330986393956
1607.0666630294363 4828.199213232086
1607.822967622642 4684.824480816547
1608.5790888440224 4828.451838854538
1609.3350267419137 5022.827837524717
1610.0907813646445 4779.023546137572
1610.8463527605145 4853.204236622913
1611.601740977805 4872.99266119336
1612.356946064785 4776.807060634187
1613.1119680696902 4636.336614249573
1613.8668070407512 4726.291747732552
1614.6214630261748 4682.343027913434
1615.375936074137 4829.459124266106
1616.1302262328118 4774.741743120458
1616.8843335503425 4780.229500845629
1617.638258074854 4659.39317331246
1618.391999854457 4583.353312786594
1619.1455589372363 4801.394998720417
1619.8989353712623 4753.84613830198
1620.65212920458 4421.181059508035
1621.4051404852235 4547.246000007011
1622.1579692611976 4651.253149337114
1622.9106155804966 4599.861222256521
1623.663079491087 4601.432704213939
1624.4153610409248 4680.856781697185
1625.1674602779385 4737.107205457605
1625.9193772500403 4417.439931364646
1626.6711120051277 4727.287743434025
1627.4226645910676 4580.717568184106
1628.174035055721 4447.596370666895
1628.9252234469168 4532.164339616199
1629.676229812474 4535.866195839572
1630.4270542001905 4814.391325478011
1631.1776966578382 4578.033774155874
1631.9281572331747 4538.03269402332
1632.678435973945 4630.857337277213
1633.4285329278573 4641.022037940878
1634.1784481426203 4481.785441513015
1634.9281816659113 4598.267978686614
1635.677733545388 4731.934046679441
1636.4271038286934 4537.558646790019
1637.176292563452 4617.5202014437455
1637.9252997972635 4728.583917646729
1638.674125577716 4806.605573285611
1639.4227699523672 4993.2944492309
1640.171232968767 4487.656517887327
1640.9195146744423 4727.577349394782
1641.6676151168977 4713.107707800666
1642.4155343436178 4755.409494158705
1643.1632724020765 4769.844346906188
1643.9108293397167 4743.842644233551
1644.658205203974 4676.615320908508
1645.4054000422566 5153.425057514079
1646.1524139019566 4774.359986503815
1646.8992468304423 4650.678631039412
1647.6458988750728 4764.954961299973
1648.3923700831765 4898.063961779266
1649.1386605020743 4759.380109902451
1649.8847701790564 4952.020609272113
1650.6306991614038 4938.5488336888975
1651.3764474963682 5023.103020859472
1652.1220152311944 4782.625859832126
1652.867402413096 4921.281242752853
1653.6126090892776 4779.352958349977
1654.3576353069184 5060.98628953731
1655.1024811131829 4844.788085734689
1655.8471465552066 4895.582363252486
1656.5916316801213 4973.894337146772
1657.3359365350298 4777.888022325868
1658.0800611670165 4783.5859617650995
1658.824005623148 4759.569149158175
1659.5677699504722 4573.3101069382765
1660.3113541960192 4845.180793627878
1661.054758406799 4685.376567433124
1661.7979826297997 4561.587107652804
1662.5410269119966 4585.817161366567
1663.283891300338 4672.595109577184
1664.0265758417645 4561.071857745509
1664.7690805831826 4555.67800327921
1665.5114055714948 4871.036632281012
1666.2535508535748 4712.449099757199
1666.9955164762814 4272.627533965031
1667.7373024864555 4500.370120108348
1668.478908930916 4567.730687249512
1669.220335856462 4238.583782682069
1669.9615833098778 4350.084845681561
1670.7026513379296 4155.147994384956
1671.44353998736 4312.9192864277775
1672.1842493048916 4380.644953783372
1672.9247793372379 4210.058205791554
1673.6651301310812 4252.817118926076
1674.4053017330934 4142.5632273577
1675.1452941899242 4193.869027320561
1675.885107548207 3863.466258292785
1676.6247418545518 3966.9920358271797
1677.3641971555535 4083.498375943071
1678.1034734977893 4077.2883269700005
1678.8425709278108 4011.164639335694
1679.5814894921605 4176.022057915563
1680.320229237359 3813.0277431250624
1681.0587902098978 3979.6738897034134
1681.7971724562685 3924.6306674410735
1682.5353760229264 3890.3225118485193
1683.2734009563173 3941.02482192496
1684.0112473028657 3762.388184739963
1684.7489151089794 3848.5263049943687
1685.4864044210462 3849.6433165020294
1686.2237152854377 3642.7576080555714
1686.960847748498 3915.380500276715
1687.6978018565642 3724.559288327962
1688.434577655944 3626.34938878941
1689.1711751929379 3715.220596885588
1689.9075945138156 3627.9078942289802
1690.6438356648396 3635.6062295756833
1691.3798986922448 3335.584422545081
1692.1157836422499 3536.411533273547
1692.851490561059 3393.489031789686
1693.587019494853 3514.705437209361
1694.3223704897991 3367.3863842667897
1695.0575435920364 3243.7522920803285
1695.792538847696 3595.9285308724807
1696.527356302886 3430.369415904417
1697.2619960036936 3179.091212336043
1697.9964579961907 3252.3054716763604
1698.730742326432 2954.7138697376154
1699.4648490404488 3055.8420242255092
1700.1987781842563 3218.669477630853
1700.9325298038548 3385.41550969558
1701.6661039452174 3468.8255719845292
1702.3995006543082 3265.546965331318
1703.1327199770658 3300.7706242315776
1703.865761959416 3144.424788163778
1704.598626647261 3457.1610004230724
1705.3313140864866 3074.3680078468306
1706.0638243229587 3114.581038690372
1706.7961574025303 3337.0177676050107
1707.528313371029 3201.937615931351
1708.260292274268 2887.047505041945
1708.9920941580403 3169.369513113622
1709.7237190681226 3083.564771750078
1710.4551670502697 3106.2193075587656
1711.18643815022 2833.3015687094476
1711.9175324136959 3269.0449868684864
1712.6484498863938 3022.6100831287354
1713.379190614005 2921.4264377835348
1714.109754642188 3106.844770167115
1714.8401420165883 2922.8259564750047
1715.570352782839 2800.41507734079
1716.3003869865497 3002.374057510595
1717.0302446733076 2795.069517793235
1717.7599258886876 2833.384371188359
1718.4894306782444 3189.5947214674284
1719.2187590875183 2891.368597543061
1719.9479111620203 2988.013998368874
1720.6768869472544 2855.1386663869266
1721.4056864887025 3156.344969016076
1722.1343098318284 3104.368812532092
1722.8627570220742 2828.7947652708754
1723.591028104871 2726.879427804544
1724.3191231256242 2644.2410615152794
1725.0470421297232 2900.434008114948
1725.7747851625427 2846.7880917433185
1726.5023522694337 2883.1889849920694
1727.2297434957363 2838.8199644669535
1727.9569588867635 2655.5845932092866
1728.6839984878152 2862.770654181979
1729.4108623441734 2600.2541672231837
1730.1375505011038 2851.059924739954
1730.8640630038426 2782.99461032385
1731.5903998976264 2688.744578571489
1732.316561227657 2811.92668182876
1733.0425470391274 2745.416705050076
1733.7683573772065 2783.611740807784
1734.4939922870508 2651.740141057775
1735.2194518137949 2686.0521228835373
1735.9447360025606 2809.3892981671606
1736.669844898439 2633.209821400681
1737.3947785465189 2611.3629825917624
1738.1195369918605 2606.809689913218
1738.8441202795093 2590.5695045338957
1739.5685284544943 2855.5766451453924
1740.292761561821 2800.0777643209376
1741.0168196464838 2877.6330082213794
1741.7407027534518 2647.1617600593245
1742.464410927687 2724.675034786422
1743.187944214118 2757.0926231773287
1743.9113026576688 2568.573776818913
1744.634486303241 2628.9043580890034
1745.3574951957125 2627.2243923680344
1746.0803293799509 2775.8051347291207
1746.8029889008048 2565.791513490578
1747.5254738031017 2808.9229421865703
1748.2477841316504 2432.7073106533926
1748.969919931249 2637.6087191758725
1749.6918812466665 2508.7573627269876
1750.4136681226646 2777.638298499304
1751.1352806039777 2708.3943672252494
1751.856718735331 2487.013963849754
1752.5779825614281 2622.5486678612842
1753.2990721269507 2673.7160724623236
1754.0199874765676 2789.64351253277
1754.7407286549314 2501.291544473055
1755.4612957066693 2588.2301179057295
1756.1816886763954 2504.8637494597356
1756.9019076087097 2688.3811423344714
1757.6219525481865 2760.0193961265236
1758.3418235393856 2609.1361404278978
1759.061520626854 2742.124408660776
1759.7810438551096 2723.0595166201942
1760.5003932686614 2535.369117717487
1761.2195689119999 2831.3914025268978
1761.938570829594 2467.1433194353294
1762.657399065898 2636.498274471195
1763.376053665348 2536.792293159594
1764.0945346723602 2408.8584279702377
1764.812842131334 2656.9585920071722
1765.5309760866512 2422.991961128721
1766.2489365826787 2555.998983703128
1766.9667236637597 2621.537985984638
1767.684337374223 2375.426385825801
1768.401777758383 2363.6639258008936
1769.1190448605284 2404.9823185713367
1769.836138724937 2436.960500829703
1770.5530593958665 2587.230068147298
1771.2698069175603 2670.356402277902
1771.9863813342326 2688.4443257514977
1772.702782690094 2378.61704174582
1773.4190110293293 2568.982352089427
1774.1350663961111 2647.083528255254
1774.8509488345844 2446.623974569875
1775.5666583888924 2561.0630923066838
1776.2821951031437 2701.9064543610825
1776.9975590214362 2438.287048833992
1777.7127501878585 2824.0625496531093
1778.4277686464684 2514.6431430014695
1779.1426144413108 2775.482629180527
1779.8572876164162 2602.2074573931077
1780.571788215797 2471.336086707801
1781.2861162834415 2465.693261435547
1782.0002718633277 2489.0617029265295
1782.7142549994132 2406.986752509258
1783.4280657356376 2618.0309219227356
1784.141704115922 2351.7546775933397
1784.855170184177 2463.4949467415922
1785.5684639842839 2512.2295016026605
1786.2815855601148 2270.668323232805
1786.9945349555237 2471.3284170960055
1787.707312214343 2376.014784381466
1788.4199173803918 2670.5045251063425
1789.132350497468 2380.1103693474024
1789.8446116093583 2346.7564652656483
1790.556700759822 2549.21223533333
1791.2686179926077 2178.5601623387215
1791.9803633514493 2464.507198945587
1792.6919368800554 2349.0152831515225
1793.4033386221236 2529.5793679750736
1794.1145686213295 2514.3219519276604
1794.8256269213307 2738.709438538955
1795.536513565774 2643.3001235026322
1796.247228598284 2105.765119435937
1796.9577720624693 2384.539657783284
1797.6681440019165 2448.6037358394083
1798.3783444602013 2456.800042891203
1799.0883734808776 2493.7205850036557
1799.7982311074884 2491.846077263637
1800.5079173835475 2291.08465767744
1801.2174323525633 2623.794393841584
1801.9267760580187 2465.4726957668026
1802.635948543386 2529.9420455799986
1803.3449498521113 2395.1185880350927
1804.0537800276325 2477.693472749782
1804.7624391133668 2398.0815584015972
1805.47092715271 2355.6777131555896
1806.1792441890484 2300.0107172739017
1806.8873902657433 2548.7875580592195
1807.5953654261448 2297.382067592483
1808.3031697135812 2328.942070195085
1809.0108031713662 2308.1647177896148
1809.71826584279 2397.122337129097
1810.425557771141 2309.6245842545845
1811.1326789996747 2765.0001441710847
1811.839629571632 2422.308589607622
1812.5464095302468 2363.4748326207828
1813.2530189187182 2446.3026859892093
1813.959457780249 2295.4473027230233
1814.6657261580076 2492.606599179479
1815.371824095153 2325.758387853338
1816.0777516348262 2461.324449189588
1816.78350882015 2186.5842684893387
1817.4890956942272 2319.0185214171906
1818.1945123001533 2312.735726367135
1818.8997586809928 2077.881794785376
1819.6048348798067 2389.056867389313
1820.3097409396287 2194.1878870938467
1821.0144769034796 2688.480664365411
1821.7190428143622 2411.95439849668
1822.423438715261 2680.6993985106683
1823.1276646491478 2391.9005803528667
1823.8317206589727 2352.2780415146503
1824.5356067876692 2449.497078394422
1825.2393230781581 2197.940074244018
1825.942869573335 2089.137798212723
1826.646246316086 2259.4192126202065
1827.3494533492758 2403.7237489621207
1828.052490715756 2469.069606642822
1828.7553584583547 2407.4618842302502
1829.458056619891 2446.882848944446
1830.1605852431585 2207.7532945069306
1830.8629443709433 2142.886923416348
1831.5651340460063 2345.165906736818
1832.2671543110919 2380.007612015281
1832.9690052089318 2232.8504581895877
1833.6706867822395 2170.085944968679
1834.3721990737104 2433.437710382033
1835.0735421260233 2420.2739446323376
1835.774715981841 2430.3496719134628
1836.4757206838058 2513.8422071581144
1837.1765562745459 2151.109772353939
1837.8772227966747 2111.6485335871175
1838.5777202927839 2375.864366715523
1839.2780488054523 2311.424015730351
1839.9782083772352 2247.865348341375
1840.6781990506806 2504.099549016459
1841.378020868313 2375.1227205884566
1842.0776738726418 2362.1962847293494
1842.777158106157 2336.284654032822
1843.4764736113375 2161.399310757674
1844.1756204306403 2443.852076810377
1844.8745986065078 2379.1820648648413
1845.5734081813607 2096.9685111957833
1846.2720491976124 2090.2613881317207
1846.970521697649 2196.3367710158136
1847.6688257238511 2191.2024060075983
1848.3669613185684 2292.121192433483
1849.0649285241452 2161.5242362210606
1849.7627273829057 2244.278415569709
1850.460357937156 2363.3737023063027
1851.1578202291857 2058.0695393833284
1851.8551143012664 2276.0952866846474
1852.5522401956569 2293.0375025329618
1853.2491979545957 2399.147103677567
1853.9459876203055 2162.1092084490792
1854.6426092349902 2097.5911747376117
1855.3390628408451 2147.0937806877973
1856.0353484800362 2379.767754078058
1856.7314661947203 2274.481417597385
1857.4274160270397 2011.847614414911
1858.123198019115 2246.0570483943034
1858.8188122130487 2206.296896249961
1859.5142586509319 2285.9808967991185
1860.209537374838 2276.4941753818293
1860.9046484268183 2155.933249512658
1861.599591848917 2530.848439879876
1862.294367683151 2249.521227176705
1862.988975971528 2179.867902045843
1863.6834167560355 2379.7892165423486
1864.3776900786452 2378.862591004185
1865.0717959813119 2208.0412758599714
1865.7657345059724 2208.761077602368
1866.4595056945564 2272.3573205457587
1867.1531095889586 2348.35336165925
1867.846546231076 2262.006644432438
1868.5398156627743 2412.6158440177755
1869.2329179259123 2256.245689701222
1869.9258530623283 2456.20078816431
1870.618621113843 2174.152598459181
1871.3112221222636 2070.603706581934
1872.0036561293764 2101.2035329892133
1872.695923176956 2311.988199476336
1873.3880233067594 2326.0336263709332
1874.0799565605212 2049.617801360696
1874.7717229799673 2216.8142419733213
1875.4633226068036 2443.3838181375804
1876.1547554827175 2302.417027706365
1876.8460216493859 2109.131423842478
1877.5371211484617 2228.3961773963197
1878.2280540215852 2347.836940796335
1878.9188203103804 2089.4448001935352
1879.6094200564548 2239.028372220245
1880.299853301396 2160.9588282563227
1880.9901200867826 2284.1514414589565
1881.6802204541673 2123.367081553551
1882.3701544450942 2225.3294784875643
1883.059922101087 2177.127997242345
1883.7495234636517 2280.9835096571587
1884.4389585742792 2141.853295254935
1885.1282274744517 2185.1695641341153
1885.8173302056166 2546.8449499182357
1886.506266809225 2130.9816260771913
1887.195037326701 1961.8985739238906
1887.8836417994517 2130.345179065268
1888.5720802688702 2438.5610206964748
1889.260352776333 2301.690116877705
1889.9484593632042 2296.299144987229
1890.63640007082 2176.24010181619
1891.3241749405151 2158.274234385702
1892.0117840135954 2173.5226354327483
1892.6992273313572 2093.582309089193
1893.3865049350788 2054.8544293330824
1894.0736168660223 2484.8475859715927
1894.7605631654333 2126.546087897507
1895.4473438745408 2061.400379249629
1896.133959034556 2234.1346418095955
1896.820408686679 2101.0793275076767
1897.506692872088 2370.4909490874225
1898.192811631945 2264.3437038313455
1898.8787650073991 2184.3127864524804
1899.5645530395832 2278.829736211031
1900.2501757696118 2312.9475264206512
1900.9356332385796 2043.8321654331953
1901.620925487574 2432.6094953204774
1902.3060525576602 2175.296630722952
1902.9910144898859 2326.3659121708083
1903.6758113252872 1931.454616618208
1904.3604431048789 2184.7383575786016
1905.0449098696663 2204.456975776792
1905.7292116606295 2143.9623093453156
1906.4133485187394 2052.2756634774173
1907.0973204849488 1890.8730563970216
1907.7811276001976 2043.8966634667552
1908.4647699053967 2166.0246264193115
1909.1482474414588 1955.4333733230274
1909.8315602492694 1969.220639728001
1910.5147083696957 2288.852278316622
1911.1976918436012 2173.0775385069
1911.880510711815 2045.042328084625
1912.5631650151681 2191.150455185042
1913.2456547944657 2205.630287492457
1913.927980090495 2093.757554787334
1914.6101409440362 2128.4633735242796
1915.2921373958416 2159.545128322243
1915.9739694866603 2136.1797945909866
1916.655637257214 2455.9511705099308
1917.3371407482136 2188.4657779734475
1918.0184800003572 2282.739975795267
1918.6996550543154 2157.403658611461
1919.3806659507554 2175.5761698137408
1920.0615127303208 2376.5117839738155
1920.7421954336423 2291.523114095015
1921.4227141013343 2350.382318796913
1922.103068773993 2148.9423115969976
1922.783259492202 2305.4518157237394
1923.4632862965227 2021.966554123003
1924.1431492275078 2017.642496363238
1924.8228483256917 1992.9142660019356
1925.5023836315922 2191.1531400530794
1926.1817551857057 2237.170897059981
1926.8609630285227 2283.3515543434723
1927.5400072005123 2132.903938935892
1928.218887742125 2040.3221616114868
1928.8976046938005 1844.660893557586
1929.5761580959588 2242.2604518292346
1930.2545479890086 2166.828707967996
1930.9327744133352 2113.888369027859
1931.6108374093164 2206.7135086314574
1932.2887370173066 2326.135651351723
1932.9664732776473 2256.694069934233
1933.6440462306673 2187.010811127933
1934.3214559166754 1920.9621470097459
1934.9987023759659 2280.652382349545
1935.675785648813 2192.0991054408105
1936.3527057754836 1896.6601589153329
1937.029462796223 2312.485694307096
1937.70605675126 2006.1704593576337
1938.3824876808085 2182.4584198969783
1939.058755625072 1961.128819312396
1939.7348606242267 2084.4521970190053
1940.4108027184448 2060.1297374270025
1941.0865819478713 2327.2007778635534
1941.7621983526478 1875.4503695309777
1942.4376519728921 1868.9671905705716
1943.1129428487038 1974.621915892661
1943.7880710201734 2042.0708903485763
1944.4630365273733 2334.466394414438
1945.1378394103576 1837.6545395242065
1945.8124797091714 2371.9953966894514
1946.4869574638324 1912.6274285187392
1947.161272714353 2040.820799520417
1947.8354255007234 2166.305980206585
1948.5094158629272 2050.3518816570913
1949.1832438409183 2247.6056612558705
1949.8569094746435 2212.825954811834
1950.530412804037 2216.7425596701323
1951.2037538690092 2209.0196134693897
1951.8769327094578 2045.919074831428
1952.5499493652678 2059.325780577011
1953.222803876306 2078.5036323470704
1953.895496282421 2078.1520481391667
1954.5680266234522 2024.1259087966741
1955.2403949392155 2121.9674709564183
1955.9126012695142 1907.8155392462734
1956.5846456541403 2096.3786805821323
1957.2565281328643 1993.2578150637426
1957.9282487454457 2050.305774106765
1958.5998075316202 2314.8120446341045
1959.27120453112 2202.0894583100094
1959.9424397836501 1962.9279994442975
1960.613513328908 2223.26699486669
1961.2844252065697 2330.006767817146
1961.9551754563017 2079.523841911313
1962.6257641177453 1929.7600512350389
1963.29619123054 1936.9782000935018
1963.966456834296 1962.7962713021884
1964.6365609686181 1772.0338347082652
1965.306503673086 2016.2746612082253
1965.976284987275 1997.6452431707148
1966.645904950734 2001.614436474421
1967.315363603002 1837.847061158626
1967.9846609836077 2009.3316213040112
1968.6537971320486 2046.6110589667412
1969.3227720878222 1984.0983535280288
1969.9915858904042 1939.2877769404672
1970.660238579252 2144.465671049344
1971.3287301938108 2065.251037758005
1971.997060773514 1791.3426137759823
1972.665230357772 1991.3422303551397
1973.3332389859843 1841.2835275049197
1974.0010866975335 1870.5427292791978
1974.6687735317864 2148.9210531213002
1975.3362995280932 2190.501964349368
1976.003664725793 2154.554411932364
1976.6708691642052 1671.9239975157143
1977.3379128826364 1961.622667724358
1978.004795920373 2076.3295866751373
1978.6715183166925 1954.4831367283987
1979.3380801108524 1832.4915675871985
1980.0044813420973 2088.920990522572
1980.6707220496555 1868.7237843970368
1981.3368022727373 1905.0503223546154
1982.0027220505417 2167.50016907484
1982.66848142225 1725.2215322827778
1983.3340804270283 1742.9000272788428
1983.999519104027 2061.4166328091374
1984.6647974923835 2237.1051274373576
1985.329915631215 2133.880132647936
1985.99487355963 2003.2378913432483
1986.6596713167146 2222.4820553456775
1987.3243089415428 1975.658181792529
1987.9887864731754 2143.7063494511226
1988.6531039506553 1834.7517281798519
1989.3172614130071 2224.1093672955494
1989.9812588992481 1976.3920514464705
1990.645096448372 1974.1028356144393
1991.3087740993633 2106.513791298045
1991.9722918911848 2057.7790649889744
1992.635649862792 1952.1690519308154
1993.2988480531185 2116.4982857170526
1993.9618865010852 2321.8746894642886
1994.6247652455968 1963.0757393647978
1995.287484325545 1714.640937491913
1995.9500437798033 1774.71581667947
1996.6124436472292 1835.0007816794136
1997.2746839666706 2195.985899326445
1997.936764776954 2075.8415870598164
1998.598686116895 1948.2097269624705
1999.2604480252903 1947.4311301502726
1999.9220505409212 1946.5748757225829
2000.5834937025593 1776.994645405106
2001.2447775489582 1962.0029799029694
2001.9059021188514 2111.1631634560354
2002.5668674509616 2086.162497549512
2003.2276735839987 1987.6851817120496
2003.8883205566508 2136.752424289819
2004.5488084075987 1878.8525960440334
2005.2091371755014 1916.3302410991705
2005.8693068990033 1909.4507769106378
2006.5293176167397 2103.603354481766
2007.1891693673224 1841.1866063937136
2007.848862189354 1749.6300867079503
2008.5083961214223 1911.4611092405762
2009.1677712020955 1968.7684007254534
2009.8269874699254 1858.7273967412134
2010.4860449634598 2138.38855803893
2011.1449437212177 2143.3419186363335
2011.8036837817108 2148.4240156611077
2012.4622651834325 2222.719214143814
2013.1206879648653 2180.9574489167626
2013.7789521644736 2292.4160184890457
2014.4370578207036 1826.9305212646789
2015.0950049719922 2043.4917470883115
2015.7527936567585 2118.267103229318
2016.4104239134067 2011.5160132961064
2017.067895780323 2332.782097877408
2017.725209295886 2272.49889813374
2018.3823644984514 2211.992503950688
2019.0393614263648 1970.7100022008078
2019.6962001179545 1729.809869856364
2020.3528806115355 1691.675157615487
2021.0094029454067 1653.4462153768065
2021.6657671578487 1957.9532014103675
2022.321973287133 1932.9142764895096
2022.9780213715148 1928.2395907867326
2023.6339114492293 1719.8565433817505
2024.2896435585026 1905.2136743765568
2024.9452177375442 2085.8847318496505
2025.600634024544 2136.8195508444364
2026.2558924576842 2014.135063212026
2026.9109930751292 2077.0927368180737
2027.565935915025 1850.976344619327
2028.2207210155066 2214.477917549997
2028.8753484146964 2170.3883373494523
2029.529818150695 1801.5530175379383
2030.1841302615903 2158.8984030469173
2030.8382847854573 1913.1032040911082
2031.4922817603601 1880.7872837369255
2032.1461212243357 2022.3115163738137
2032.7998032154192 1678.1491216131922
2033.4533277716218 2083.846843039937
2034.1066949309443 1789.127069277464
2034.7599047313688 1859.9075971481896
2035.4129572108704 2123.2775303118237
2036.0658524074006 2114.9668754951535
2036.7185903589016 1901.6614945674241
2037.3711711032956 1928.5753867663539
2038.023594678496 1891.6481391146986
2038.675861122394 1820.5810581023816
2039.3279704728757 1945.3753489503483
2039.9799227678031 1700.6745449947944
2040.6317180450278 1791.5299876979582
2041.2833563423865 1924.8689740362795
2041.9348376977014 1972.9164634884346
2042.5861621487784 1889.6367259585757
2043.2373297334088 1981.0110641379263
2043.8883404893695 1922.904073149462
2044.5391944544208 2088.983249005655
2045.1898916663158 2036.0597281287137
2045.8404321627804 2212.197012670096
2046.4908159815368 1892.442052434252
2047.1410431602853 1808.4799516042124
2047.7911137367173 1714.2095341870704
2048.441027748504 2081.775061237541
2049.090785233302 1812.3561124063558
2049.7403862287592 1887.2474579106051
2050.389830772503 2114.945043742182
2051.0391189021466 2066.535777415884
2051.688250655294 2018.1794696929471
2052.337226069527 1789.936457818561
2052.986045182417 2115.309757049874
2053.634708031521 2043.7077744994592
2054.283214654375 1972.1292899374487
2054.931565088511 1718.8490153250864
2055.579759371436 1720.3491906159222
2056.2277975406523 1826.8795093519016
2056.8756796336384 2063.484125150234
2057.5234056878617 1728.6075101040929
2058.1709757407752 1823.3932095876316
2058.8183898298194 1997.285090813041
2059.465647992416 2032.8344903575871
2060.1127502659747 2005.923077328287
2060.759696687888 1833.8896169995194
2061.4064872955405 2172.9526533641642
2062.053122126292 2117.7446474491117
2062.699601217497 1750.8730919531765
2063.345924606485 1977.0292573537286
2063.992092330587 1926.6457316113047
2064.638104427102 1765.0959041458918
2065.283960933324 2177.923891504716
2065.92966188653 1921.0169565338438
2066.5752073239855 2071.8255061947543
2067.2205972829397 1712.376079103483
2067.86583180062 1873.485876545302
2068.5109109142522 1834.5144915663434
2069.15583466104 1860.9785414143219
2069.8006030781708 1887.4691143139717
2070.445216202821 1980.6279289719816
2071.089674072153 2271.0528609518374
2071.7339767233116 1911.7207207602182
2072.3781241934303 1877.2358457925752
2073.0221165196253 2108.719709496458
2073.6659537390024 1811.7351848029102
2074.3096358886505 1995.575615671699
2074.953163005637 1713.209052620047
2075.596535127028 1760.0404974381122
2076.2397522898664 1626.0786139742133
2076.882814531182 1973.0859344521705
2077.5257218879924 2124.518592133255
2078.1684743973 1693.4395753524327
2078.8110720960885 1762.2065117169998
2079.453515021336 2176.6936217509765
2080.095803209997 1936.6295681898773
2080.7379366990135 2003.2039411422422
2081.37991552532 1923.7097060010262
2082.0217397258275 1871.73127207258
2082.6634093374414 1740.274172609039
2083.3049243970418 1919.8120445880177
2083.9462849415067 1877.1994380343742
2084.587491007689 1896.9745044518731
2085.2285426324324 1943.4790466458157
2085.869439852564 2016.7461105667358
2086.510182704902 1627.6068072243997
2087.1507712262483 1872.1020466570649
2087.791205453381 1666.3338510029528
2088.4314854230743 2010.9185584619622
2089.0716111720867 1788.6091288469538
2089.7115827371617 1689.0538666902946
2090.351400155023 1649.2476323968197
2090.991063462385 1609.454382580665
2091.6305726959527 1661.095938078704
2092.2699278924047 1775.289981085572
2092.9091290884153 1889.7910157279105
2093.548176320641 1596.276175306864
2094.187069625721 1929.005609987819
2094.8258090402887 1749.6452653142012
2095.464394600951 1926.2135504725102
2096.102826344313 1813.3449277338889
2096.741104306955 1726.668896828524
2097.379228525453 1639.8035500571586
2098.017199036358 1695.7846572622027
2098.6550158762147 2158.4954961581357
2099.2926790815527 1987.4093919611507
2099.9301886888825 2013.1757368140782
2100.5675447347076 2012.9558251823753
2101.2047472555114 2021.0081612361696
2101.841796287761 1707.9596397693163
2102.47869186792 1942.2834734305502
2103.1154340324265 1870.75773235517
2103.752022817709 1869.2295877015956
2104.388458260184 1917.6953391089537
2105.024740396251 2053.2627091077943
2105.660869262292 1819.404986425492
2106.296844894685 2099.7146982815184
2106.93266732978 1996.9624098447744
2107.5683366039284 1600.7653196979209
2108.2038527534532 1814.836343090333
2108.8392158146726 2063.0676993212555
2109.4744258238843 2122.1379175842385
2110.1094828173755 1780.8075461024132
2110.744386831422 2295.0294035564393
2111.3791379022787 2082.1560216653374
2112.01373606619 2146.5079839616947
2112.648181359389 1988.5127679507327
2113.28247381809 1894.23791251624
2113.916613478492 1802.0741096281556
2114.550600376786 1980.283091987982
2115.1844345491445 2000.817556562446
2115.818116031729 1743.8879037658085
2116.451644860679 1789.5589079105175
2117.085021072133 1703.5625980205327
2117.718244702204 1712.4935940482787
2118.3513157869984 1831.2769592620975
2118.984234362604 1716.704154272024
2119.617000465092 1762.1371928216493
2120.249614130529 2133.2791645298084
2120.8820753949585 1799.2270954995026
2121.5143842944162 1880.4207473874987
2122.14654086492 1691.846763730487
2122.7785451424734 2036.3110824284092
2123.4103971630702 2073.6185359837486
2124.042096962681 2111.2408574867227
2124.6736445772767 1954.9352036827327
2125.305040042802 1697.0569360100883
2125.936283395191 1925.6392714186459
2126.567374670365 1868.7351141512456
2127.198313904233 1609.4619435941427
2127.8291011326855 1659.0166717781187
2128.4597363916037 1708.4779292992582
2129.0902197168507 1974.7905902082334
2129.720551144279 1681.4482841491536
2130.3507307097225 1909.2518939300116
2130.980758449008 2178.352353920577
2131.6106343979427 1789.428999961825
2132.2403585923203 2058.5667368036015
2132.8699310679276 2099.5328693378606
2133.499351860526 1887.0444785991167
2134.1286210058715 2025.369733139623
2134.7577385397053 1690.2114171892067
2135.3867044977487 1787.4477578996964
2136.0155189157176 1985.0112223986307
2136.644181829308 1993.8891180417127
2137.2726932742025 1653.2901845732827
2137.901053286074 1994.477294889295
2138.5292619005777 1835.506261934431
2139.1573191533535 1947.6679362786058
2139.7852250800315 2007.2630858694888
2140.4129797162295 2136.225946495382
2141.0405830975433 1630.5605301046505
2141.6680352595613 2188.180456735216
2142.2953362378576 1609.7039939628319
2142.9224860679915 1791.933810665095
2143.549484785508 1854.3881523290288
2144.1763324259373 1966.3201877039858
2144.803029024799 1681.8290068616584
2145.429574617594 1882.4388456043375
2146.0559692398165 2029.9590850641591
2146.682212926942 1626.2920008785907
2147.308305714432 1820.5736355909853
2147.9342476377333 1934.8729014030698
2148.5600387322847 1943.6385178723972
2149.185679033506 2070.8715796280258
2149.8111685768017 1963.9491516033518
2150.4365073975678 1735.9148334679219
2151.061695531187 1905.879659424661
2151.686733013021 1947.315493947325
2152.311619878423 1711.4696980555498
2152.9363561627342 1955.1955092863795
2153.560941901278 1788.0199932349237
2154.1853771293663 1976.9193967677613
2154.809661882293 1954.1124227231278
2155.433796195348 1977.2509561288905
2156.0577801037944 2095.2692616923227
2156.681613642895 1984.3350320173645
2157.3052968478896 1832.031024947737
2157.928829754006 1800.5366987665875
2158.552212396462 1865.616269732618
2159.1754448104566 1678.4778567345297
2159.7985270311783 1663.9717269589553
2160.4214590938027 1458.788279629764
2161.0442410334927 1635.4074681574498
2161.6668728853874 1679.4231399302957
2162.289354684628 1674.4708998587898
2162.911686466332 1692.8209743968316
2163.533868265602 1817.363667258021
2164.1559001175337 2092.406821502649
2164.7777820572046 2066.879080263277
2165.399514119681 1685.5362112762518
2166.021096340013 1449.089312853553
2166.6425287532384 1582.215435663809
2167.263811394385 1715.6523688798138
2167.8849442984574 1945.2074001137014
2168.505927500455 1597.7833716602916
2169.126761035366 1818.9331103073243
2169.7474449381552 1717.9524018525703
2170.367979243778 1510.8247858688978
2170.9883639871823 1776.3205798420936
2171.608599203293 1722.3413806266701
2172.2286849270276 2239.8504754156515
2172.8486211932886 2261.255233494632
2173.4684080369625 1726.5890270472078
2174.0880454929265 1583.643947465733
2174.7075335960417 1773.1879313343156
2175.3268723811543 2018.7545649968117
2175.9460618831 1927.2833586095257
2176.565102136701 1651.3140012963424
2177.1839931767627 1731.151634350932
2177.802735038078 1811.2251279809138
2178.421327755432 1621.9340251957524
2179.0397713635866 1810.6758971097395
2179.658065897298 1648.820937150403
2180.276211391305 1820.5568911990147
2180.8942078803357 1644.7623027042341
2181.5120553991 1910.4941590484334
2182.129753982299 1765.1231009109401
2182.7473036646206 1763.0721104821744
2183.3647044807367 1871.2637616303502
2183.9819564653044 1687.7991146539832
2184.599059652968 2017.2243881732961
2185.216014078367 1973.8557743191654
2185.832819776113 2010.6892801799215
2186.4494767808137 2047.4951719316555
2187.065985127063 1963.0688800205396
2187.682344849436 1837.6353329100518
2188.298555982501 2140.307970171906
2188.9146185608097 1863.8651906037496
2189.530532618901 1782.5118719340687
2190.1462981912937 1963.3842361683262
2190.761915312507 1909.2556191418385
2191.377384017036 1919.113578083588
2191.9927043393654 1847.3017919346034
2192.6078763139667 1585.7941419123715
2193.2228999753006 1596.9403185092565
2193.837775357808 1608.136994486881
2194.452502495922 1500.305321393801
2195.0670814240602 1641.5538218496063
2195.6815121766285 1903.7397462143992
2196.2957947880186 2215.8591701915775
2196.9099292926057 1811.405081147073
2197.523915724758 1996.1940680936975
2198.137754118825 1782.1493565038916
2198.7514445091456 2090.109660560684
2199.3649869300443 2046.9658043843338
2199.9783814158327 2003.8071489413737
2200.5916280008096 2364.5231577581535
2201.2047267192593 2019.8376375612213
2201.8176776054515 1883.711045071214
2202.430480693649 1801.413015162614
2203.0431360180955 1919.1320001015133
2203.6556436130195 1952.2846159750304
2204.268003512645 1968.8625032313976
2204.8802157511727 1985.575284953044
2205.492280362796 2101.67881380824
2206.1041973816937 1884.9652222603302
2206.715966842032 1739.1126443947571
2207.3275887779655 1441.1098295966135
2207.93906322363 1652.5007099242855
2208.550390213153 1990.868813005729
2209.1615697806465 1785.757554313616
2209.7726019602105 1527.810063187279
2210.3834867859277 1447.019305976231
2210.9942242918787 1785.2925821818894
2211.6048145121167 1728.1959764689714
2212.2152574806914 2345.0836503474547
2212.825553231638 1726.8263123676152
2213.435701798975 2364.218665160839
2214.045703216707 1585.7645921502146
2214.655557518832 1609.5999858164262
2215.2652647393297 1605.366683345137
2215.874824912169 1676.5738449712237
2216.4842380713 1748.1350519746295
2217.09350425067 1714.7315637417366
2217.7026234842033 1625.7494299897664
2218.311595805819 2001.4508885128066
2218.9204212494133 1738.279554292822
2219.52909984888 2034.7418726485812
2220.137631638092 1976.0911502016843
2220.7460166509154 1917.1937255045937
2221.354254921198 1805.7547175656741
2221.9623464827764 1732.8091066530426
2222.5702913694713 1659.7162909096514
2223.178089615096 1943.0798831914042
2223.7857412534486 1618.1931406291233
2224.39324631831 1475.6386887021558
2225.000604843457 1481.295093962462
2225.607816862641 1717.066024089753
2226.214882409611 1953.1288323194271
2226.8218015180973 1850.5036875466262
2227.4285742218217 1670.9412987610806
2228.0352005544864 1884.6599383567336
2228.6416805497847 1761.1770684965347
2229.248014241399 1718.6429021770819
2229.8542016629945 1900.0020970763908
2230.460242848223 2081.590601135053
2231.0661378307304 2123.4215651799755
2231.671886644139 1767.5350295008707
2232.277489322065 1661.1322515743882
2232.8829458981127 1335.0987669674792
2233.48825640587 1896.0205342793638
2234.0934208789095 2336.865134516564
2234.6984393507955 2159.266180349475
2235.3033118550793 2001.8869953505023
2235.9080384252975 1972.7175396988418
2236.5126190949723 1677.8889326972574
2237.1170538976166 1576.9599754777073
2237.721342866729 1749.3237934357571
2238.32548603579 1921.9723259775824
2238.9294834382763 1891.3046516543322
2239.533335107646 1620.1814326351177
2240.1370410773434 1919.2290855899937
2240.740601380803 1684.3768981087928
2241.3440160514474 1715.095024670256
2241.9472851226783 1735.6005611686294
2242.550408627896 1864.3323462932822
2243.1533866004793 1993.3109388703215
2243.756219073799 1880.0516822535938
2244.3589060812064 1601.373011062244
2244.961447656049 1682.549214878411
2245.5638438316564 1768.3452768942002
2246.166094641343 1941.6383112472479
2246.7682001184166 1659.188960968603
2247.3701602961664 1895.04637846701
2247.971975207871 1858.3425133775268
2248.5736448867974 2093.3387351709985
2249.175169366197 1885.665098055722
2249.7765486793123 1832.2580900131773
2250.3777828593684 1827.7793226490635
2250.9788719395783 1839.5643272324683
2251.579815953146 1851.2620883592772
2252.1806149332606 1425.661384298945
2252.781268913097 1650.5104812549853
2253.381777925817 1394.52646247455
2253.9821420045737 1713.8020764711305
2254.5823611825035 2040.981078022424
2255.1824354927303 1626.1679048755443
2255.782364968365 1631.0118618331403
2256.38214964251 1635.9133434456085
2256.9817895482483 1533.6236083139274
2257.5812847186553 1799.030728011466
2258.180635186791 1629.2123880382321
2258.779840985704 1788.4805160801704
2259.37890214843 1719.3049244990139
2259.97781870799 1738.1569655804014
2260.5765906973957 1757.056972174031
2261.175218149645 1628.8491461799283
2261.773701097718 1624.2387758475736
2262.3720395745895 1619.577611104322
2262.970233613216 1480.2020870113336
2263.568283246548 1591.8867126409395
2264.1661885075137 1682.4631041482887
2264.763949429038 1779.1831838608844
2265.3615660440246 1926.0818397488906
2265.959038385374 1922.112283538342
2266.5563664859637 1918.1860401907124
2267.153550378669 1652.0283862292658
2267.7505900963424 1717.3365807105936
2268.3474856718312 1566.566232844101
2268.9442371379664 1703.8086080706555
2269.5408445275643 1537.6603733484726
2270.1373078734377 1835.730409385886
2270.7336272083758 1782.6196760594953
2271.32980256516 1507.346296013821
2271.925833976562 1692.8476294752309
2272.5217214753357 1642.3903559627256
2273.117465094223 1591.7991939379299
2273.7130648659586 1843.9641441779306
2274.308520823257 1681.0991877719305
2274.903832998827 1847.5653245681399
2275.4990014253563 1585.6828032776057
2276.094026135528 1587.1887547138047
2276.6889071620117 1588.6428957727778
2277.2836445374614 1769.3815559502993
2277.878238294519 1770.8278807653064
2278.472688465812 1642.885535320343
2279.066995083962 1514.6946243320726
2279.6611581815705 1715.8663301686793
2280.255177791232 1954.61723694204
2280.8490539455233 1666.4795132822376
2281.442786677013 1979.602533101771
2282.0363760182554 1947.197062684488
2282.6298220017943 1676.552238399277
2283.223124660155 2035.3886829698072
2283.816284025859 1822.237375013869
2284.4093001314086 1606.3338049904744
2285.002173009292 1965.7374358792626
2285.5949026919952 1681.3900339450288
2286.1874892119777 1752.3363524107845
2286.7799326016993 1519.5717261317452
2287.3722328936 1701.9104168152346
2287.964390120109 1514.011864795966
2288.556404313642 1664.9816071516143
2289.1482755066027 1727.8570334929802
2289.7400037313873 1790.7615761644581
2290.3315890203703 1825.3163098147165
2290.9230314059205 2027.3928613867633
2291.5143309203904 1644.8750868220595
2292.1054875961236 1655.8083970787745
2292.6965014654506 1964.6332966951788
2293.287372560684 1884.146307031248
2293.878100914131 1828.1948309598451
2294.468686558086 1772.1827330943245
2295.059129524827 1885.4807851740647
2295.649429846617 2072.25990101136
2296.239587555716 1843.3339249825472
2296.8296026843636 1889.886322052723
2297.419475264791 2235.104836749025
2298.0092053292137 1879.0183611097577
2298.598792909839 1744.5918891091733
2299.1882380388597 1960.5032239838438
2299.777540748455 2253.514747628091
2300.3667010707904 1874.9584056573142
2300.9557190380256 1888.8910571045406
2301.544594682302 2055.2565591640387
2302.1333280357503 2016.9976969871818
2302.721919130485 1978.733672982972
2303.3103679986198 1947.7798373855173
2303.898674672242 2217.860814609882
2304.486839183437 2160.1036940163035
2305.0748615642697 2102.5015669060695
2305.6627418468015 1681.9382447950215
2306.2504800630704 1672.5000600623948
2306.8380762451143 1731.0132786850481
2307.425530424949 1843.9100940054218
2308.012842634582 1957.0516723134551
2308.6000129060103 1921.9523511810162
2309.187041271214 1860.784696815615
2309.773927762164 1799.5089762809682
2310.3606724108213 1775.589818809894
2310.9472752491274 1626.1164016418181
2311.5337363090184 1859.9275733642357
2312.120055622414 1718.4114418233773
2312.706233221221 1576.5462772808082
2313.2922691373424 1589.9684690635183
2313.8781634026564 1601.7639284682984
2314.463916049037 1613.5636089734953
2315.049527108342 1988.7974824834157
2315.6349966124235 2004.3180056096214
2316.2203245931123 1942.363054543525
2316.8055110822315 1933.8478329748705
2317.3905561115935 1925.275995370396
2317.9754597129977 1636.3329207535712
2318.560221918229 1684.531752695749
2319.1448427590603 1732.8767268421652
2319.729322267256 1444.497223250593
2320.313660474563 1825.1497481683678
2320.8978574127195 1833.3392407823485
2321.481913113452 1841.6418898683637
2322.0658276084705 1610.6266837809933
2322.6496009294806 1696.445361223082
2323.233233108165 1781.680314413213
2323.8167241762058 1867.1235326735957
2324.4000741652617 1815.9871358521668
2324.983283106987 2031.7005311449186
2325.5663510330232 2192.2569396456493
2326.1492779749933 2048.1543380097023
2326.7320639645204 1923.7209748929363
2327.3147090332004 2148.835489241156
2327.897213212629 1804.3414909634812
2328.4795765343843 1960.075390241123
2329.0617990300307 1545.489692093581
2329.643880731124 2075.8304214521295
2330.22582166921 1709.984197433288
2330.807621875816 1770.5482500126504
2331.3892813824623 1644.895623895188
2331.9708002206517 1500.4853328924112
2332.5521784218818 1653.9596493503486
2333.133416017634 1807.8180935231044
2333.7145130393765 1760.3734189076542
2334.295469518571 2026.346470961726
2334.876285486658 2122.364674320753
2335.456960975076 1743.9529681640936
2336.037496015242 1875.829995069309
2336.6178906385667 1645.2391961055462
2337.198144876451 1880.1750548623609
2337.778258760278 1662.8196908198213
2338.3582323214214 1801.301256236302
2338.938065591243 1940.0594622202038
2339.517758601087 1959.4440142322812
2340.0973113822965 1704.8160049134647
2340.676723966193 1642.7773813539966
2341.255996384094 1663.45285666263
2341.835128667295 1884.6585328815404
2342.4141208470883 1725.6645359579495
2342.992972954751 1777.6535034038382
2343.5716850215467 1711.8369788079435
2344.1502570787306 1487.9137818080167
2344.7286891575386 1742.9129948055204
2345.3069812892045 2245.133076141595
2345.885133504944 2144.263151355629
2346.4631458359618 1616.4890513249004
2347.04101831345 1593.1672173880308
2347.6187509685915 1782.4523917733877
2348.196343832553 1657.9265716695452
2348.7737969364935 1477.3958056502277
2349.351110311558 1562.1635278007593
2349.9282839888765 1647.0867477834013
2350.5053179995757 1620.263041037294
2351.0822123747585 1556.7241996562866
2351.658967145526 1495.7982817106044
2352.2355823429643 1434.8573623248099
2352.812057998144 1962.6620987859812
2353.3883941421263 1590.4186396064545
2353.9645908059647 1690.5202959475077
2354.540648020693 1922.921736283833
2355.116565817336 1643.0615697343583
2355.6923442269126 1660.7525286018263
2356.2679832804224 1586.6336613263654
2356.8434830088518 1728.0085493979846
2357.41884344318 1869.610664610306
2357.994064614377 1779.3373762940478
