#exp_cfg={"servo_angle": 0.0, "laser_lim": 100.0, "servo_angle_to": 18.0, "laser_wup": 0.0, "bt_dev": "EnSpectr-25AE3", "laser_wdn_max": 0.0, "frames": 10.0, "servo_used": 0, "servo_calib_use": 0, "laser_wdn_min": 0.0, "servo_pix_from": 90.0, "cooler_tout": 300.0, "servo_angle_from": 0.0, "servo_calib": "[-1.9174921013161362e-09, 3.9322238269163779e-05, -0.27385609119055809, 653.59552119713567]", "laser_autoctl": 0, "servo_pix_to": 3682.0, "laser_pw": 100.0, "cooler_on": 0, "laser_volt": 4.0, "cooler_autoctl": 0, "cooler_curr": 70.0, "cooler_startup": 10.0, "laser_fixed_pw": 0, "gain": 1.3, "offset": 2.53059635486, "servo_calib_degree": 3.0, "laser_curr": 55.0, "shutter": 8200.0, "servo_calib_step": 1.0, "laser_fixed_curr": 0, "exp": 2000.0, "ccd_volt": 4.7, "bt_addr": "00:06:66:62:5A:E3", "servo_delay": 500.0, "laser_autooff": 1}
#proc_cfg={"flat_auto_wnd": 200.0, "flat_auto_fr": 200.0, "flat_auto_shift": 5.0, "yconv": 1, "flatten": 1, "flatten_strength": 100.0, "xfrom": 300.0, "auto_max_frame": 2000.0, "auto_signal": 48000.0, "flat_auto_tol": 0.1, "autoclip": 1, "xrel_range": 0.0, "flat_auto_to": 4000.0, "intensity_adj": 1.0, "xrel": 7852.0, "rmhot": 1, "flat_auto_slit": 4.999999999999997, "auto_ini_exp": 300.0, "auto_off": 0, "xto": 2860.0, "flat_auto_ref": "", "flat_auto_rank": 1, "autobackg": 0, "xrel_adj": 0.0, "auto_black_lvl": 1, "base_wnd": 100.0, "sub_baseline": 0, "xconv": 2, "auto_max_exp": 1000.0, "auto_total_exp": 10000.0, "auto_exp": 0, "rmripple": 0, "black_lvl": 8278.3625, "shutter_clip_adj": 0.0, "auto_bckg": 0, "flat_auto_thr": 0.9, "subbackg": 1}
316.8218498245369 18000.620565570258
317.89969571804795 17756.027884408853
318.977263876126 17708.240463897255
320.05455438786703 17622.707041303278
321.1315673423287 17626.626827230884
322.2083028285215 17627.60251948453
323.2847609354267 17449.857115934552
324.3609417519747 17453.666010309953
325.43684536705587 17369.058322920704
326.5124718695279 17196.047964858335
327.58782134820103 17266.905318705634
328.66289389184385 17186.56387572838
329.7376895891921 17026.70506395705
330.8122085289342 17083.220441428333
331.88645079971866 17005.593539969464
332.9604164901575 16860.55920985583
334.03410568881554 16887.020161173194
335.1075184842266 17026.115172580045
336.18065496487543 16829.28172304942
337.2535152192122 16785.430245421667
338.32609933564163 16873.569058345467
339.39840740253203 16692.635210895132
340.4704395082099 16762.441716803783
341.5421957409617 16640.729294253568
342.6136761890357 16724.5035901615
343.6848809406365 16554.42652269622
344.75581008392874 16487.88708561776
345.82646370703696 16482.966825801097
346.8968418980512 16424.816112194312
347.96694474501055 16468.634504504662
349.0367723359268 16407.237468309522
350.106324758759 16336.669879498677
351.1756021014353 16244.245256219618
352.2446044518383 16233.366609277098
353.31333189781435 16255.108040405868
354.38178452716966 16236.530909773131
355.449962427665 16229.18787603072
356.51786568702846 16182.28232757439
357.58549439294256 16237.16639449267
358.6528486330535 16234.096820298615
359.71992849496564 16115.717506681045
360.7867340662433 16139.373917149307
361.8532654344144 16206.270649226115
362.9195226869597 16258.802353596975
363.9855059113288 16011.853273400737
365.05121519492604 16019.835852315795
366.11665062511565 16131.001797041705
367.1818122892273 16201.486428527922
368.2467002745434 16132.254511923567
369.31131466831175 16032.635294082287
370.375655557742 16185.553870769005
371.4397230299983 16175.597720622438
372.5035171722102 16169.395490957419
373.5670380714637 16125.958066269077
374.6302858148101 16157.770122366099
375.6932604892554 16170.097909010767
376.7559621817709 16164.17090511465
377.81839097928605 15947.945650061713
378.8805469686886 16021.216057894748
379.94243023683157 16009.812395820476
381.0040408705263 16078.914907608074
382.0653789565458 15880.545143601852
383.1264445816196 15963.806898491026
384.1872378324406 15896.920220707383
385.2477587956637 15939.96701757886
386.3080075579037 15743.684516096266
387.3679842057336 15690.253459166886
388.4276888256918 15722.315832270364
389.48712150426945 15794.519935117325
390.54628232792857 15680.61299802603
391.6051713830857 15661.881966452866
392.66378875611736 15676.169952926639
393.7221345333637 15647.359995149522
394.7802088011249 15608.547287211335
395.838011645661 15568.950071250929
396.89554315319765 15470.351568403383
397.9528034099112 15427.59968393275
399.00979250194723 15307.771113612567
400.06651051541485 15328.117770741344
401.1229575363741 15430.808456955196
402.17913365085224 15190.303719494395
403.23503894483656 15284.1841734195
404.2906735042761 15074.261352815136
405.3460374150818 15090.28580429698
406.401130763119 15115.988948594319
407.455953634224 15085.075580821975
408.5105061141876 15006.320204823012
409.56478828876243 14902.197472439357
410.6188002436629 14932.764360953335
411.6725420645689 14823.656226350333
412.72601383711117 14930.336699300338
413.77921564689314 15006.129625092688
414.8321475794728 14868.664895137053
415.88480972036814 14794.256911013154
416.93720215506437 14920.173805243981
417.9893249690049 14700.341366245824
419.04117824759123 14626.951653046815
420.09276207619223 14655.599905267061
421.144076540133 14599.857760805235
422.1951217247042 14538.817693585312
423.24589771515275 14506.58984324992
424.2964045966928 14539.275735186418
425.34664245449494 14508.986970026346
426.3966113736933 14526.708905317242
427.4463114393875 14432.240638629719
428.49574273662984 14475.725431528312
429.5449053504417 14270.636637627109
430.5937993658026 14401.98892987939
431.6424248676558 14272.139655512763
432.6907819409007 14298.724719246015
433.73887067040596 14295.190310418062
434.7866911409965 14326.095033490457
435.8342434374608 14223.706258811562
436.88152764455117 14190.14089686434
437.9285438469724 14145.188364164449
438.9752921294057 14152.255160084484
440.02177257648145 14125.598405344168
441.06798527279716 14052.777312071805
442.1139303029122 14044.255761251226
443.1596077513459 14111.637518118921
444.2050177025794 14066.002703338736
445.25016024105753 14059.45914097529
446.2950354511886 14082.89919862719
447.33964341733736 14088.262278451972
448.383984223834 14043.337991511307
449.4280579549686 13884.530922710657
450.471864694995 13888.686382265081
451.5154045281306 13985.601656961942
452.5586775385509 13924.904831545175
453.60168381039693 13905.256635393205
454.64442342776783 14030.124330230192
455.6868964747264 13908.95039934724
456.7291030353008 13878.068854794226
457.77104319347563 13914.474120798444
458.8127170332027 13858.882276561635
459.854124638392 13825.725094643069
460.895266092919 13943.903521409893
461.93614148061897 13962.875200176519
462.97675088529104 14018.328339477124
464.01709439069236 13915.915558467352
465.0571720805492 13855.504752454382
466.0969840385442 13934.558314955942
467.1365303483253 14089.874353465475
468.17581109350067 13943.016347436273
469.2148263576437 13870.640614620428
470.2535762242878 13940.079193026148
471.29206077693016 14036.443264384076
472.33028009902773 14005.65149456173
473.3682342740012 14087.691302944626
474.40592338523857 14067.195006211177
475.4433475160804 14115.75438347898
476.4805067498364 14086.661585038335
477.51740116978 14117.94852031017
478.5540308591426 14245.01122238163
479.59039590112116 14377.175346970089
480.6264963788726 14410.960977436509
481.6623323755193 14735.82916879654
482.6979039741436 14690.385318016171
483.7332112577915 14925.888683148476
484.76825430947247 15211.120889673966
485.80303321215797 15163.454235751018
486.837548048783 15341.14324081447
487.8717989022425 15484.9864122167
488.90578585539697 15533.671812643352
489.9395089910686 15625.549874466107
490.97296839203955 15515.52324170869
492.00616414106116 15427.662148981413
493.0390963208429 15460.544380606088
494.0717650140559 15370.972363912264
495.10417030333883 15155.939312295939
496.1363122712901 15170.371923848794
497.16819100046814 14964.538094203934
498.1998065734024 14789.948419221502
499.2311590725767 14664.761184639714
500.26224858044407 14460.327171744435
501.2930751794156 14379.704795328198
502.3236389518679 14262.125156315242
503.35393998014115 13961.413108985395
504.38397834653733 14052.477408597299
505.4137541333221 14003.053050373352
506.4432674227228 13767.032014420261
507.4725182969323 13790.886639702494
508.5015068381035 13680.994867612084
509.53023312835467 13654.396220960441
510.55869724976765 13583.421248625838
511.58689928438434 13476.69286666746
512.6148393142121 13468.64793323731
513.6425174212218 13482.703218816469
514.6699336873462 13576.014653030357
515.6970881944835 13475.581032265993
516.7239810244901 13407.45255555848
517.7506122591931 13498.983632243495
518.7769819803761 13529.90783675341
519.8030902697901 13543.037035235626
520.8289372091476 13592.380422123784
521.8545228801249 13617.848420612881
522.8798473643619 13576.184501508815
523.9049107434621 13504.279334760733
524.9297130989908 13576.451869649285
525.9542545124805 13518.486436033747
526.9785350654201 13488.090241587252
528.0025548392696 13491.130072678663
529.0263139154504 13486.003529579795
530.0498123753423 13448.289586854851
531.073050300296 13352.09604967403
532.0960277716204 13330.151886376541
533.1187448705896 13217.452693029301
534.1412016784416 13230.162618700004
535.1633982763833 13315.810596556159
536.1853347455726 13183.346853887197
537.2070111671401 13165.150621139372
538.2284276221817 13043.455280630209
539.2495841917516 13024.873984138312
540.2704809568677 12993.342484834564
541.2911179985167 13041.215369191592
542.3114953976419 12821.2558858974
543.3316132351592 12880.31336007435
544.3514715919409 12744.037678413279
545.3710705488247 12743.33743837665
546.3904101866156 12709.390448831451
547.4094905860784 12709.095226972166
548.4283118279418 12639.465380343936
549.4468739929034 12691.416608164054
550.4651771616191 12624.93019366157
551.4832214147063 12559.823964924071
552.501006832761 12579.750369452337
553.5185334963226 12537.498242103673
554.5358014859103 12540.895697623568
555.5528108820035 12562.05584799029
556.5695617650363 12435.159948375092
557.5860542154242 12553.009558435744
558.6022883135283 12523.298399633588
559.6182641396881 12434.406042380637
560.6339817741991 12533.862096968109
561.6494412973225 12508.192096886583
562.6646427892883 12547.116049590533
563.6795863302796 12488.0496449176
564.694272000459 12415.413062710595
565.7086998799423 12498.468676925548
566.7228700488104 12489.191816665412
567.7367825871115 12427.744794768169
568.7504375748576 12514.560111355086
569.7638350920224 12493.28858175739
570.7769752185486 12461.127779977733
571.7898580343353 12516.408507998876
572.802483619258 12466.923441072186
573.8148520531431 12692.703261739474
574.8269634157932 12663.164293023383
575.8388177869692 12611.1881298653
576.8504152463938 12701.324993383376
577.8617558737587 12887.118858724383
578.8728397487175 12755.225524490665
579.883666950891 12916.414134631978
580.8942375598654 12985.05483407355
581.9045516551851 13118.55776981304
582.9146093163617 13218.484689556726
583.924410622878 13276.02218901368
584.9339556541727 13194.23225429434
585.9432444896538 13412.688141484969
586.9522772086875 13403.174916245334
587.9610538906127 13254.40515855999
588.9695746147318 13154.360362439993
589.9778394603054 13196.686009125726
590.985848506567 13129.945835952454
591.9936018327098 13022.307998883085
593.0010995178891 12813.336996810376
594.0083416412344 12923.16662575197
595.0153282818283 12740.00275811234
596.0220595187293 12724.526914529995
597.0285354309508 12629.757312005719
598.0347560974806 12545.298062196835
599.0407215972609 12504.407612428966
600.0464320092051 12460.027461084026
601.0518874121954 12526.459077120142
602.0570878850685 12457.329696109193
603.062033506636 12421.332840282334
604.0667243556636 12461.804959501154
605.0711605108936 12367.531106464532
606.0753420510264 12610.819700417283
607.0792690547278 12471.879459346539
608.082941600629 12473.745326481867
609.0863597673306 12459.800770197322
610.0895236333909 12640.65193858454
611.0924332773357 12735.44708952133
612.0950887776617 12781.036856445016
613.0974902128219 12881.04879238622
614.0996376612384 13052.966606003818
615.1015312013005 13007.441944703154
616.1031709113595 13211.334590008511
617.1045568697336 13180.601774304037
618.1056891547069 13434.096960783809
619.1065678445229 13541.624327885394
620.1071930173985 13895.26765858106
621.1075647515099 13940.697153349282
622.1076831250048 14120.517879749861
623.1075482159849 14309.951893116511
624.1071601025305 14540.100112319054
625.1065188626781 14741.170675453151
626.105624574433 15098.667970104967
627.1044773157682 15162.763849397506
628.1030771646128 15266.49155750798
629.1014241988742 15500.893145085158
630.0995184964158 15644.0197394293
631.0973601350688 15621.322480166005
632.0949491926294 15880.995731528552
633.0922857468631 15583.60912729089
634.089369875499 15719.77749506196
635.0862016562278 15615.629633058334
636.0827811667077 15350.12497206022
637.0791084845641 15389.894405057526
638.0751836873878 15113.491147426092
639.0710068527369 15158.785222818518
640.0665780581294 14839.067291316285
641.0618973810506 14700.734849015373
642.0569648989604 14526.0452435913
643.0517806892676 14390.644345066714
644.0463448293649 14189.541928776729
645.040657396592 13904.05923812347
646.0347184682723 13826.203935264686
647.0285281216875 13599.306082132036
648.0220864340772 13478.891361186557
649.0153934826558 13230.278098405475
650.0084493446047 13231.988683930243
651.0012540970674 13050.13020001361
651.9938078171526 12869.986561431331
652.9861105819346 12707.733524560774
653.9781624684565 12770.836245096692
654.9699635537254 12537.453794605803
655.9615139147136 12605.341285238015
656.9528136283589 12345.288306524806
657.9438627715699 12486.787061148294
658.9346614212154 12314.918687984751
659.925209654135 12153.915052689765
660.9155075471263 12200.862594386186
661.9055551769616 12232.121665540271
662.895352620375 12358.259693349793
663.8848999540678 12244.593932937405
664.8741972547068 12061.460313725154
665.863244598926 12011.95997721878
666.8520420633213 12069.767869266485
667.8405897244611 12048.156162100264
668.8288876588758 11967.694851147073
669.8169359430613 12063.43892546809
670.8047346534822 12014.362591108102
671.7922838665672 11924.524695264041
672.7795836587156 11952.835808949207
673.766634106285 12026.462963339221
674.7534352856092 11856.78483752681
675.7399872729766 11820.142777628393
676.7262901446538 11901.666743275126
677.712343976862 11869.08535621768
678.6981488457986 11947.280121253238
679.6837048276229 11907.887246508932
680.6690119984596 11987.05380134498
681.6540704344043 11890.994998223234
682.6388802115107 11902.834939482742
683.6234414058108 11928.152984555269
684.6077540932874 11868.98693518058
685.591818349907 11894.83466147754
686.575634251587 11720.363311744472
687.5592018742263 11701.540194742
688.5425212936734 11595.329514222485
689.5255925857564 11589.323332603059
690.5084158262707 11578.078590977817
691.4909910909646 11551.674488461147
692.4733184555644 11449.670568630143
693.4553979957618 11459.159923599207
694.4372297872123 11433.870344210012
695.4188139055404 11375.36005854452
696.4001504263324 11326.175498899305
697.3812394251509 11371.555041624657
698.3620809775111 11210.83392815488
699.3426751589104 11382.953154615894
700.3230220448004 11236.042183222808
701.3031217106054 11290.099326510977
702.2829742317172 11361.2315120218
703.2625796834873 11200.690253395464
704.2419381412474 11158.260901269956
705.22104968028 11159.912825229423
706.1999143758458 11236.313763061407
707.178532303169 11169.880960464683
708.1569035374378 11227.642217242897
709.1350281538107 11260.123740594925
710.1129062274158 11222.602577654137
711.0905378333373 11375.263855044499
712.0679230466376 11286.271267062388
713.0450619423427 11402.754123074901
714.0219545954424 11474.416535394963
714.9986010808989 11429.10959809486
715.9750014736292 11519.10548883425
716.9511558485392 11577.831607050592
717.9270642804786 11624.00024118725
718.9027268442787 11688.447984510492
719.8781436147328 11695.695049282374
720.8533146666014 11614.076799331799
721.828240074612 11599.317915880285
722.8029199134635 11514.774293555385
723.7773542578125 11451.42584188189
724.751543182294 11339.193347804263
725.7254867615029 11361.39905300469
726.6991850700015 11208.961968859487
727.6726381823228 11177.290870651199
728.6458461729599 11207.366893212244
729.6188091163858 11148.404142918562
730.5915270870246 11167.036798903278
731.5640001592856 11031.316943908303
732.536228407529 11158.87769999659
733.5082119060917 11154.025818248123
734.4799507292755 11103.542265537046
735.4514449513481 10990.879921518204
736.4226946465496 11192.490032121043
737.3936998890786 11194.845339504847
738.3644607531078 11038.659274267628
739.3349773127793 11024.325150776927
740.3052496421951 11143.076585176645
741.27527781543 10971.818430786987
742.2450619065221 10899.76650583928
743.2146019894826 10941.951585413828
744.183898138288 10884.032350235564
745.1529504268801 10819.648129666622
746.1217589291682 10768.998105736453
747.0903237190341 10586.193225185742
748.058644870318 10710.356567985787
749.0267224568397 10634.658715805208
749.994556552374 10521.948870757627
750.9621472306771 10619.245388495217
751.9294945654583 10666.792438702594
752.8965986304011 10688.90190688728
753.8634594991636 10622.723967766282
754.8300772453586 10677.980829290686
755.7964519425768 10695.913086338482
756.762583664371 10767.447280411954
757.7284724842611 10737.775744114628
758.6941184757416 10694.295879241432
759.6595217122667 10747.997501471273
760.6246822672638 10706.371010048162
761.5896002141235 10666.33314550242
762.5542756262093 10709.104757949279
763.5187085768503 10702.285053505266
764.4828991393406 10725.964664492782
765.4468473869474 10679.179853744667
766.4105533929032 10568.679767588837
767.3740172304078 10614.639242433213
768.3372389726283 10584.834238613517
769.3002186926988 10483.011582331965
770.2629564637282 10386.84819541248
771.2254523587872 10468.648651724614
772.1877064509154 10333.843658099608
773.1497188131179 10188.630268789737
774.1114895183728 10122.053236454274
775.0730186396268 10218.204649722818
776.0343062497905 10119.331253885544
776.9953524217381 9994.63767052729
777.9561572283274 10099.467062384596
778.9167207423689 10058.222802514972
779.8770430366476 10023.61131966006
780.8371241839159 9992.087063780893
781.7969642568951 9965.0122304939
782.7565633282757 10199.596770964083
783.7159214707099 9955.759974529985
784.6750387568281 9964.393340297289
785.6339152592227 10000.918192112735
786.5925510504512 9860.520637102241
787.5509462030477 9925.913540325142
788.5091007895098 10020.847090641064
789.4670148823006 9966.18236284226
790.4246885538596 9989.767452692375
791.3821218765861 9947.19672908461
792.3393149228505 9837.717840733432
793.2962677649975 9959.778621109015
794.2529804753303 9993.286460957346
795.20945312613 10050.67152159361
796.1656857896378 9995.685208843239
797.1216785380675 10126.158207167096
798.0774314435985 10112.27815139524
799.0329445783846 10264.784904721053
799.9882180145414 10293.265634938916
800.9432518241574 10280.721270628675
801.89804607929 10550.17568656525
802.852600851962 10502.196360040884
803.8069162141637 10548.616150265509
804.760992237856 10649.425469580217
805.714828994971 10626.02406477102
806.6684265574077 10756.883457744352
807.6217849970271 10619.814310055586
808.574904385674 10661.882348675532
809.527784795142 10560.616190388713
810.4804262972102 10779.981132249199
811.4328289636178 10500.034261342826
812.3849928660748 10245.0571981746
813.3369180762638 10360.415206510026
814.2886046658241 10201.568095112596
815.2400527063783 10101.585153323536
816.1912622695108 10022.172035657717
817.1422334267718 9999.155961964749
818.0929662496856 9875.7581168778
819.0434608097457 9726.305441799388
819.9937171784059 9661.947856073954
820.9437354271013 9577.548318568943
821.8935156272255 9677.727114563011
822.8430578501484 9546.808512262056
823.7923621672016 9441.83427253427
824.7414286496896 9502.448283380263
825.6902573688876 9416.964936294851
826.6388483960363 9392.797206982254
827.5872018023492 9359.641659618348
828.5353176590033 9390.39019588199
829.4831960371503 9293.78257157895
830.4308370079016 9317.803489589674
831.3782406423525 9289.658257074861
832.3254070115545 9377.770238552943
833.2723361865319 9190.004614857547
834.2190282382799 9227.239042463687
835.1654832377644 9235.174271177466
836.1117012559116 9201.586301379106
837.0576823636256 9275.539665306256
838.003426631778 9212.961934311224
838.9489341312074 9035.103599293747
839.8942049327197 9202.966882666897
840.8392391070975 9318.591305337804
841.7840367250865 9209.9137507833
842.7285978573982 9124.299548042505
843.672922574724 9231.881729522564
844.6170109477152 9146.906360375695
845.560863046996 9193.495000286566
846.5044789431595 9109.648433764434
847.4478587067697 9163.904900196236
848.3910024083561 9259.896105967626
849.333910118421 9168.879597467367
850.2765819074339 9104.038874442256
851.2190178458332 9294.411275300969
852.161218004032 9259.89977570073
853.1031824524016 9189.692700340325
854.0449112612987 9149.601356460433
854.9864045010327 9272.271280631501
855.9276622418947 9106.62288854022
856.8686845541379 9201.305330817511
857.8094715079915 9150.970279986952
858.7500231736467 9270.231993658206
859.690339621271 9234.786849241906
860.6304209209939 9246.93483924505
861.5702671429244 9123.461585926701
862.5098783571284 9275.561401609308
863.4492546336569 9301.013856760092
864.3883960425155 9201.214042975032
865.3273026536863 9218.063011179005
866.2659745371238 9313.384335443157
867.2044117627465 9383.159525961612
868.1426144004472 9261.667165766092
869.0805825200823 9372.588006575217
870.0183161914847 9442.740980926455
870.9558154844526 9567.492336544423
871.8930804687552 9495.5805477108
872.8301112141307 9438.54364290072
873.7669077902865 9638.243283439078
874.7034702669062 9720.158761116993
875.6397987136315 9693.558633366947
876.5758932000863 9680.607520773443
877.5117537958522 9844.3900873524
878.4473805704911 9786.342383536732
879.3827735935283 9763.028726348302
880.3179329344603 9823.436075546462
881.2528586627541 9819.735140003198
882.1875508478479 9871.544247280537
883.1220095591489 9753.3290327477
884.0562348660296 9680.781279224773
884.9902268378391 9806.382612480298
885.9239855438955 9735.401028682167
886.8575110534839 9598.338116989518
887.7908034358588 9611.749244671524
888.7238627602474 9643.17564818417
889.6566890958475 9509.413706480258
890.5892825118208 9333.019539509336
891.5216430773125 9372.621118565225
892.4537708614189 9321.27572749069
893.3856659332196 9249.037069860522
894.3173283617652 9107.99487998057
895.2487582160684 9191.58049982357
896.179955565116 9115.72277489249
897.110920477864 8885.180810193338
898.0416530232451 8951.854211702212
898.9721532701478 8825.15019653346
899.9024212874428 8975.863950306502
900.8324571439662 8856.754364686401
901.7622609085302 8813.201669297905
902.6918326499072 8737.960135357556
903.6211724368477 8801.135899323248
904.5502803380696 8792.362849775147
905.4791564222614 8829.691034175583
906.4078007580792 8719.40824888209
907.3362134141571 8685.910780743328
908.2643944590909 8756.505573826234
909.1923439614493 8690.862184819529
910.1200619897754 8560.518599664505
911.0475486125779 8823.107845911098
911.9748038983344 8596.094295468103
912.9018279155007 8684.139254015468
913.8286207324982 8551.872530692757
914.7551824177117 8649.68864316044
915.6815130395116 8560.022332778659
916.6076126662283 8484.308536999017
917.533481366163 8492.570703885609
918.4591192075914 8636.256156818916
919.3845262587565 8704.707926748979
920.3097025878706 8530.383762566333
921.2346482631237 8488.14182942412
922.1593633526682 8580.9345426284
923.0838479246304 8615.010897208685
924.0081020471061 8638.943191816474
924.9321257881656 8428.844352995773
925.8559192158464 8448.983250200388
926.7794823981512 8483.70098580079
927.7028154030686 8447.349748159635
928.6259182985414 8411.888320097587
929.5487911524906 8540.71753448931
930.4714340328119 8476.424392422221
931.3938470073608 8335.440780294874
932.3160301439748 8468.87866423107
933.2379835104548 8434.910163415785
934.1597071745709 8611.278044699688
935.0812012040769 8389.006064795853
936.002465666681 8498.552972491783
936.9235006300696 8520.420978081152
937.8443061619055 8528.205219263451
938.7648823298077 8372.587869287796
939.6852292013809 8467.067268272884
940.6053468441951 8597.136342322907
941.5252353257874 8353.164097650897
942.4448947136698 8490.027063622063
943.364325075323 8401.515976374987
944.2835264782043 8424.107479815157
945.2024989897309 8517.476166230455
946.1212426773054 8451.9193303327
947.0397576082851 8464.518316655849
947.9580438500125 8489.384967653363
948.8761014697939 8568.498097212443
949.7939305349064 8497.341090581702
950.7115311125999 8456.70540154226
951.6289032700952 8456.97923122665
952.5460470745875 8517.828077502136
953.4629625932339 8454.02437253923
954.3796498931715 8530.033758722715
955.2961090415029 8411.749143009958
956.2123401053068 8546.521000795068
957.1283431516276 8494.093253980525
958.0441182474842 8412.987232346606
958.9596654598663 8536.99758034715
959.8749848557309 8501.118001345962
960.7900765020167 8440.735119020876
961.7049404656209 8404.73132594344
962.6195768134185 8435.887283925136
963.5339856122537 8380.501225848579
964.4481669289453 8416.6299850224
965.3621208302793 8343.11426042151
966.2758473830145 8325.300823779695
967.1893466538822 8485.897582759257
968.1026187095813 8358.228586972415
969.0156636167867 8462.942497222399
969.9284814421426 8366.35435166041
970.8410722522622 8353.439062532441
971.753436113735 8349.653422356327
972.6655730931161 8432.394652258548
973.5774832569368 8424.859737917459
974.4891666716958 8340.90092568564
975.4006234038698 8350.241006379036
976.3118535198955 8323.300038986517
977.2228570861935 8477.713478978889
978.1336341691494 8431.329591416394
979.0441848351202 8320.078034185337
979.9545091504333 8419.506381451904
980.864607181391 8424.361692175913
981.7744789942699 8451.389310007073
982.6841246553086 8492.579522023301
983.5935442307236 8360.403307775576
984.5027377867027 8518.208988353948
985.4117053894024 8530.398445172828
986.3204471049557 8451.315023671359
987.2289629994648 8541.943912798533
988.1372531390007 8641.691160138873
989.0453175896091 8532.842470333693
989.9531564173067 8506.127923019269
990.860769688079 8444.90753109465
991.7681574678918 8606.0686374051
992.6753198226706 8692.878137006719
993.582256818323 8523.96532081833
994.4889685207218 8667.990105163466
995.3954549957143 8782.454938663886
996.301716309119 8795.942701634967
997.2077525267232 8711.717209360835
998.1135637142943 8735.365982188758
999.0191499375615 8828.287623822715
999.924511262232 8762.638850353656
1000.8296477539861 8765.990096995183
1001.7345594784656 8711.45845303504
1002.6392465012996 8654.162318130046
1003.5437088880753 8731.594132474162
1004.4479467043584 8642.767983615586
1005.3519600156869 8530.994548196504
1006.2557488875718 8615.544002440893
1007.1593133854858 8659.484846537154
1008.0626535748888 8617.922957394254
1008.9657695212009 8468.86327964801
1009.8686612898182 8661.648210963893
1010.7713289461135 8573.993979430961
1011.6737725554212 8525.861529092621
1012.5759921830577 8554.75532619802
1013.4779878943027 8566.380791284
1014.379759754418 8484.120642443975
1015.2813078286254 8385.64490842816
1016.18263218213 8301.178530061266
1017.0837328801026 8357.755152891066
1017.9846099876886 8488.189075532546
1018.8852635700023 8307.244833000263
1019.7856936921362 8196.719115960352
1020.6859004191447 8428.778259210176
1021.5858838160675 8335.039272284572
1022.4856439479063 8220.63460322944
1023.3851808796389 8224.332401037014
1024.2844946762143 8259.28462863569
1025.183585402554 8210.736002397094
1026.082453123554 8070.564989897999
1026.9810979040776 8188.350160465289
1027.8795198089647 8008.776671411467
1028.777718903024 8120.58293846615
1029.6756952510368 8078.260341441279
1030.5734489177648 8043.226284742626
1031.4709799679313 8015.885613102985
1032.3682884662358 8155.327066836968
1033.2653744773506 7972.468074719713
1034.1622380659192 8055.201197694505
1035.058879296559 8114.223904011295
1035.9552982338591 8211.592975829572
1036.8514949423825 8101.562127212705
1037.7474694866614 8140.747431935544
1038.6432219312028 8172.9008751017
1039.5387523404825 8192.865966824555
1040.4340607789582 8252.614213154437
1041.3291473110476 8302.792582352651
1042.2240120011465 8421.46280343934
1043.1186549136273 8465.956376537184
1044.0130761128294 8342.629855396992
1044.9072756630649 8467.18902574541
1045.8012536286205 8705.677876957443
1046.6950100737577 8571.991160605241
1047.588545062701 8683.906673929589
1048.481858659663 8691.420924120814
1049.3749509288118 8782.36042159816
1050.2678219343034 8662.17884026528
1051.1604717402515 8686.848145538566
1052.0529004107575 8661.186344726895
1052.9451080098825 8732.770188789073
1053.8370946016694 8623.793778314142
1054.7288602501267 8617.470315347286
1055.6204050192446 8474.336368639952
1056.511728972977 8693.334629073617
1057.402832175254 8503.905513267604
1058.2937146899785 8467.611638923296
1059.1843765810263 8356.386655257917
1060.0748179122456 8515.620912573639
1060.9650387474576 8463.520370979499
1061.855039150456 8495.448606280162
1062.7448191850071 8430.644400530895
1063.6343789148505 8302.233002701232
1064.5237184037014 8317.05492201831
1065.412837715241 8304.46556712559
1066.3017369131267 8246.066468544075
1067.190416060992 8282.800531333862
1068.0788752224398 8108.253561667012
1068.9671144610438 8139.854492444921
1069.8551338403558 8227.159882047616
1070.7429334239023 8315.752858804111
1071.6305132751695 8108.352953333619
1072.517873457633 8104.566160039256
1073.4050140347335 8088.409175485326
1074.2919350698776 8071.900461765841
1075.1786366264623 8009.113019552649
1076.0651187678395 8048.74650604006
1076.95138155735 7957.593688182817
1077.8374250582929 7840.856986961306
1078.7232493339507 8026.632852726398
1079.608854447577 7934.009588571715
1080.4942404623907 7932.7427960302275
1081.3794074415982 7964.958389829602
1082.2643554483657 7869.496690678709
1083.149084545841 7888.969138370693
1084.033594797138 7738.228713893079
1084.9178862653516 7801.68267127255
1085.8019590135427 7825.673107452644
1086.6858131047484 7673.740158605685
1087.5694486019802 7805.686692844509
1088.4528655682225 7772.122666167188
1089.3360640664287 7854.944732698101
1090.2190441595321 7735.817055255767
1091.1018059104317 7825.938292520588
1091.98434938201 7850.024970751891
1092.866674637111 7803.6951156879295
1093.748781738559 7776.687288042174
1094.6306707491512 7686.018762731864
1095.5123417316554 7745.448508972734
1096.3937947488157 7698.815600027816
1097.2750298633455 7713.894912376733
1098.156047137938 7674.593235772396
1099.0368466352556 7796.513004666333
1099.9174284179317 7768.1416602217405
1100.7977925485757 7676.161012105175
1101.6779390897755 7674.713880275621
1102.5578681040806 7721.430760732526
1103.4375796540226 7722.391773655913
1104.3170738021054 7605.23204844797
1105.1963506108077 7524.80329637143
1106.0754101425773 7553.172389609832
1106.9542524598382 7626.3304526576785
1107.8328776249855 7539.018068901058
1108.7112857003904 7580.573245989765
1109.5894767483987 7643.906119348833
1110.4674508313292 7780.142355813621
1111.3452080114657 7700.407245579157
1112.2227483510815 7829.670549930224
1113.1000719124077 7917.550257850421
1113.9771787576592 7960.267957792797
1114.854068949022 7845.707860539638
1115.7307425486542 7918.376513142411
1116.6071996186893 8109.649763475039
1117.483440221229 8327.010753531153
1118.3594644183577 8237.018684435101
1119.235272272128 8275.327790141677
1120.1108638445658 8488.472168828184
1120.9862391976712 8743.3966165207
1121.8613983934229 8586.975418945938
1122.7363414937627 8655.796715027836
1123.6110685606182 8748.820339988912
1124.485579655884 8927.897821769791
1125.359874841426 8805.414569656956
1126.2339541790916 8883.117814375208
1127.1078177306936 9060.085659174645
1127.9814655580267 8885.671507206123
1128.854897722851 8909.11768824064
1129.7281142869106 8923.141888750386
1130.6011153119125 9058.258374615365
1131.473900859548 9082.107033307237
1132.3464709914697 8940.669016060448
1133.2188257693178 8857.200405512853
1134.0909652546961 8837.801181422301
1134.96288950919 8720.600730311668
1135.8345985943506 8803.220829013608
1136.7060925717087 8589.353951745587
1137.57737150277 8626.535231374964
1138.4484354490069 8514.076908353103
1139.3192844718778 8420.713215098958
1140.1899186327992 8291.240617149077
1141.060337993178 8293.3905603287
1141.930542614382 8128.216800834851
1142.8005325577597 8082.827380231439
1143.670307884635 7934.746033913497
1144.5398686563003 8016.231868375178
1145.409214934025 7888.125681900767
1146.2783467790541 7766.112635440129
1147.1472642526023 7732.393477166578
1148.0159674158622 7728.5973141597115
1148.8844563300026 7695.2341490168255
1149.7527310561618 7489.276521835981
1150.6207916554504 7442.410599177887
1151.4886381889592 7391.579639193701
1152.3562707177498 7557.993376829638
1153.2236893028585 7297.146254798051
1154.090894005296 7264.699675241432
1154.9578848860474 7306.651762861837
1155.8246620060709 7369.264457305944
1156.6912254262988 7118.623904457611
1157.5575752076438 7186.223070919809
1158.42371141098 7360.387527021041
1159.2896340971656 7290.581256990532
1160.1553433270346 7241.040227795456
1161.0208391613887 7167.069080087866
1161.8861216610057 7269.199438668936
1162.75119088664 7233.1886292746
1163.6160468990201 7171.929658238603
1164.4806897588442 7147.2958612487055
1165.3451195267917 7284.296651242215
1166.2093362635114 7206.6090540784835
1167.0733400296285 7117.633922571911
1167.9371308857444 7061.84674666382
1168.8007088924278 7143.228709342113
1169.6640741102328 7193.4366953058325
1170.5272265996773 7104.734862786061
1171.390166421259 6984.561318311089
1172.252893635452 7192.180700218991
1173.1154083026995 7185.726301198961
1173.977710483421 7190.319336408083
1174.8398002380145 7186.702487380171
1175.7016776268483 7275.703255348133
1176.563342710264 7175.161648275416
1177.4247955485826 7112.806362986505
1178.2860362020947 7159.714348249714
1179.147064731069 7122.70385175861
1180.0078811957483 7184.895379970471
1180.8684856563486 7122.8153496792265
1181.7288781730604 7185.810640827364
1182.589058806052 7228.250711409253
1183.4490276154593 7399.898431653765
1184.3087846614017 7342.58018182017
1185.1683300039676 7309.704006136718
1186.027663703222 7533.209718680415
1186.8867858192025 7337.445679252198
1187.7456964119228 7373.427626793242
1188.6043955413716 7438.490536737603
1189.4628832675116 7622.996713952476
1190.3211596502842 7546.772462765288
1191.179224749596 7601.879325230513
1192.0370786253388 7473.795801204149
1192.8947213373758 7652.176839499017
1193.7521529455407 7775.823315632023
1194.6093735096438 7516.172987365605
1195.466383089477 7615.803991711857
1196.3231817447977 7772.385431716628
1197.1797695353398 7765.699336351225
1198.0361465208189 7599.230682018446
1198.8923127609214 7560.719756201637
1199.7482683153048 7682.170320892847
1200.6040132436028 7750.389585784325
1201.459547605431 7561.36896520263
1202.3148714603722 7369.0562463015885
1203.1699848679855 7497.31299768875
1204.0248878878065 7565.967448430849
1204.8795805793507 7388.605584725022
1205.7340630020935 7463.0473130275905
1206.5883352155033 7553.408076206215
1207.4423972790064 7331.705412636705
1208.2962492520237 7288.767912322377
1209.1498911939307 7380.878348960594
1210.0033231640937 7317.669752459942
1210.8565452218427 7409.578702541684
1211.7095574264913 7164.25281223897
1212.5623598373222 7121.942471928436
1213.4149525135963 7078.118851238083
1214.2673355145507 7168.437145672074
1215.1195088993936 6964.200286094592
1215.9714727273113 7002.161278201622
1216.8232270574663 7029.710459521739
1217.6747719489904 6906.603586384037
1218.5261074609934 6961.756935410422
1219.3772336525653 6958.802507213111
1220.2281505827668 6955.277915255669
1221.0788583106296 7016.522750562732
1221.9293568951707 6804.263344313191
1222.7796463953746 6768.04293930538
1223.629726870202 6888.803376689255
1224.4795983785934 6957.053939097003
1225.3292609794553 6870.008624799487
1226.1787147316809 6748.2800499583955
1227.0279596941327 6914.869778646891
1227.8769959256424 7021.425515382491
1228.7258234850306 7017.694067361697
1229.5744424310833 6790.298322082315
1230.422852822563 6920.783397920679
1231.2710547182105 7062.619592278349
1232.119048176739 6914.427921340251
1232.9668332568417 6783.419976023343
1233.8144100171812 7008.901779317444
1234.6617785163999 6976.451251844397
1235.508938813111 6825.403434439069
1236.3558909659114 6827.737354476318
1237.2026350333617 6988.308759544477
1238.049171074008 7058.239225527808
1238.8954991463652 6871.322140335045
1239.741619308932 6901.744671001247
1240.587531620169 6933.989917387013
1241.4332361385277 6964.5045777168325
1242.2787329224248 6839.056224315313
1243.1240220302534 6857.892465224465
1243.9691035203869 6821.3629691547585
1244.813977451171 6948.190659811909
1245.6586438809263 7035.386815406018
1246.5031028679496 6811.921646293328
1247.3473544705157 6995.919616274975
1248.1913987468706 6990.1135759643275
1249.0352357552383 6738.476804519194
1249.8788655538228 6804.599459726145
1250.7222882007918 6975.052701095958
1251.565503754302 6960.553078517337
1252.4085122724755 6794.687989554792
1253.2513138134182 6933.760239088253
1254.0939084352049 6857.087144608505
1254.9362961958905 6880.358365402133
1255.7784771535007 6796.047763647756
1256.6204513660432 6849.351081627278
1257.4622188915 6970.039330820019
1258.3037797878242 6854.440209954701
1259.1451341129468 6765.31539027643
1259.9862819247755 6871.5206666149315
1260.8272232811978 6741.140982577502
1261.6679582400666 6997.017781665901
1262.5084868592203 6695.166452454071
1263.34880919647 6660.3407476475795
1264.1889253095997 6797.694287491489
1265.0288352563712 6807.717584686441
1265.8685390945266 6636.092064697074
1266.7080368817751 6691.339843382839
1267.5473286758115 6740.327217758971
1268.386414534294 6726.315252152197
1269.2252945148703 6434.268638799742
1270.0639686751547 6570.5593007810385
1270.9024370727402 6588.16599069091
1271.7406997651997 6473.268089860914
1272.5787568100714 6420.650475488466
1273.4166082648808 6571.235826402412
1274.2542541871244 6615.27438966701
1275.091694634275 6688.549137475375
1275.9289296637817 6413.326663036171
1276.7659593330663 6518.049610553067
1277.6027836995308 6521.542518668059
1278.4394028205552 6587.601672981221
1279.2758167534867 6474.309257437795
1280.112025555658 6569.6102792493375
1280.9480292843746 6556.772891935897
1281.7838279969128 6422.901013664193
1282.6194217505326 6380.173955624789
1283.4548106024686 6296.004785672683
1284.289994609926 6399.728967456098
1285.1249738300921 6541.261109695268
1285.959748320127 6324.480954246689
1286.7943181371702 6388.754890231387
1287.6286833383328 6392.6151318768125
1288.4628439807038 6406.801928055719
1289.2968001213521 6328.900984456484
1290.1305518173194 6418.503954382788
1290.9640991256183 6444.860731557327
1291.7974421032523 6424.489165689509
1292.630580807183 6457.590036697815
1293.463515294361 6534.977514725534
1294.29624562171 6515.389544774747
1295.12877184613 6447.915107181933
1295.961094024493 6462.738421868938
1296.79321221365 6447.433916751545
1297.6251264704333 6567.608741684568
1298.4568368516466 6829.563284129181
1299.2883434140658 6596.072433285187
1300.1196462144526 6468.791797995686
1300.9507453095375 6571.152451873188
1301.7816407560313 6572.892517719578
1302.6123326106172 6652.752746636999
1303.4428209299622 6433.603660751454
1304.2731057707024 6706.328875525278
1305.1031871894502 6555.58965776106
1305.933065242798 6718.0065615214235
1306.7627399873181 6596.297609726096
1307.5922114795467 6837.849062958476
1308.4214797760123 6800.367585135903
1309.2505449332057 6672.455471366018
1310.0794070076026 6825.46187085967
1310.9080660556538 6744.6729020179455
1311.736522133786 6771.538988746664
1312.5647752983987 6708.302231465228
1313.3928256058734 6732.35433599835
1314.2206731125661 6807.702442975829
1315.048317874809 6763.737030434704
1315.8757599489109 6775.684413193696
1316.7029993911547 6824.993709403303
1317.5300362578055 7042.025370728344
1318.356870605101 6733.060693626127
1319.183502489257 6813.025378053641
1320.0099319664623 6945.866780502729
1320.836159092889 6814.285317395402
1321.66218392468 6957.371199250604
1322.4880065179532 6789.478595848722
1323.3136269288134 6733.16682921456
1324.1390452133292 6956.912456258813
1324.9642614275563 6963.97074472641
1325.7892756275214 6908.414558231644
1326.6140878692295 6718.125631290849
1327.4386982086617 7074.601353559529
1328.2631067017755 6899.488346930637
1329.0873134045069 6902.578429619379
1329.911318372764 6852.632814645403
1330.735121662441 6718.344924062707
1331.558723329399 6715.153346023119
1332.3821234294774 6758.834027331528
1333.2053220185007 6647.077277746564
1334.0283191522612 6715.162200302356
1334.851114886529 6819.791337369966
1335.6737092770582 6690.955955730058
1336.4961023795695 6768.175914893487
1337.3182942497697 6645.650664098657
1338.1402849433325 6741.336544923817
1338.962074515921 6570.597356744356
1339.7836630231632 6486.853825795435
1340.6050505206676 6910.607711045268
1341.426237064028 6734.785246779713
1342.2472227088037 6852.119502020008
1343.0680075105338 6535.392763481992
1343.888591524741 6534.26607305978
1344.7089748069138 6640.813976774198
1345.5291574125276 6445.423916548596
1346.3491393970307 6442.621479347566
1347.168920815846 6581.986411809407
1347.9885017243778 6566.741199747831
1348.8078821780036 6508.258539606615
1349.6270622320844 6541.134634512092
1350.4460419419447 6536.501022673835
1351.2648213629054 6632.847446711787
1352.0834005502438 6389.981200725584
1352.90177955923 6431.636423767191
1353.7199584451064 6917.164893170993
1354.5379372630887 6550.484917473781
1355.355716068374 6386.810819216362
1356.1732949161305 6470.067592544221
1356.9906738615155 6450.51033640799
1357.8078529596478 6554.3243319080775
1358.6248322656375 6492.227503482414
1359.441611834567 6386.078835260776
1360.2581917214866 6565.833069199294
1361.0745719814367 6344.4967837445865
1361.890752669433 6405.566437838887
1362.7067338404577 6330.622879752787
1363.5225155494845 6571.502765159645
1364.3380978514506 6577.565627834172
1365.1534808012839 6310.623144400019
1365.9686644538815 6323.492661469913
1366.783648864117 6459.62110420245
1367.5984340868417 6482.361835997757
1368.413020176893 6534.641932169379
1369.2274071890715 6239.582788890633
1370.0415951781652 6427.789420582891
1370.8555841989346 6163.597214304635
1371.6693743061223 6227.530783963426
1372.48296555444 6294.5200842016175
1373.2963579985844 6491.918165579946
1374.1095516932255 6374.050213169897
1374.9225466930166 6183.0036234776135
1375.7353430525782 6347.04881048302
1376.5479408265164 6230.076237612739
1377.36034006941 6334.650149342002
1378.1725408358216 6343.215482811504
1378.9845431802805 6093.034308514028
1379.796347157304 6378.61438036381
1380.6079528213813 6428.993892380815
1381.4193602269788 6244.815969120161
1382.230569428546 6221.719369914263
1383.0415804805016 6462.968960527067
1383.852393437246 6380.919699554333
1384.6630083531563 6320.794962042915
1385.4734252825892 6196.083560310295
1386.2836442798798 6285.094377349753
1387.0936653993322 6272.448605447997
1387.9034886952395 6218.776315610539
1388.713114221864 6312.956189492413
1389.5225420334482 6329.555707111833
1390.331772184214 6206.47537407836
1391.1408047283585 6040.055581181178
1391.9496397200564 6155.478948054572
1392.758277213461 6309.770276268639
1393.5667172627054 6242.747701910401
1394.3749599218918 6058.358214638454
1395.1830052451114 5947.1888392241135
1395.9908532864265 6054.1996149308015
1396.7985040998774 6281.2486794512515
1397.6059577394808 5998.440843607967
1398.4132142592352 6089.870123144062
1399.2202737131156 6063.511836236169
1400.027136155073 6181.9738658688875
1400.8338016390353 6034.419517537982
1401.6402702189134 5923.565125831485
1402.446541948586 6034.507596146681
1403.2526168819204 5943.782567586522
1404.058495072757 5942.051166042125
1404.8641765749107 5960.302029847955
1405.6696614421799 6043.590691181388
1406.4749497283356 6262.20139837879
1407.280041487129 5839.072207548136
1408.084936772295 5750.740001765613
1408.8896356375335 5934.803491767205
1409.6941381365323 5921.627379278807
1410.498444322955 5733.221245725128
1411.3025542504402 5885.440484399593
1412.106467972606 5795.616540422123
1412.9101855430508 5798.563989920955
1413.7137070153458 5579.557961542522
1414.5170324430437 5702.905642421705
1415.320161879672 5837.431769665558
1416.1230953787435 5922.433767910226
1416.925832993742 5624.42700255314
1417.7283747781275 5490.216758893801
1418.5307207853439 5675.103972912473
1419.3328710688093 5607.4197681112255
1420.134825681922 5463.852909564501
1420.9365846780584 5505.904544147127
1421.7381481105713 5719.740267340736
1422.539516032788 5574.525907016612
1423.3406884980232 5382.5892635635155
1424.1416655595604 5416.912437528754
1424.942447270665 5517.67611720278
1425.7430336845828 5584.049007272422
1426.5434248545298 5250.1228363123
1427.3436208337116 5477.658371747972
1428.143621675301 5682.637908686375
1428.9434274324558 5581.60287092937
1429.7430381583108 5298.6812296508115
1430.5424539059713 5451.3354967030555
1431.3416747285337 5912.867854890818
1432.1407006790632 5508.61170631172
1432.9395318106053 5575.373897317868
1433.7381681761835 5369.384172990863
1434.5366098288014 5254.800123172738
1435.3348568214424 5564.596297318539
1436.1329092070573 5387.991743148949
1436.9307670385879 5333.746980359004
1437.7284303689503 5579.047749826331
1438.5258992510335 5590.681448624275
1439.3231737377118 5429.957292786173
1440.1202538818306 5364.000076340266
1440.9171397362225 5392.557064473821
1441.7138313536925 5432.173944631387
1442.5103287870243 5295.255934562397
1443.3066320889775 5365.794927754531
1444.1027413122956 5510.688729663172
1444.8986565096966 5205.538229767508
1445.694377733882 5429.771662625838
1446.4899050375207 5160.652223816184
1447.2852384732687 5233.835155688255
1448.0803780937622 5507.303350747132
1448.8753239516063 5282.6679500056225
1449.6700760993954 5148.90480255498
1450.464634589689 5172.504609693841
1451.2589994750397 5478.32137817986
1452.0531708079689 5112.242530345263
1452.8471486409799 5114.816658673814
1453.6409330265524 5453.94779781889
1454.4345240171442 5170.64265569686
1455.2279216651987 5282.405438331969
1456.0211260231263 5179.110741170882
1456.8141371433194 5252.91212449319
1457.6069550781594 5319.351173403347
1458.3995798799897 5125.592250749434
1459.1920116011424 5112.645087773899
1459.98425029393 4988.747059931762
1460.7762960106338 5104.056888563714
1461.5681488035225 5208.400641486541
1462.3598087248392 5196.361853804429
1463.1512758268036 5254.1000435509295
1463.942550161617 5115.42778231413
1464.7336317814625 4919.384170726184
1465.524520738496 5081.9969373735275
1466.3152170848552 5004.228509200209
1467.1057208726506 5191.644907974477
1467.8960321539817 4972.2244869011965
1468.6861509809169 4884.587786015143
1469.4760774055085 4974.007861712858
1470.265811479785 5139.402674281619
1471.055353255755 4878.674337243303
1471.844702785409 4961.143265666489
1472.6338601207044 4897.044108293212
1473.4228253135934 5527.245044951142
1474.2115984159936 4884.897648546967
1475.0001794798063 4824.946759238914
1475.7885685569145 5035.080819487698
1476.576765699172 5008.081703640074
1477.3647709584238 4839.259014974288
1478.1525843864802 5101.377287396911
1478.9402060351367 5035.8712616188395
1479.7276359561693 5098.002128368606
1480.514874201328 4945.662254970039
1481.3019208223468 4869.092558312505
1482.0887758709323 4815.361097649341
1482.8754393987747 5020.43303473009
1483.6619114575406 4714.183415137297
1484.4481920988783 5005.37320521292
1485.2342813744108 4998.631184377057
1486.0201793357446 5157.903037447259
1486.8058860344572 4953.573170192915
1487.591401522117 4935.959418060049
1488.3767258502594 4891.717305898323
1489.1618590704056 4900.9232066718905
1489.9468012340494 4752.683695755846
1490.7315523926754 4958.057720731785
1491.5161125977356 5063.66124969207
1492.3004819006637 4998.3949105616175
1493.084660352877 4843.560787742657
1493.8686480057622 5004.444772766807
1494.6524449106964 5171.421228904079
1495.4360511190262 5198.878449008496
1496.219466682087 4914.613262820801
1497.0026916511779 5053.093473105091
1497.7857260775945 4922.664551800799
1498.5685700125996 5180.347651563501
1499.3512235074395 4935.5131805639885
1500.133686613337 4942.592984293484
1500.9159593814966 4854.483228489382
1501.698041863101 5241.370902423796
1502.4799341093094 4805.659055950948
1503.2616361712662 4816.985358414275
1504.043148100087 5032.390672737437
1504.8244699468742 5084.82901179618
1505.6056017626997 4908.886031799437
1506.3865435986281 4740.718570813902
1507.1672955056893 4995.339597925547
1507.9478575348967 4882.203502940325
1508.7282297372512 4998.563031750339
1509.5084121637192 4990.93833963886
1510.2884048652577 4900.624891734408
1511.0682078927948 4869.699237988942
1511.8478212972423 4812.714555219973
1512.6272451294917 4800.019437528685
1513.4064794404076 4958.10350716227
1514.1855242808433 4865.537343158301
1514.9643797016215 4875.986426246398
1515.743045753552 4867.523559073827
1516.5215224874191 5020.3961886731895
1517.2998099539836 4656.813856439706
1518.077908203999 4829.182605605189
1518.8558172881785 4874.135147378946
1519.633537257234 5015.843694707616
1520.4110681618404 4837.030837556447
1521.1884100526604 4998.949371757014
1521.9655629803365 4854.98888173904
1522.7425269954856 5037.45982528687
1523.5193021487103 5029.763133561856
1524.2958884905856 4705.215789360767
1525.0722860716687 4789.029630264425
1525.848494942502 4813.984857484981
1526.624515153595 4852.395815916119
1527.4003467554485 4873.608024492589
1528.175989798534 5043.612406361611
1528.9514443333064 4858.177057856865
1529.726710410203 5125.576717496392
1530.5017880796331 4784.585236805933
1531.276677391992 4864.73548553758
1532.0513783976457 5060.2527497122355
1532.825891146953 4936.141425975546
1533.6002156902414 4989.036376243
1534.3743520778207 5048.122348320074
1535.1483003599806 4954.573478643399
1535.9220605869923 4929.099022398478
1536.6956328091019 4976.861412033366
1537.4690170765407 5005.157477825589
1538.242213439511 5088.35546301955
1539.015221948208 5045.951812996394
1539.78804265279 4833.44274005101
1540.560675603405 4889.7035072801245
1541.3331208501804 5118.191938179136
1542.1053784432224 5156.26270802374
1542.8774484326168 4964.242182413825
1543.649330868422 5006.146762864715
1544.4210258006842 5123.515953029636
1545.1925332794308 4995.866687562799
1545.9638533546604 4980.13203694377
1546.7349860763552 4998.4935747820255
1547.5059314944829 5217.483369924246
1548.27668965898 5003.792340514484
1549.0472606197673 5051.870154082065
1549.817644426752 4890.4930584643425
1550.5878411298072 5093.030827187859
1551.3578507787988 4977.097358777611
1552.1276734235635 4944.58396284576
1552.8973091139233 5097.163733983138
1553.6667578996767 5048.304631192058
1554.436019830604 5167.181751579184
1555.20509495646 5034.168357425955
1555.9739833269869 4956.320673687447
1556.7426849919011 4937.499273826867
1557.511200000903 5205.686702505651
1558.2795284036674 5075.444398846661
1559.0476702498509 5102.032151446809
1559.8156255890954 5230.75214016656
1560.5833944710157 5251.917710264522
1561.3509769452048 4948.909605042604
1562.1183730612447 5039.970466432795
1562.8855828686865 5061.016194931199
1563.6526064170703 5254.437952512481
1564.4194437559127 5231.825556726293
1565.1860949347047 4929.1747404180605
1565.9525600029283 5276.237047557995
1566.7188390100328 5269.610967885433
1567.4849320054564 5012.419586869373
1568.250839038612 5058.139159358069
1569.0165601588997 5099.128682241364
1569.7820954156887 5238.70499389514
1570.5474448583373 5012.079916352754
1571.31260853618 4968.137055239228
1572.0775864985299 4919.577780768377
1572.8423787946813 5086.023069517133
1573.6069854739108 4980.458228576706
1574.371406585471 5098.196495192593
1575.1356421785986 5134.036502087047
1575.899692302506 5003.824513826432
1576.6635570063845 5020.695109240966
1577.4272363394157 4981.706341036426
1578.190730350747 5011.008724894995
1578.9540390895163 4979.417755290358
1579.7171626048384 4760.956172747339
1580.480100945806 4898.31626857
1581.2428541614918 4881.623505547803
1582.0054223009538 5001.235182480816
1582.767805413223 4965.668212394839
1583.5300035473156 4915.766333409087
1584.292016752228 5095.53840423548
1585.0538450769309 5016.178547595835
1585.8154885703807 4910.441207253196
1586.5769472815136 4908.074824515537
1587.3382212592405 4941.843011606474
1588.099310552463 5134.471907122143
1588.8602152100484 4672.493531717126
1589.6209352808564 5076.769155708242
1590.3814708137234 4984.840330660925
1591.14182185746 4867.133614980407
1591.9019884608679 4995.981181861518
1592.6619706727215 4805.625786905698
1593.4217685417734 4975.357903116566
1594.1813821167616 5252.039168022935
1594.9408114464022 4830.456394122231
1595.7000565793933 5010.955563126558
1596.459117564409 5108.470940550631
1597.2179944501113 4855.245820154536
1597.9766872851324 4888.187677890627
1598.735196118092 4982.92501758431
1599.4935209975883 4997.939531123686
1600.2516619721973 5205.468915477976
1601.0096190904787 4874.937439395513
1601.7673924009723 4966.203157268639
1602.524981952196 4945.299604292832
1603.2823877926476 4866.336552415818
1604.0396099708087 4923.4365334409795
1604.7966485351371 4753.209876273626
1605.5535035340745 4862.454845589946
1606.3101750160404 5088.370301617304
1607.0666630294363 4939.362503973023
1607.822967622642 4690.542465901734
1608.5790888440224 4978.497915353858
1609.3350267419137 5011.170551628987
1610.0907813646445 4938.580714897147
1610.8463527605145 5035.574716536682
1611.601740977805 4911.521121617437
1612.356946064785 4893.015498718998
1613.1119680696902 4682.926861921613
1613.8668070407512 4747.437998575157
1614.6214630261748 4839.549316794999
1615.375936074137 4814.416038337535
1616.1302262328118 4877.060631672446
1616.8843335503425 4837.631165553256
1617.638258074854 4754.389532589763
1618.391999854457 4687.099013104397
1619.1455589372363 4890.396753560273
1619.8989353712623 4821.384048102321
1620.65212920458 4546.527501225182
1621.4051404852235 4610.81417147528
1622.1579692611976 4673.157722154656
1622.9106155804966 4558.4987423220355
1623.663079491087 4733.890150666726
1624.4153610409248 4688.656101742344
1625.1674602779385 4885.366008557694
1625.9193772500403 4578.014967027453
1626.6711120051277 4967.842493719328
1627.4226645910676 4698.233713693846
1628.174035055721 4349.057317495974
1628.9252234469168 4584.067760479183
1629.676229812474 4534.212905295471
1630.4270542001905 4990.535869348244
1631.1776966578382 4540.392031097269
1631.9281572331747 4471.153293882151
1632.678435973945 4702.626235284785
1633.4285329278573 4650.249482758027
1634.1784481426203 4445.401095508593
1634.9281816659113 4579.572370089698
1635.677733545388 4726.862443044794
1636.4271038286934 4446.500392152397
1637.176292563452 4604.928749451492
1637.9252997972635 4565.616208052512
1638.674125577716 4699.589742310056
1639.4227699523672 4962.182113875556
1640.171232968767 4390.027991146981
1640.9195146744423 4725.218835215432
1641.6676151168977 4741.6530057631735
1642.4155343436178 4712.486292757663
1643.1632724020765 4645.693707429114
1643.9108293397167 4712.555575356133
1644.658205203974 4431.023899564272
1645.4054000422566 5009.730990604314
1646.1524139019566 4598.184818436126
1646.8992468304423 4591.0390658563965
1647.6458988750728 4592.0940913457025
1648.3923700831765 4722.371692686597
1649.1386605020743 4645.09108558138
1649.8847701790564 4769.24123914361
1650.6306991614038 4622.168050871389
1651.3764474963682 4662.19645595971
1652.1220152311944 4460.219642957229
1652.867402413096 4681.097204781319
1653.6126090892776 4588.912670503421
1654.3576353069184 4773.819966217335
1655.1024811131829 4664.413219429016
1655.8471465552066 4680.924886907297
1656.5916316801213 4742.986855137761
1657.3359365350298 4700.861872886515
1658.0800611670165 4536.782149804243
1658.824005623148 4687.947068001063
1659.5677699504722 4450.486464406122
1660.3113541960192 4710.273560411078
1661.054758406799 4610.6579955224715
1661.7979826297997 4487.471751295198
1662.5410269119966 4416.5863168279075
1663.283891300338 4757.558591717848
1664.0265758417645 4391.4262671359475
1664.7690805831826 4586.449469199219
1665.5114055714948 4748.392261742063
1666.2535508535748 4886.271482011334
1666.9955164762814 4319.079726854458
1667.7373024864555 4410.710188720555
1668.478908930916 4575.226623297998
1669.220335856462 4325.624463749356
1669.9615833098778 4359.012242038405
1670.7026513379296 4252.255812723364
1671.44353998736 4444.243147070178
1672.1842493048916 4497.105546685007
1672.9247793372379 4390.73612210628
1673.6651301310812 4499.25711568276
1674.4053017330934 4234.333668681443
1675.1452941899242 4381.4789068198015
1675.885107548207 4017.6526358916817
1676.6247418545518 4089.833372586262
1677.3641971555535 4227.248198102414
1678.1034734977893 4230.499383486336
1678.8425709278108 4267.903948163416
1679.5814894921605 4325.893921365094
1680.320229237359 4099.640792912994
1681.0587902098978 4317.5724265718645
1681.7971724562685 4136.735159513291
1682.5353760229264 4146.510088766058
1683.2734009563173 4124.55360127714
1684.0112473028657 4044.1412198337957
1684.7489151089794 4125.4061663546
1685.4864044210462 4216.278163145785
1686.2237152854377 3911.344907818567
1686.960847748498 4208.046127407724
1687.6978018565642 3902.3480557175935
1688.434577655944 3848.4955577916835
1689.1711751929379 3941.919859984063
1689.9075945138156 3955.7254301328844
1690.6438356648396 3832.931898093263
1691.3798986922448 3602.178446123437
1692.1157836422499 3887.6688138509658
1692.851490561059 3804.027720168783
1693.587019494853 3895.6451608424986
1694.3223704897991 3574.2293079003007
1695.0575435920364 3530.266258422004
1695.792538847696 3981.9009586626644
1696.527356302886 3657.261645327374
1697.2619960036936 3541.3130002741445
1697.9964579961907 3558.394593683957
1698.730742326432 3158.5266613527538
1699.4648490404488 3316.8628169820076
1700.1987781842563 3433.689965988585
1700.9325298038548 3740.538313736574
1701.6661039452174 3733.2292229210134
1702.3995006543082 3522.7788408550573
1703.1327199770658 3674.1873382066683
1703.865761959416 3368.947831676743
1704.598626647261 3707.593989326655
1705.3313140864866 3359.597308793271
1706.0638243229587 3410.3681787498754
1706.7961574025303 3650.0215743949484
1707.528313371029 3513.737993596796
1708.260292274268 3166.613400134496
1708.9920941580403 3462.4532797021593
1709.7237190681226 3414.5707278361565
1710.4551670502697 3424.8521556151745
1711.18643815022 3139.530644534321
1711.9175324136959 3652.4972310716926
1712.6484498863938 3288.4170368506393
1713.379190614005 3196.3040419606796
1714.109754642188 3347.7706861764004
1714.8401420165883 3368.237702312411
1715.570352782839 3461.0884893509124
1716.3003869865497 3417.310989610549
1717.0302446733076 3169.4183300883715
1717.7599258886876 3269.2072180081586
1718.4894306782444 3441.4882891037137
1719.2187590875183 3161.4045559684682
1719.9479111620203 3283.694610578083
1720.6768869472544 3186.980386529536
1721.4056864887025 3380.64828480195
1722.1343098318284 3404.557407835483
1722.8627570220742 3149.496515117053
1723.591028104871 3069.627874415098
1724.3191231256242 3043.6243012273635
1725.0470421297232 3305.389448147459
1725.7747851625427 3398.754785383114
1726.5023522694337 3258.5635326219335
1727.2297434957363 3258.0937194604553
1727.9569588867635 3072.80729768395
1728.6839984878152 3274.1684520871268
1729.4108623441734 2812.6901511073456
1730.1375505011038 3272.004375248132
1730.8640630038426 3025.952958138629
1731.5903998976264 2983.350368365746
1732.316561227657 3209.0409446688877
1733.0425470391274 3041.4260392206465
1733.7683573772065 3221.1150343122617
1734.4939922870508 3068.499142921187
1735.2194518137949 3090.3718514794186
1735.9447360025606 3147.915235450966
1736.669844898439 3180.195201525545
1737.3947785465189 3043.665211255963
1738.1195369918605 2876.826945851971
1738.8441202795093 3018.2547115059033
1739.5685284544943 3126.7737239934495
1740.292761561821 3169.425500992307
1741.0168196464838 3191.3016116824842
1741.7407027534518 3118.880525661356
1742.464410927687 3194.378837789583
1743.187944214118 3075.1744294446826
1743.9113026576688 2893.784412500671
1744.634486303241 3055.0171849737303
1745.3574951957125 3067.530320773207
1746.0803293799509 3047.94006327861
1746.8029889008048 2954.5171616610064
1747.5254738031017 3157.158438553947
1748.2477841316504 2962.6999687694433
1748.969919931249 3055.3162266309596
1749.6918812466665 2923.7895814615463
1750.4136681226646 3209.348658806497
1751.1352806039777 3046.762005484387
1751.856718735331 2935.9140196809194
1752.5779825614281 3045.52942649805
1753.2990721269507 3088.6198080680033
1754.0199874765676 3251.7296122035364
1754.7407286549314 2841.535389422311
1755.4612957066693 2935.8598799643964
1756.1816886763954 2902.035820260505
1756.9019076087097 2988.973713091949
1757.6219525481865 3115.5942193104997
1758.3418235393856 3032.251197962695
1759.061520626854 3026.8507248433425
1759.7810438551096 3022.8085958784077
1760.5003932686614 2947.348227106595
1761.2195689119999 3065.535306031918
1761.938570829594 2837.141259112125
1762.657399065898 3020.04513514677
1763.376053665348 2941.7855121701123
1764.0945346723602 2855.0106487411476
1764.812842131334 3109.7498069632043
1765.5309760866512 2773.808600530944
1766.2489365826787 2913.4369269091558
1766.9667236637597 3046.3657744758107
1767.684337374223 2761.1975259346696
1768.401777758383 2713.475911308483
1769.1190448605284 2791.5697498744858
1769.836138724937 2850.1179381427723
1770.5530593958665 3020.682057609502
1771.2698069175603 3096.3609682561937
1771.9863813342326 2971.854187136107
1772.702782690094 2925.703934412468
1773.4190110293293 2971.6583635232014
1774.1350663961111 3002.2967660847853
1774.8509488345844 2810.9097381798574
1775.5666583888924 2975.1310699532905
1776.2821951031437 3105.8789749578586
1776.9975590214362 2942.4862297252844
1777.7127501878585 3075.7626879992067
1778.4277686464684 2984.3307976818182
1779.1426144413108 3181.4321493290126
1779.8572876164162 3080.690797420409
1780.571788215797 2906.1053885172596
1781.2861162834415 3009.36722475163
1782.0002718633277 2906.1844043844453
1782.7142549994132 2879.2754974872923
1783.4280657356376 2981.1621974863056
1784.141704115922 2727.311436873724
1784.855170184177 2828.866437244969
1785.5684639842839 2959.4820985010474
1786.2815855601148 2647.9002418897885
1786.9945349555237 2831.0288269753564
1787.707312214343 2818.576004603318
1788.4199173803918 3055.080272538965
1789.132350497468 2815.323309088562
1789.8446116093583 2707.706141722738
1790.556700759822 2877.2235422471103
1791.2686179926077 2637.1267850523927
1791.9803633514493 2836.4285534945584
1792.6919368800554 2728.692730623546
1793.4033386221236 2926.81936030343
1794.1145686213295 2911.9895882641936
1794.8256269213307 3045.163855529208
1795.536513565774 3056.549317836974
1796.247228598284 2557.1615504748033
1796.9577720624693 2869.2343018996685
1797.6681440019165 2856.56742919268
1798.3783444602013 2744.278235281899
1799.0883734808776 2856.382776125809
1799.7982311074884 2844.12380023451
1800.5079173835475 2815.177875023953
1801.2174323525633 3004.7010499949183
1801.9267760580187 2874.7331112241363
1802.635948543386 2918.818238082792
1803.3449498521113 2746.2048719357094
1804.0537800276325 2823.2052676034923
1804.7624391133668 2793.4840267401805
1805.47092715271 2617.114754825317
1806.1792441890484 2656.126366289976
1806.8873902657433 2930.8620020019835
1807.5953654261448 2768.553451932502
1808.3031697135812 2601.899854629373
1809.0108031713662 2745.9272621905316
1809.71826584279 2774.4577412448807
1810.425557771141 2747.979779621669
1811.1326789996747 3215.2823179036345
1811.839629571632 2845.3348692558843
1812.5464095302468 2699.1560100609254
1813.2530189187182 2803.8263979511003
1813.959457780249 2719.8906673155166
1814.6657261580076 2869.6338294075017
1815.371824095153 2739.696395873295
1816.0777516348262 2896.336360603671
1816.78350882015 2638.521546560464
1817.4890956942272 2603.053591232322
1818.1945123001533 2865.576543573772
1818.8997586809928 2654.4780300669863
1819.6048348798067 2738.916341569051
1820.3097409396287 2608.787647124737
1821.0144769034796 3014.384113461846
1821.7190428143622 2719.545451925317
1822.423438715261 3089.1474514602423
1823.1276646491478 2901.2566854198913
1823.8317206589727 2826.5030905929398
1824.5356067876692 2800.3329481528817
1825.2393230781581 2742.986772863484
1825.942869573335 2540.998035662495
1826.646246316086 2644.957115848135
1827.3494533492758 2826.3489876336653
1828.052490715756 2801.794163565754
1828.7553584583547 2860.589730467026
1829.458056619891 2873.2121298828943
1830.1605852431585 2511.3075334127525
1830.8629443709433 2478.558500685472
1831.5651340460063 2785.457193084924
1832.2671543110919 2854.228369879308
1832.9690052089318 2730.9430022056745
1833.6706867822395 2615.316985304118
1834.3721990737104 2945.704271035749
1835.0735421260233 2916.0671731296197
1835.774715981841 2809.0374738320033
1836.4757206838058 2915.0255426742906
1837.1765562745459 2483.3264741189005
1837.8772227966747 2507.363500296311
1838.5777202927839 2754.5227409133163
1839.2780488054523 2664.503398714047
1839.9782083772352 2617.231638149028
1840.6781990506806 2764.570091475296
1841.378020868313 2767.822722261054
1842.0776738726418 2653.174301739412
1842.777158106157 2604.477567350964
1843.4764736113375 2597.7328100261584
1844.1756204306403 2847.698443158043
1844.8745986065078 2803.1352272945765
1845.5734081813607 2453.3914538994186
1846.2720491976124 2508.043116782122
1846.970521697649 2670.116907197168
1847.6688257238511 2712.1736118354465
1848.3669613185684 2708.1195385893216
1849.0649285241452 2517.6066291158754
1849.7627273829057 2701.833520756588
1850.460357937156 2836.9856482559658
1851.1578202291857 2457.3554869011455
1851.8551143012664 2704.5247229473907
1852.5522401956569 2738.633868949525
1853.2491979545957 2787.0940659137063
1853.9459876203055 2461.4541596064096
1854.6426092349902 2553.029648800667
1855.3390628408451 2549.3438201606277
1856.0353484800362 2884.094753758397
1856.7314661947203 2852.5720327034537
1857.4274160270397 2580.882840513851
1858.123198019115 2590.7104435916294
1858.8188122130487 2683.6337461986227
1859.5142586509319 2554.9612206493393
1860.209537374838 2689.5698996997207
1860.9046484268183 2442.678985987849
1861.599591848917 2820.4153507326587
1862.294367683151 2530.616360970907
1862.988975971528 2613.3094059747445
1863.6834167560355 2649.98006370679
1864.3776900786452 2757.2017555417233
1865.0717959813119 2530.0178002535604
1865.7657345059724 2681.8023494893314
1866.4595056945564 2744.006431786466
1867.1531095889586 2710.3479665369123
1867.846546231076 2631.288214022618
1868.5398156627743 2769.9655012512962
1869.2329179259123 2566.63130000422
1869.9258530623283 2910.5437216685523
1870.618621113843 2436.8375847060893
1871.3112221222636 2457.244382812293
1872.0036561293764 2509.225003826478
1872.695923176956 2715.9241694128827
1873.3880233067594 2673.096975065797
1874.0799565605212 2559.7940474555517
1874.7717229799673 2589.9539299633166
1875.4633226068036 2809.764653616286
1876.1547554827175 2667.329446205359
1876.8460216493859 2691.579320315228
1877.5371211484617 2484.312083644824
1878.2280540215852 2665.875695691586
1878.9188203103804 2477.6679152429983
1879.6094200564548 2728.549363337491
1880.299853301396 2526.733719925639
1880.9901200867826 2689.243120989369
1881.6802204541673 2531.425158775423
1882.3701544450942 2631.908892313555
1883.059922101087 2575.9958084489695
1883.7495234636517 2858.09780915763
1884.4389585742792 2568.8771567757767
1885.1282274744517 2533.1772252349383
1885.8173302056166 3030.6128596429785
1886.506266809225 2715.894649469761
1887.195037326701 2389.1770704406217
1887.8836417994517 2532.905032168322
1888.5720802688702 2866.446389766389
1889.260352776333 2784.4757424913214
1889.9484593632042 2682.7467588340924
1890.63640007082 2647.2341568986094
1891.3241749405151 2603.6404177578493
1892.0117840135954 2565.3985222867504
1892.6992273313572 2581.9126567303642
1893.3865049350788 2480.6497586296086
1894.0736168660223 2807.5032059235873
1894.7605631654333 2579.1308397048183
1895.4473438745408 2469.253271378887
1896.133959034556 2869.519873585153
1896.820408686679 2626.7721500689872
1897.506692872088 2810.718533095207
1898.192811631945 2595.508628846827
1898.8787650073991 2639.514486324387
1899.5645530395832 2756.9260666287114
1900.2501757696118 2860.1554074329038
1900.9356332385796 2465.5402647161127
1901.620925487574 2764.9161681218607
1902.3060525576602 2610.435351394969
1902.9910144898859 2792.8084650063834
1903.6758113252872 2425.654699016812
1904.3604431048789 2562.0588159918407
1905.0449098696663 2597.682897185698
1905.7292116606295 2499.312973445442
1906.4133485187394 2629.010898458209
1907.0973204849488 2243.3477008918917
1907.7811276001976 2521.210080846004
1908.4647699053967 2618.181551474382
1909.1482474414588 2352.102415376157
1909.8315602492694 2400.227883982399
1910.5147083696957 2677.983578556242
1911.1976918436012 2524.836347762751
1911.880510711815 2554.4337421080663
1912.5631650151681 2580.2854230733024
1913.2456547944657 2436.5377879509424
1913.927980090495 2473.303706256656
1914.6101409440362 2475.055330911613
1915.2921373958416 2527.6271105564583
1915.9739694866603 2599.7253803243884
1916.655637257214 2742.2649243944024
1917.3371407482136 2650.8608867057173
1918.0184800003572 2853.8591708553813
1918.6996550543154 2560.229471982896
1919.3806659507554 2685.3518256569487
1920.0615127303208 2657.3469532902545
1920.7421954336423 2696.9714385277034
1921.4227141013343 2693.792515264571
1922.103068773993 2509.2687210451886
1922.783259492202 2852.01842992707
1923.4632862965227 2513.002277793878
1924.1431492275078 2423.3014472938075
1924.8228483256917 2544.2363425702506
1925.5023836315922 2561.008598250387
1926.1817551857057 2291.3646848922817
1926.8609630285227 2780.8314468149815
1927.5400072005123 2505.5281353797627
1928.218887742125 2452.585846677111
1928.8976046938005 2111.2029769713495
1929.5761580959588 2593.4670507475507
1930.2545479890086 2598.2114850755033
1930.9327744133352 2330.5633952391336
1931.6108374093164 2611.820617328417
1932.2887370173066 2792.952395962399
1932.9664732776473 2183.192071678787
1933.6440462306673 2539.710709085724
1934.3214559166754 2396.919832551831
1934.9987023759659 2511.106729028386
1935.675785648813 2667.1624411459825
1936.3527057754836 2214.8245153865073
1937.029462796223 2659.459395656493
1937.70605675126 2408.6278983211846
1938.3824876808085 2457.896443851833
1939.058755625072 2294.9671060354076
1939.7348606242267 2517.8242406105446
1940.4108027184448 2412.870431740024
1941.0865819478713 2723.3492857824817
1941.7621983526478 2281.6205652914805
1942.4376519728921 2287.0933780709065
1943.1129428487038 2419.1066124078616
1943.7880710201734 2649.2687128181087
1944.4630365273733 2639.622652454566
1945.1378394103576 2193.1492490775217
1945.8124797091714 2186.2149686795988
1946.4869574638324 2179.1904638319807
1947.161272714353 2373.23955115299
1947.8354255007234 2561.7983490786455
1948.5094158629272 2400.7758774585404
1949.1832438409183 2569.322714129989
1949.8569094746435 2564.847192550182
1950.530412804037 2664.0523526414404
1951.2037538690092 2492.8008531271707
1951.8769327094578 2415.383492846985
1952.5499493652678 2476.7172901584263
1953.222803876306 2567.2236659075943
1953.895496282421 2476.7392509564693
1954.5680266234522 2442.4761033946033
1955.2403949392155 2503.565903861349
1955.9126012695142 2345.2442059503337
1956.5846456541403 2433.577660187026
1957.2565281328643 2305.287917581069
1957.9282487454457 2444.6235314013197
1958.5998075316202 2773.948823010366
1959.27120453112 2558.8296630070677
1959.9424397836501 2327.7865527554122
1960.613513328908 2638.4066990660494
1961.2844252065697 2708.2052562311846
1961.9551754563017 2447.2168372666706
1962.6257641177453 2261.3742426674426
1963.29619123054 2367.124250301413
1963.966456834296 2285.010618789965
1964.6365609686181 2307.039675868363
1965.306503673086 2525.9752067075024
1965.976284987275 2253.4014764430494
1966.645904950734 2468.4688533052617
1967.315363603002 2190.5110122181454
1967.9846609836077 2497.326253904178
1968.6537971320486 2539.7250094798287
1969.3227720878222 2388.508820422871
1969.9915858904042 2329.009675960814
1970.660238579252 2514.556748818126
1971.3287301938108 2448.3387339930455
1971.997060773514 2022.322095788295
1972.665230357772 2366.9376513423676
1973.3332389859843 2342.917241468865
1974.0010866975335 2350.783731335679
1974.6687735317864 2519.4738525704383
1975.3362995280932 2500.8158367563474
1976.003664725793 2374.704737357516
1976.6708691642052 1985.7127219026315
1977.3379128826364 2296.5202032546244
1978.004795920373 2494.0722143605117
1978.6715183166925 2707.6969788756887
1979.3380801108524 2119.133768663852
1980.0044813420973 2462.5080838141803
1980.6707220496555 2128.7781757833527
1981.3368022727373 2323.1026851834004
1982.0027220505417 2478.936969179702
1982.66848142225 2128.9821496785694
1983.3340804270283 2184.1017184477205
1983.999519104027 2477.9979710727066
1984.6647974923835 2587.8796992836474
1985.329915631215 2595.4988621377943
1985.99487355963 2399.951637752996
1986.6596713167146 2413.255476805559
1987.3243089415428 2465.7639413124716
1987.9887864731754 2598.9493796899196
1988.6531039506553 2321.660303600098
1989.3172614130071 2448.8682485299964
1989.9812588992481 2480.313274817579
1990.645096448372 2211.397305605503
1991.3087740993633 2368.3249898379718
1991.9722918911848 2342.1283299872966
1992.635649862792 2298.6647930416275
1993.2988480531185 2550.650152961141
1993.9618865010852 2609.0756599449464
1994.6247652455968 2273.975554387619
1995.287484325545 2143.014698106121
1995.9500437798033 2464.6281457592395
1996.6124436472292 2218.4252095642314
1997.2746839666706 2430.635815199664
1997.936764776954 2348.641992828292
1998.598686116895 2323.8014056369457
1999.2604480252903 2670.200312022401
1999.9220505409212 2335.3635066746265
2000.5834937025593 2152.8405151156167
2001.2447775489582 2327.9407857080964
2001.9059021188514 2372.3705118592416
2002.5668674509616 2251.707424225385
2003.2276735839987 2363.850507288793
2003.8883205566508 2535.901132964918
2004.5488084075987 2199.7441389650066
2005.2091371755014 2358.416137752554
2005.8693068990033 2202.8592363986672
2006.5293176167397 2486.3061615413526
2007.1891693673224 2236.670535463928
2007.848862189354 2146.542315628689
2008.5083961214223 2240.2511152958477
2009.1677712020955 2171.078298113
2009.8269874699254 2132.077316005718
2010.4860449634598 2457.954577086549
2011.1449437212177 2000.926522995525
2011.8036837817108 2539.9433590247586
2012.4622651834325 2538.3906160465604
2013.1206879648653 2474.0363009568
2013.7789521644736 2640.53724646421
2014.4370578207036 2110.388012386866
2015.0950049719922 2152.557836920346
2015.7527936567585 2401.5245172635614
2016.4104239134067 2320.5382140916126
2017.067895780323 2655.997301542392
2017.725209295886 2678.789340884039
2018.3823644984514 2701.5796477999907
2019.0393614263648 2271.8994948904615
2019.6962001179545 2121.8123601546877
2020.3528806115355 2454.8393852876975
2021.0094029454067 2191.552774142305
2021.6657671578487 2167.872162971546
2022.321973287133 2262.909358550119
2022.9780213715148 2213.733649479554
2023.6339114492293 2139.865167545104
2024.2896435585026 2329.109280436302
2024.9452177375442 2264.046486369213
2025.600634024544 2625.7185823242926
2026.2558924576842 2323.5503706176123
2026.9109930751292 2483.3040970842912
2027.565935915025 2161.458767246078
2028.2207210155066 2584.1002349159817
2028.8753484146964 2471.0573121403645
2029.529818150695 2151.7226539275375
2030.1841302615903 2284.942076783379
2030.8382847854573 2110.339488318473
2031.4922817603601 2194.251831026413
2032.1461212243357 2292.368348412765
2032.7998032154192 1961.6786044243404
2033.4533277716218 2311.6882654978167
2034.1066949309443 2255.6020896813106
2034.7599047313688 2237.7034755579007
2035.4129572108704 2574.001134332989
2036.0658524074006 2474.6200006810604
2036.7185903589016 2282.531102749098
2037.3711711032956 2265.631405422989
2038.023594678496 2245.5645068654567
2038.675861122394 2130.6420782792384
2039.3279704728757 2356.45292233166
2039.9799227678031 2004.7966355330232
2040.6317180450278 2208.0471933033527
2041.2833563423865 2186.4551557317704
2041.9348376977014 2287.09593976287
2042.5861621487784 2222.017410836111
2043.2373297334088 2269.197391317707
2043.8883404893695 2359.8009331727226
2044.5391944544208 2431.376580435607
2045.1898916663158 2261.380317766182
2045.8404321627804 2455.5960202276087
2046.4908159815368 2251.324522556831
2047.1410431602853 2080.2070399579075
2047.7911137367173 1934.527841707231
2048.441027748504 2377.3391792510993
2049.090785233302 2166.3987500113894
2049.7403862287592 2131.448944825586
2050.389830772503 2432.2499665124215
2051.0391189021466 1946.9533639283115
2051.688250655294 2261.6171868302463
2052.337226069527 2141.498480658504
2052.986045182417 2362.4359019290296
2053.634708031521 1937.3335944350886
2054.283214654375 2306.45417313692
2054.931565088511 2111.0094885433846
2055.579759371436 2115.1105356194034
2056.2277975406523 2379.0687106744526
2056.8756796336384 2443.026648888898
2057.5234056878617 2034.8167707326477
2058.1709757407752 1972.358617729445
2058.8183898298194 2251.635602307025
2059.465647992416 2166.0201983465327
2060.1127502659747 2358.938912267266
2060.759696687888 2031.6981324965327
2061.4064872955405 2512.445516900719
2062.053122126292 2373.412688950545
2062.699601217497 1918.1661461863391
2063.345924606485 2227.152446899914
2063.992092330587 2282.3527175351255
2064.638104427102 2019.9375654653563
2065.283960933324 2510.0689927014832
2065.92966188653 2353.2493210425487
2066.5752073239855 2375.8456951307844
2067.2205972829397 2087.0071912565268
2067.86583180062 2256.2433484777875
2068.5109109142522 2260.6810683535787
2069.15583466104 2213.353597444031
2069.8006030781708 2165.984335835601
2070.445216202821 2282.0587919668187
2071.089674072153 2465.4723119066516
2071.7339767233116 2110.789991250237
2072.3781241934303 2122.033789217551
2073.0221165196253 2309.11871023993
2073.6659537390024 2139.0067088089518
2074.3096358886505 2356.1676020551504
2074.953163005637 1840.7671638625093
2075.596535127028 1995.2226375239966
2076.2397522898664 1861.4113853093004
2076.882814531182 2194.823620024359
2077.5257218879924 2345.2524486909724
2078.1684743973 1878.7558611151137
2078.8110720960885 1822.5344314578608
2079.453515021336 1979.8107290363773
2080.095803209997 2137.2157279449143
2080.7379366990135 2216.5446578812953
2081.37991552532 2130.2579527063463
2082.0217397258275 2272.8781979179716
2082.6634093374414 2084.054245496037
2083.3049243970418 2226.9157266136685
2083.9462849415067 2196.0221720983222
2084.587491007689 2259.8583007615
2085.2285426324324 2273.1647882410016
2085.869439852564 2226.537969450799
2086.510182704902 2241.772143443679
2087.1507712262483 2257.0411837720753
2087.791205453381 1954.2894313209654
2088.4314854230743 2445.204501556108
2089.0716111720867 2155.9477565985485
2089.7115827371617 2012.5653872678038
2090.351400155023 1951.534629066856
2090.991063462385 1890.494465199002
2091.6305726959527 1979.6752440541
2092.2699278924047 2012.0098837592577
2092.9091290884153 2044.4898480072966
2093.548176320641 2067.740600517568
2094.187069625721 2292.2200425770375
2094.8258090402887 1944.6600972699664
2095.464394600951 2060.4932126774283
2096.102826344313 2337.341915061343
2096.741104306955 2372.8298357258727
2097.379228525453 1818.0430663677193
2098.017199036358 1849.4987138889815
2098.6550158762147 2236.947400581329
2099.2926790815527 2121.4028192410547
2099.9301886888825 2089.4357491400383
2100.5675447347076 2200.446423922653
2101.2047472555114 2435.966605352638
2101.841796287761 2120.9893384508478
2102.47869186792 2238.318968865629
2103.1154340324265 2019.8631947173672
2103.752022817709 2117.1673861816107
2104.388458260184 2184.9468848935503
2105.024740396251 2245.7514341039373
2105.660869262292 2059.820502332327
2106.296844894685 2421.6052752946766
2106.93266732978 2240.3249245819
2107.5683366039284 1843.2216427720846
2108.2038527534532 1959.3191869129187
2108.8392158146726 2190.931400787731
2109.4744258238843 2124.0151183463786
2110.1094828173755 2067.7847648591855
2110.744386831422 2464.337319603098
2111.3791379022787 2254.0985995170004
2112.01373606619 2269.163426466011
2112.648181359389 1990.4022707709064
2113.28247381809 2247.279057617649
2113.916613478492 2127.678030621856
2114.550600376786 2277.1510614519684
2115.1844345491445 2265.218358111071
2115.818116031729 1959.9158768450209
2116.451644860679 1979.0192278505122
2117.085021072133 2019.9994648949973
2117.718244702204 2023.128064902409
2118.3513157869984 1993.1835216045279
2118.984234362604 1876.303396740838
2119.617000465092 2065.0021334085864
2120.249614130529 2323.7423197243947
2120.8820753949585 2016.7977168630036
2121.5143842944162 2041.7595292107108
2122.14654086492 1993.2553941239344
2122.7785451424734 2114.4062770445075
2123.4103971630702 1803.09641734629
2124.042096962681 2237.5458610279443
2124.6736445772767 2117.165693462444
2125.305040042802 2033.6128840746628
2125.936283395191 2136.533788302083
2126.567374670365 1974.6687941211444
2127.198313904233 1970.8819862853275
2127.8291011326855 1922.1790638932732
2128.4597363916037 1873.1458238754524
2129.0902197168507 1928.2453960815815
2129.720551144279 1847.6334188835324
2130.3507307097225 2345.7479350587896
2130.980758449008 2372.1722941832604
2131.6106343979427 2359.231938075594
2132.2403585923203 2346.1548869235926
2132.8699310679276 2331.107023772221
2133.499351860526 2033.8284776167723
2134.1286210058715 2282.1518259734917
2134.7577385397053 1888.3843705771822
2135.3867044977487 2220.8276362361116
2136.0155189157176 2254.741886099398
2136.644181829308 2198.693569800688
2137.2726932742025 1914.636908681338
2137.901053286074 2289.8944498227916
2138.5292619005777 2016.954504683997
2139.1573191533535 2063.9501346833713
2139.7852250800315 2264.4775592878127
2140.4129797162295 2237.617626480379
2141.0405830975433 1719.4500925618281
2141.6680352595613 2270.849955370786
2142.2953362378576 1818.6673321970543
2142.9224860679915 2030.1582006702324
2143.549484785508 1871.5393853464782
2144.1763324259373 2088.552612665869
2144.803029024799 2022.1067751300711
2145.429574617594 2044.2096954518515
2146.0559692398165 2255.3249999007076
2146.682212926942 1907.7137104907456
2147.308305714432 1934.4091369349892
2147.9342476377333 2217.9261592247904
2148.5600387322847 2200.1339029341243
2149.185679033506 2285.503070299642
2149.8111685768017 1889.4907760965343
2150.4365073975678 1847.5674219211658
2151.061695531187 2082.7163215550904
2151.686733013021 2255.8999295400436
2152.311619878423 2135.460860294491
2152.9363561627342 2086.4859516605075
2153.560941901278 1896.377560683049
2154.1853771293663 2162.330740727044
2154.809661882293 2170.478347843592
2155.433796195348 2342.7573955627045
2156.0577801037944 2033.0200215707423
2156.681613642895 2081.486609473791
2157.3052968478896 2115.7184969547825
2157.928829754006 2130.6484963743073
2158.552212396462 2069.715815929757
2159.1754448104566 2096.447335492677
2159.7985270311783 1747.1622600123192
2160.4214590938027 1756.0742128721795
2161.0442410334927 1781.9473325248473
2161.6668728853874 2075.345974754774
2162.289354684628 1883.315215025005
2162.911686466332 1897.9746388682543
2163.533868265602 2143.1358575454324
2164.1559001175337 2389.9449653423408
2164.7777820572046 2262.1843169603135
2165.399514119681 1773.2451091480932
2166.021096340013 1519.9766248630315
2166.6425287532384 1645.3577773952306
2167.263811394385 1771.040596015831
2167.8849442984574 1971.9912468801454
2168.505927500455 1715.8690650977987
2169.126761035366 1791.6009764617625
2169.7474449381552 1867.6911918000624
2170.367979243778 1651.6006091759023
2170.9883639871823 1989.3709269863011
2171.608599203293 1845.1314104770427
2172.2286849270276 2389.09170437899
2172.8486211932886 2444.9092284169246
2173.4684080369625 1845.9168673692245
2174.0880454929265 1824.4970126821968
2174.7075335960417 1768.6472228780635
2175.3268723811543 2272.111486695085
2175.9460618831 2035.2926681940585
2176.565102136701 1848.3015241851008
2177.1839931767627 1907.8183887145183
2177.802735038078 1967.5199470345929
2178.421327755432 1843.6665673700973
2179.0397713635866 1782.1003089663402
2179.658065897298 1725.6480181539205
2180.276211391305 1922.8682129587537
2180.8942078803357 1867.6037636450976
2181.5120553991 1919.2840059812213
2182.129753982299 1796.7179831179208
2182.7473036646206 1994.7196833879175
2183.3647044807367 2017.1648817466946
2183.9819564653044 1868.8569867939946
2184.599059652968 2125.7560784794723
2185.216014078367 2152.6611086204784
2185.832819776113 2186.335506023865
2186.4494767808137 2219.9647404794273
2187.065985127063 2036.9187090413932
2187.682344849436 1804.5270749076637
2188.298555982501 2372.950140842765
2188.9146185608097 2188.985572672748
2189.530532618901 2048.1314379537703
2190.1462981912937 1743.93717939538
2190.761915312507 1993.0098181644942
2191.377384017036 2083.280766204353
2191.9927043393654 1977.5482384838983
2192.6078763139667 1626.1253941504913
2193.2228999753006 1637.994743586913
2193.837775357808 1649.9167729537858
2194.452502495922 1632.4437161921946
2195.0670814240602 1828.6193846294846
2195.6815121766285 1870.2310471611072
2196.2957947880186 2437.6166597364954
2196.9099292926057 1729.7398572838479
2197.523915724758 2267.9178407766785
2198.137754118825 1952.2753477066049
2198.7514445091456 2316.9359212257687
2199.3649869300443 2309.9302746619032
2199.9783814158327 2303.005277489244
2200.5916280008096 2391.583331373448
2201.2047267192593 2268.530254888443
2201.8176776054515 2204.8277020137393
2202.430480693649 1893.835448014921
2203.0431360180955 1985.2580279959832
2203.6556436130195 2184.1608305027717
2204.268003512645 2213.598089193739
2204.8802157511727 2243.2167216551416
2205.492280362796 2137.4145182585426
2206.1041973816937 1978.1547107807673
2206.715966842032 1905.3474870036885
2207.3275887779655 1763.4333227221985
2207.93906322363 1940.1022638742047
2208.550390213153 2014.1821243378774
2209.1615697806465 1942.9514212852014
2209.7726019602105 1506.039607112094
2210.3834867859277 1605.8686153790832
2210.9942242918787 2096.7259742985425
2211.6048145121167 1757.2435128058617
2212.2152574806914 2512.64009798245
2212.825553231638 1885.9714453414188
2213.435701798975 1808.3947646348424
2214.045703216707 1730.9302563094527
2214.655557518832 1797.3659945017546
2215.2652647393297 1601.9110425100305
2215.874824912169 1470.1730758860456
2216.4842380713 1942.1650778084488
2217.09350425067 1822.224587726169
2217.7026234842033 1619.4287526527128
2218.311595805819 1801.1631826925397
2218.9204212494133 1983.2522094182866
2219.52909984888 2081.290591171893
2220.137631638092 2086.3708817214942
2220.7460166509154 2091.3294215962364
2221.354254921198 1868.2168038258865
2221.9623464827764 2056.533512176949
2222.5702913694713 1907.6053247299235
2223.178089615096 1825.9846520472734
2223.7857412534486 1682.327198954224
2224.39324631831 1761.6731068843856
2225.000604843457 1714.2399666898596
2225.607816862641 2193.367404130618
2226.214882409611 2020.3753883818165
2226.8218015180973 1940.9241791620793
2227.4285742218217 1791.7921327134532
2228.0352005544864 2011.3711665762262
2228.6416805497847 1737.3773783817167
2229.248014241399 1822.3119635506337
2229.8542016629945 2000.8270391020428
2230.460242848223 2179.5701987936345
2231.0661378307304 2225.810859921933
2231.671886644139 1797.3902007045767
2232.277489322065 1705.5344419657667
2232.8829458981127 1456.5787623013243
2233.48825640587 1843.0148772598532
2234.0934208789095 2323.1274316701883
2234.6984393507955 2145.5192711145996
2235.3033118550793 1945.1301191284504
2235.9080384252975 1744.52121832597
2236.5126190949723 1664.111813130249
2237.1170538976166 1703.427234657593
2237.721342866729 1624.3982043841074
2238.32548603579 1925.722248189683
2238.9294834382763 1880.4119378053892
2239.533335107646 1823.2766625430709
2240.1370410773434 2094.612922445523
2240.740601380803 1829.0692593854878
2241.3440160514474 1861.371198473646
2241.9472851226783 1899.6399025689261
2242.550408627896 2007.9052516985023
2243.1533866004793 2116.3855082464006
2243.756219073799 2096.10192212837
2244.3589060812064 1538.7603037887634
2244.961447656049 1738.018884551583
2245.5638438316564 1866.7303839829226
2246.166094641343 1976.498661915893
2246.7682001184166 1772.5721182366237
2247.3701602961664 1892.9154472699465
2247.971975207871 1920.0152237975315
2248.5736448867974 2071.8947773960763
2249.175169366197 1890.9613881212179
2249.7765486793123 1666.44161582307
2250.3777828593684 1970.0888543900971
2250.9788719395783 2093.7502031320837
2251.579815953146 1913.2442295715878
2252.1806149332606 1696.5986027595256
2252.781268913097 1863.3802317775808
2253.381777925817 1641.8882275137282
2253.9821420045737 1804.3415057645846
2254.5823611825035 2119.6098039324957
2255.1824354927303 1884.4724489649113
2255.782364968365 1832.5713003893768
2256.38214964251 1780.6554185586233
2256.9817895482483 1589.9696034598298
2257.5812847186553 1560.4297505767545
2258.180635186791 1530.8962283681442
2258.779840985704 1849.4749383048697
2259.37890214843 1751.757063625404
2259.97781870799 1746.536121139748
2260.5765906973957 1741.320164582426
2261.175218149645 1721.7510806899013
2261.773701097718 1696.0768386407854
2262.3720395745895 1670.3134165624379
2262.970233613216 1676.2196497029458
2263.568283246548 1563.9704969573659
2264.1661885075137 1663.6175475950124
2264.763949429038 1802.7805319370195
2265.3615660440246 1993.6985975894106
2265.959038385374 1832.621225802751
2266.5563664859637 1984.3795083565171
2267.153550378669 1818.6378535552296
2267.7505900963424 1966.2714334700718
2268.3474856718312 1590.273233693632
2268.9442371379664 1623.850255784534
2269.5408445275643 1668.263242880304
2270.1373078734377 1998.560518011572
2270.7336272083758 1748.2980808806174
2271.32980256516 1791.493035878268
2271.925833976562 1747.3598140350161
2272.5217214753357 1650.9254921113115
2273.117465094223 1554.2649106892427
2273.7130648659586 1715.6841998070327
2274.308520823257 1766.6065214445043
2274.903832998827 1940.8582270958382
2275.4990014253563 1870.2653557316455
2276.094026135528 2009.4037285428021
2276.6889071620117 1994.251793617766
2277.2836445374614 1978.9822438179235
2277.878238294519 2022.380219261787
2278.472688465812 1896.1806599776623
2279.066995083962 1769.726658215328
2279.6611581815705 1834.6063739183478
2280.255177791232 2119.2318995271835
2280.8490539455233 1835.1079016412757
2281.442786677013 2153.0388009719322
2282.0363760182554 1986.973488547936
2282.6298220017943 1618.2399174841007
2283.223124660155 2083.0428563860783
2283.816284025859 1457.8484363867783
2284.4093001314086 1351.6997158739618
2285.002173009292 1245.3321184918123
2285.5949026919952 1843.6156823814388
2286.1874892119777 1679.5102024028856
2286.7799326016993 1839.951532784215
2287.3722328936 1441.1132243504735
2287.964390120109 1599.849789069695
2288.556404313642 1826.4802959644644
2289.1482755066027 1657.0367617405318
2289.7400037313873 1990.3813158833302
2290.3315890203703 1789.8991357133498
2290.9230314059205 1731.2912157600513
2291.5143309203904 1672.6421118969724
2292.1054875961236 1544.34644130839
2292.6965014654506 2065.310111304621
2293.287372560684 1739.1738631905664
2293.878100914131 1760.8402845560613
2294.468686558086 1782.6096739760294
2295.059129524827 1825.9319614727428
2295.649429846617 2106.5952033765952
2296.239587555716 2194.92431635988
2296.8296026843636 1785.4688561324485
2297.419475264791 1833.5047135582558
2298.0092053292137 1881.5162585375863
2298.598792909839 1692.6921303995746
2299.1882380388597 1807.6860507820406
2299.777540748455 2308.8962095176266
2300.3667010707904 2058.646206703271
2300.9557190380256 1960.3837486702873
2301.544594682302 2346.700486937715
2302.1333280357503 2214.6421911330845
2302.721919130485 2082.481103913406
2303.3103679986198 2090.1802103901236
2303.898674672242 1951.6652230495135
2304.486839183437 1729.431636114162
2305.0748615642697 1948.6673602618162
2305.6627418468015 1752.2291044078127
2306.2504800630704 1760.6379661613005
2306.8380762451143 1798.2282635224624
2307.425530424949 1761.4390849715935
2308.012842634582 1724.5517454080104
2308.6000129060103 1987.7754158731786
2309.187041271214 1923.4336195448104
2309.773927762164 1858.977553341434
2310.3606724108213 1947.4900368524202
2310.9472752491274 1538.9921051507945
2311.5337363090184 1704.1344080034464
2312.120055622414 1897.4849917886836
2312.706233221221 1685.4746401524874
2313.2922691373424 1486.0255348821793
2313.8781634026564 1509.1770108260712
2314.463916049037 1532.3618775383234
2315.049527108342 2001.2338905134154
2315.6349966124235 2090.858278877806
2316.2203245931123 2149.3327891663075
2316.8055110822315 1640.2123780159661
2317.3905561115935 1845.254065926437
2317.9754597129977 1911.8115836599686
2318.560221918229 1978.5331477939567
2319.1448427590603 1707.2865946210713
2319.729322267256 1379.0457118423549
2320.313660474563 1894.2133980222407
2320.8978574127195 1855.0730979192463
2321.481913113452 1815.921797886147
2322.0658276084705 1473.088382867674
2322.6496009294806 1757.5324310442998
2323.233233108165 1896.3946767157893
2323.8167241762058 2035.6149383983188
2324.4000741652617 1816.9308871065073
2324.983283106987 2032.6455081361487
2325.5663510330232 2073.782135244544
2326.1492779749933 2044.0500311973308
2326.7320639645204 1831.9697445166494
2327.3147090332004 1653.0071453150863
2327.897213212629 1657.5844441894078
2328.4795765343843 1662.0417358917373
2329.0617990300307 1565.0327948302393
2329.643880731124 2002.3656010575257
2330.22582166921 1898.7953933022982
2330.807621875816 1979.8256558643193
2331.3892813824623 1444.1306356637454
2331.9708002206517 1560.822870306954
2332.5521784218818 1738.9822189261172
2333.133416017634 1917.5792367351278
2333.7145130393765 1888.9710904157723
2334.295469518571 2000.0454946964844
2334.876285486658 1974.9397449091205
2335.456960975076 2018.960115328386
2336.037496015242 2063.113853216962
2336.6178906385667 1769.4182824843356
2337.198144876451 2035.3392907944465
2337.778258760278 1632.9082340990776
2338.3582323214214 1329.1332055758626
2338.938065591243 1958.2199833853315
2339.517758601087 2030.984053183883
2340.0973113822965 1733.3552494682385
2340.676723966193 1750.6931287444254
2341.255996384094 1654.0639635440596
2341.835128667295 1932.2989325720573
2342.4141208470883 1704.1450947588248
2342.992972954751 1775.1637926147573
2343.5716850215467 1837.6404180025268
2344.1502570787306 1794.325535242019
2344.7286891575386 1750.838287481539
2345.3069812892045 2082.6863648439626
2345.885133504944 2084.3438392348785
2346.4631458359618 1556.5263835397905
2347.04101831345 1761.413516148421
2347.6187509685915 1779.9461926652577
2348.196343832553 1678.0973210946977
2348.7737969364935 1569.1466454487686
2349.351110311558 1701.1316739146914
2349.9282839888765 1742.4513008285605
2350.5053179995757 1642.2353032993706
2351.0822123747585 1554.2080607531177
2351.658967145526 2107.2778164312695
2352.2355823429643 1523.508622911397
2352.812057998144 2042.6207815855219
2353.3883941421263 1559.7872161320515
2353.9645908059647 1631.722457023316
2354.540648020693 1544.5644956910821
2355.116565817336 1457.2561757042026
2355.6923442269126 1619.4046200753567
2356.2679832804224 1515.2163815936424
2356.8434830088518 1386.0091594256887
2357.41884344318 1675.9242207733255
2357.994064614377 1571.2866650273074
