#exp_cfg={"servo_angle": 0.0, "laser_lim": 100.0, "servo_angle_to": 18.0, "laser_wup": 0.0, "bt_dev": "EnSpectr-25AE3", "laser_wdn_max": 0.0, "frames": 10.0, "servo_used": 0, "servo_calib_use": 0, "laser_wdn_min": 0.0, "servo_pix_from": 90.0, "cooler_tout": 300.0, "servo_angle_from": 0.0, "servo_calib": "[-1.9174921013161362e-09, 3.9322238269163779e-05, -0.27385609119055809, 653.59552119713567]", "laser_autoctl": 0, "servo_pix_to": 3682.0, "laser_pw": 100.0, "cooler_on": 0, "laser_volt": 4.0, "cooler_autoctl": 0, "cooler_curr": 70.0, "cooler_startup": 10.0, "laser_fixed_pw": 0, "gain": 1.3, "offset": 2.53059635486, "servo_calib_degree": 3.0, "laser_curr": 55.0, "shutter": 8200.0, "servo_calib_step": 1.0, "laser_fixed_curr": 0, "exp": 2000.0, "ccd_volt": 4.7, "bt_addr": "00:06:66:62:5A:E3", "servo_delay": 500.0, "laser_autooff": 1}
#proc_cfg={"flat_auto_wnd": 200.0, "flat_auto_fr": 200.0, "flat_auto_shift": 5.0, "yconv": 1, "flatten": 1, "flatten_strength": 100.0, "xfrom": 300.0, "auto_max_frame": 2000.0, "auto_signal": 48000.0, "flat_auto_tol": 0.1, "autoclip": 1, "xrel_range": 0.0, "flat_auto_to": 4000.0, "intensity_adj": 1.0, "xrel": 7852.0, "rmhot": 1, "flat_auto_slit": 4.999999999999997, "auto_ini_exp": 300.0, "auto_off": 0, "xto": 2860.0, "flat_auto_ref": "", "flat_auto_rank": 1, "autobackg": 0, "xrel_adj": 0.0, "auto_black_lvl": 1, "base_wnd": 100.0, "sub_baseline": 0, "xconv": 2, "auto_max_exp": 1000.0, "auto_total_exp": 10000.0, "auto_exp": 0, "rmripple": 0, "black_lvl": 8274.925, "shutter_clip_adj": 0.0, "auto_bckg": 0, "flat_auto_thr": 0.9, "subbackg": 1}
316.8218498245369 28486.071975884406
317.89969571804795 28143.849980136332
318.977263876126 28047.49474885342
320.05455438786703 27891.134613916733
321.1315673423287 27812.429546280873
322.2083028285215 27838.862549046928
323.2847609354267 27705.14620231116
324.3609417519747 27603.75245778346
325.43684536705587 27478.460369628923
326.5124718695279 27354.340739180036
327.58782134820103 27354.11703704705
328.66289389184385 27400.12368932541
329.7376895891921 27105.268115342526
330.8122085289342 27022.447498776437
331.88645079971866 27068.242639251683
332.9604164901575 26989.142893666594
334.03410568881554 26887.538069874725
335.1075184842266 27035.14085200758
336.18065496487543 26681.047709752707
337.2535152192122 26729.658125541104
338.32609933564163 26841.262583446758
339.39840740253203 26623.895364735952
340.4704395082099 26584.302479453403
341.5421957409617 26501.68578905591
342.6136761890357 26505.30608590917
343.6848809406365 26348.409898584698
344.75581008392874 26208.585399879703
345.82646370703696 26213.94186275199
346.8968418980512 26153.17364280147
347.96694474501055 26342.607129190437
349.0367723359268 26112.643498995778
350.106324758759 26089.48990990909
351.1756021014353 25928.071576057242
352.2446044518383 25943.39756607623
353.31333189781435 26033.129964956952
354.38178452716966 25944.82258836316
355.449962427665 25812.169512583492
356.51786568702846 25752.102583995485
357.58549439294256 25984.56636106206
358.6528486330535 25935.071857239116
359.71992849496564 25736.07891204657
360.7867340662433 25820.87963291135
361.8532654344144 25789.487205063513
362.9195226869597 25907.815183796116
363.9855059113288 25647.83295167407
365.05121519492604 25728.02769044469
366.11665062511565 25762.608482570584
367.1818122892273 25788.23453310791
368.2467002745434 25710.431231649094
369.31131466831175 25699.501268709195
370.375655557742 25753.4178331754
371.4397230299983 25822.228625582873
372.5035171722102 25712.26994941388
373.5670380714637 25732.191017912388
374.6302858148101 25811.556403677
375.6932604892554 25755.610568486307
376.7559621817709 25756.483335114677
377.81839097928605 25416.975050028417
378.8805469686886 25462.035378045544
379.94243023683157 25585.666882062003
381.0040408705263 25489.82712057567
382.0653789565458 25477.146339001185
383.1264445816196 25392.19409581085
384.1872378324406 25378.91113432533
385.2477587956637 25362.65673301695
386.3080075579037 25272.84130400853
387.3679842057336 25119.927976772236
388.4276888256918 25211.156372748635
389.48712150426945 25144.007509405295
390.54628232792857 25058.287276865136
391.6051713830857 25006.59171673438
392.66378875611736 25015.52129678918
393.7221345333637 25049.528680318286
394.7802088011249 24686.67432041911
395.838011645661 24858.417588115488
396.89554315319765 24798.834828216444
397.9528034099112 24638.183870078912
399.00979250194723 24522.159015180012
400.06651051541485 24547.58724590791
401.1229575363741 24504.47883110619
402.17913365085224 24465.75489541044
403.23503894483656 24521.980409144126
404.2906735042761 24304.373033274293
405.3460374150818 24235.17088100684
406.401130763119 24279.078308643548
407.455953634224 24182.737224577475
408.5105061141876 24211.86099527119
409.56478828876243 23978.843833883817
410.6188002436629 23929.417893008278
411.6725420645689 23973.605106578667
412.72601383711117 23931.305162229
413.77921564689314 23891.496945266364
414.8321475794728 23698.54767710851
415.88480972036814 23549.727372486923
416.93720215506437 23719.17988134467
417.9893249690049 23484.40807398619
419.04117824759123 23353.284055108372
420.09276207619223 23373.448502370557
421.144076540133 23357.26055455242
422.1951217247042 23314.789957591995
423.24589771515275 23352.093294467497
424.2964045966928 23261.545501713415
425.34664245449494 23264.781967889045
426.3966113736933 23071.830060145432
427.4463114393875 23090.38094038455
428.49574273662984 23144.920935227157
429.5449053504417 23007.054332779077
430.5937993658026 23048.20452801072
431.6424248676558 22938.505955369656
432.6907819409007 22952.66243423546
433.73887067040596 22973.61172795784
434.7866911409965 23023.212014367247
435.8342434374608 23034.95353704606
436.88152764455117 22924.879846649335
437.9285438469724 22906.855164294142
438.9752921294057 22848.878622566674
440.02177257648145 22721.495896181143
441.06798527279716 22629.87090186879
442.1139303029122 22748.32506394425
443.1596077513459 22691.81340233001
444.2050177025794 22434.124353978634
445.25016024105753 22537.302938840374
446.2950354511886 22474.537087524528
447.33964341733736 22405.764373722843
448.383984223834 22251.362889025433
449.4280579549686 22139.41545849397
450.471864694995 22174.507775078324
451.5154045281306 22176.90915259567
452.5586775385509 22129.316054944695
453.60168381039693 22061.1803145092
454.64442342776783 22111.19185400347
455.6868964747264 22080.911087731358
456.7291030353008 22002.991342035424
457.77104319347563 22031.199410272875
458.8127170332027 21952.211526832343
459.854124638392 21975.86228711268
460.895266092919 22055.572479771934
461.93614148061897 21953.428350253766
462.97675088529104 22037.65033640189
464.01709439069236 21930.538952163715
465.0571720805492 21937.42874900338
466.0969840385442 21828.711392356774
467.1365303483253 22002.295424148142
468.17581109350067 21881.326808123486
469.2148263576437 21820.92550940949
470.2535762242878 21976.70707791342
471.29206077693016 21976.9626911125
472.33028009902773 22051.644515537566
473.3682342740012 22030.39959104172
474.40592338523857 22031.36297384804
475.4433475160804 22059.11074279248
476.4805067498364 22073.53442350875
477.51740116978 22169.18143051165
478.5540308591426 22175.96572930213
479.59039590112116 22344.75131980402
480.6264963788726 22339.105971793095
481.6623323755193 22604.840786821464
482.6979039741436 22609.930528107194
483.7332112577915 22976.113930528685
484.76825430947247 23195.984798366855
485.80303321215797 23268.136722215582
486.837548048783 23470.525439953395
487.8717989022425 23627.097444256993
488.90578585539697 23723.657810717777
489.9395089910686 23752.783928103603
490.97296839203955 23804.865352617504
492.00616414106116 23502.509311867463
493.0390963208429 23600.5146041961
494.0717650140559 23506.697625592264
495.10417030333883 23427.23294376287
496.1363122712901 23313.861626238177
497.16819100046814 23095.645571356952
498.1998065734024 22824.662053785818
499.2311590725767 22812.13941535983
500.26224858044407 22590.3004171081
501.2930751794156 22422.861148416912
502.3236389518679 22212.716298097752
503.35393998014115 21956.73810518982
504.38397834653733 21816.415516704055
505.4137541333221 21805.87248237046
506.4432674227228 21491.7778137104
507.4725182969323 21439.176942492897
508.5015068381035 21311.207938340358
509.53023312835467 21215.86135459673
510.55869724976765 21186.480383290796
511.58689928438434 20983.18718622093
512.6148393142121 20878.609291299177
513.6425174212218 21019.16894487683
514.6699336873462 20951.69552349591
515.6970881944835 20955.72867393926
516.7239810244901 20821.255146362335
517.7506122591931 20899.938692161035
518.7769819803761 20991.35066827722
519.8030902697901 20948.345074734225
520.8289372091476 20899.129951680683
521.8545228801249 21131.982331543833
522.8798473643619 20803.91118170696
523.9049107434621 20800.617613033206
524.9297130989908 20819.90383135323
525.9542545124805 20780.79907505787
526.9785350654201 20677.674578603044
528.0025548392696 20653.745657430063
529.0263139154504 20574.861738601376
530.0498123753423 20559.12729298507
531.073050300296 20468.699064631663
532.0960277716204 20449.859515652177
533.1187448705896 20315.201713820446
534.1412016784416 20320.328611420955
535.1633982763833 20229.267676001637
536.1853347455726 20238.61048250083
537.2070111671401 20177.99822231661
538.2284276221817 20042.90524218937
539.2495841917516 19925.715819442925
540.2704809568677 19775.77050057247
541.2911179985167 19914.013565425208
542.3114953976419 19716.731383283335
543.3316132351592 19600.55982392666
544.3514715919409 19525.632922360157
545.3710705488247 19523.629747891908
546.3904101866156 19369.191319457826
547.4094905860784 19552.173226615003
548.4283118279418 19369.35083586981
549.4468739929034 19388.08310599236
550.4651771616191 19248.892905149005
551.4832214147063 19147.009121844505
552.501006832761 19237.23823943158
553.5185334963226 19149.153967666614
554.5358014859103 19273.344051213677
555.5528108820035 19152.126315937232
556.5695617650363 19089.765046720113
557.5860542154242 19194.574365626708
558.6022883135283 19108.12096997883
559.6182641396881 19069.25503377403
560.6339817741991 19029.374144049023
561.6494412973225 19151.8786323751
562.6646427892883 19121.003510390277
563.6795863302796 18971.9412080771
564.694272000459 18950.87408554837
565.7086998799423 19074.44991555147
566.7228700488104 18987.873062350893
567.7367825871115 18934.267917378882
568.7504375748576 19038.338975891016
569.7638350920224 18964.295600700945
570.7769752185486 18951.043912173012
571.7898580343353 18942.711697373285
572.802483619258 18950.67305665061
573.8148520531431 19078.592282727186
574.8269634157932 19034.818876561836
575.8388177869692 19002.702397886384
576.8504152463938 19049.089579296575
577.8617558737587 19292.50407867773
578.8728397487175 19146.483980638553
579.883666950891 19275.249248962693
580.8942375598654 19501.199321179658
581.9045516551851 19426.85359965925
582.9146093163617 19626.884025501986
583.924410622878 19615.733265489107
584.9339556541727 19672.23669729191
585.9432444896538 19814.68915390603
586.9522772086875 19478.81720918951
587.9610538906127 19721.2685966539
588.9695746147318 19601.896164121063
589.9778394603054 19579.18805007432
590.985848506567 19548.191836761536
591.9936018327098 19493.673691138294
593.0010995178891 19224.105220104837
594.0083416412344 19327.9053082037
595.0153282818283 19068.213788360907
596.0220595187293 18970.835851884887
597.0285354309508 18928.441406153037
598.0347560974806 18901.353681037494
599.0407215972609 18780.003638508162
600.0464320092051 18786.173548169172
601.0518874121954 18766.28949611389
602.0570878850685 18661.148543558935
603.062033506636 18695.12058129767
604.0667243556636 18676.06414277365
605.0711605108936 18544.575663612053
606.0753420510264 18825.97357354596
607.0792690547278 18658.197670637903
608.082941600629 18643.971579042336
609.0863597673306 18497.40477951033
610.0895236333909 18755.278088130963
611.0924332773357 18876.470599249227
612.0950887776617 18895.29459765985
613.0974902128219 18918.041039887023
614.0996376612384 19217.472178105563
615.1015312013005 19200.848669924213
616.1031709113595 19323.672498237836
617.1045568697336 19241.590098397144
618.1056891547069 19523.352706594418
619.1065678445229 19659.31912917257
620.1071930173985 20036.89969641408
621.1075647515099 19992.985479486837
622.1076831250048 20263.43274172838
623.1075482159849 20611.13863870213
624.1071601025305 20676.214596519356
625.1065188626781 20915.506096173074
626.105624574433 21363.1040805461
627.1044773157682 21428.990686725516
628.1030771646128 21607.019206649093
629.1014241988742 21716.42860272314
630.0995184964158 21990.977010257928
631.0973601350688 22003.07550119835
632.0949491926294 22296.73673480143
633.0922857468631 22023.155077433395
634.089369875499 22129.321390817877
635.0862016562278 22041.156069130073
636.0827811667077 21808.991212430516
637.0791084845641 21810.952322734105
638.0751836873878 21581.350490910267
639.0710068527369 21600.98317759115
640.0665780581294 21254.991033059287
641.0618973810506 21047.435470468372
642.0569648989604 21047.059016958618
643.0517806892676 20632.89392928462
644.0463448293649 20538.68008235318
645.040657396592 20188.52670335327
646.0347184682723 20054.946576756065
647.0285281216875 19820.949413568316
648.0220864340772 19770.66956989759
649.0153934826558 19444.741117599428
650.0084493446047 19355.87706503597
651.0012540970674 19146.998683289774
651.9938078171526 18975.86532184516
652.9861105819346 18761.506661590865
653.9781624684565 18785.168955300844
654.9699635537254 18544.06504262581
655.9615139147136 18565.772379184124
656.9528136283589 18315.431545818265
657.9438627715699 18464.516673639682
658.9346614212154 18303.761937560022
659.925209654135 18029.362474494344
660.9155075471263 18104.240826515474
661.9055551769616 18049.9800557139
662.895352620375 18130.2991341998
663.8848999540678 18066.635956983526
664.8741972547068 17788.046468233282
665.863244598926 17746.741417899953
666.8520420633213 17789.551991873035
667.8405897244611 17684.960588997346
668.8288876588758 17415.36469757969
669.8169359430613 17633.711688348016
670.8047346534822 17611.620660878118
671.7922838665672 17532.589773660548
672.7795836587156 17554.325747968007
673.766634106285 17589.462330940245
674.7534352856092 17416.43130429562
675.7399872729766 17587.49197209241
676.7262901446538 17437.848070599954
677.712343976862 17578.040619236308
678.6981488457986 17544.885771894635
679.6837048276229 17463.570073753035
680.6690119984596 17564.86500177513
681.6540704344043 17446.113225357432
682.6388802115107 17254.697004885544
683.6234414058108 17280.003360296687
684.6077540932874 17137.32653318311
685.591818349907 17211.912654056323
686.575634251587 17113.199645070996
687.5592018742263 17023.45244681357
688.5425212936734 16896.08896570738
689.5255925857564 16962.34128596097
690.5084158262707 16819.081559447808
691.4909910909646 16816.98607545295
692.4733184555644 16636.097831466977
693.4553979957618 16762.741140832226
694.4372297872123 16659.627651157887
695.4188139055404 16659.530743315157
696.4001504263324 16502.256948013153
697.3812394251509 16654.772769886666
698.3620809775111 16450.038037740982
699.3426751589104 16560.60162169385
700.3230220448004 16477.073668305828
701.3031217106054 16452.831114257024
702.2829742317172 16534.43678344679
703.2625796834873 16344.1712627798
704.2419381412474 16319.589752123273
705.22104968028 16248.018659675523
706.1999143758458 16327.141743280657
707.178532303169 16278.527814742853
708.1569035374378 16238.020833788454
709.1350281538107 16164.03699577392
710.1129062274158 16236.559791155003
711.0905378333373 16395.30076571978
712.0679230466376 16324.369264300607
713.0450619423427 16508.650979239705
714.0219545954424 16575.818747936755
714.9986010808989 16484.956593631323
715.9750014736292 16578.6789717999
716.9511558485392 16655.532228984415
717.9270642804786 16681.57306853735
718.9027268442787 16755.14624670456
719.8781436147328 16701.759178725213
720.8533146666014 16597.11216665181
721.828240074612 16526.449996038424
722.8029199134635 16502.347205623177
723.7773542578125 16439.268531777176
724.751543182294 16405.294246378493
725.7254867615029 16409.985898052102
726.6991850700015 16211.484914378429
727.6726381823228 16159.605563869069
728.6458461729599 16199.35571155039
729.6188091163858 16109.923854935856
730.5915270870246 16135.333804888074
731.5640001592856 16046.248215980337
732.536228407529 16153.858358352916
733.5082119060917 16060.0621520702
734.4799507292755 15946.498415581304
735.4514449513481 16087.200108164445
736.4226946465496 16207.983183551889
737.3936998890786 16173.12528657664
738.3644607531078 16108.734437454457
739.3349773127793 15991.564141215835
740.3052496421951 16078.023890405606
741.27527781543 15923.523290420513
742.2450619065221 15897.15108357887
743.2146019894826 15944.440724295471
744.183898138288 15864.6500606541
745.1529504268801 15710.210811354915
746.1217589291682 15569.71176328637
747.0903237190341 15519.100538709881
748.058644870318 15602.217304186346
749.0267224568397 15466.435555364404
749.994556552374 15317.236159905588
750.9621472306771 15348.037517988638
751.9294945654583 15327.460962135196
752.8965986304011 15356.47633616994
753.8634594991636 15315.830608334029
754.8300772453586 15375.636319122797
755.7964519425768 15343.763793380098
756.762583664371 15302.718615659596
757.7284724842611 15375.17859387826
758.6941184757416 15240.063613994658
759.6595217122667 15360.910944587977
760.6246822672638 15343.570354219966
761.5896002141235 15254.896557501099
762.5542756262093 15275.648636937307
763.5187085768503 15348.116678182996
764.4828991393406 15264.48688601469
765.4468473869474 15342.914126515887
766.4105533929032 15158.344958647165
767.3740172304078 15119.806917866445
768.3372389726283 15255.966780858358
769.3002186926988 15003.745521031238
770.2629564637282 14874.412427801071
771.2254523587872 14946.560787903309
772.1877064509154 14785.18867013991
773.1497188131179 14681.902693702441
774.1114895183728 14681.304961410133
775.0730186396268 14704.269762976168
776.0343062497905 14617.217932823283
776.9953524217381 14484.520566831241
777.9561572283274 14551.481815892676
778.9167207423689 14472.907677950576
779.8770430366476 14534.729001756254
780.8371241839159 14513.40605759598
781.7969642568951 14490.581298607596
782.7565633282757 14670.722447694847
783.7159214707099 14419.611989943349
784.6750387568281 14472.380741061133
785.6339152592227 14439.59001784613
786.5925510504512 14484.466419901384
787.5509462030477 14461.90133269495
788.5091007895098 14380.85374655758
789.4670148823006 14441.191229024475
790.4246885538596 14470.12529671698
791.3821218765861 14451.379381223102
792.3393149228505 14379.198420067827
793.2962677649975 14464.47168473584
794.2529804753303 14480.484230945294
795.20945312613 14494.196330979914
796.1656857896378 14377.323845006526
797.1216785380675 14371.060703349867
798.0774314435985 14596.672089317848
799.0329445783846 14662.399043005542
799.9882180145414 14630.198673991132
800.9432518241574 14551.142258792728
801.89804607929 14797.238133420778
802.852600851962 14888.791372704427
803.8069162141637 14814.255929805851
804.760992237856 14942.055712333799
805.714828994971 14922.683733089365
806.6684265574077 14984.491201311286
807.6217849970271 14888.289757683631
808.574904385674 14814.724359031603
809.527784795142 14909.488432589764
810.4804262972102 14985.184896584673
811.4328289636178 14800.560716016193
812.3849928660748 14567.715718578364
813.3369180762638 14556.07792604801
814.2886046658241 14552.754249324435
815.2400527063783 14341.579494490414
816.1912622695108 14275.16437442382
817.1422334267718 14214.19110862524
818.0929662496856 14085.359394669067
819.0434608097457 13970.562271086616
819.9937171784059 13778.1174233097
820.9437354271013 13745.0454914135
821.8935156272255 13761.197782958112
822.8430578501484 13656.638231100878
823.7923621672016 13421.110912818936
824.7414286496896 13498.441143002527
825.6902573688876 13447.431009862683
826.6388483960363 13527.156974095695
827.5872018023492 13451.228122212051
828.5353176590033 13511.06101721384
829.4831960371503 13347.615691355264
830.4308370079016 13329.453480272467
831.3782406423525 13274.680606576381
832.3254070115545 13258.731566389606
833.2723361865319 13202.076304286951
834.2190282382799 13249.48488504851
835.1654832377644 13291.582405018245
836.1117012559116 13156.835441152749
837.0576823636256 13297.148635090567
838.003426631778 13122.783831568668
838.9489341312074 13028.214753997145
839.8942049327197 13227.679448430248
840.8392391070975 13231.026714089041
841.7840367250865 13143.733168480505
842.7285978573982 13038.805847798294
843.672922574724 13173.589674505341
844.6170109477152 13053.151695732608
845.560863046996 13073.491961179661
846.5044789431595 12974.827267951769
847.4478587067697 13112.18153023698
848.3910024083561 13114.368883975825
849.333910118421 13088.948752301334
850.2765819074339 13006.832730428312
851.2190178458332 13155.26695506506
852.161218004032 13098.628280904783
853.1031824524016 13128.129645119709
854.0449112612987 13056.23102631621
854.9864045010327 13156.425651739419
855.9276622418947 12980.503817540763
856.8686845541379 13130.405078526117
857.8094715079915 13030.807548777339
858.7500231736467 13172.352035961769
859.690339621271 13118.492210102539
860.6304209209939 13138.680010484386
861.5702671429244 13007.239697047738
862.5098783571284 13133.686676382287
863.4492546336569 13123.27967004847
864.3883960425155 13127.16123391568
865.3273026536863 13090.597498135072
866.2659745371238 13205.504767155318
867.2044117627465 13201.012171834189
868.1426144004472 13159.382409933798
869.0805825200823 13191.12556690598
870.0183161914847 13261.162975391253
870.9558154844526 13420.188780067765
871.8930804687552 13314.94864997874
872.8301112141307 13412.116980872128
873.7669077902865 13470.873516054364
874.7034702669062 13606.518738975012
875.6397987136315 13529.185893767033
876.5758932000863 13584.797176920809
877.5117537958522 13713.8418656339
878.4473805704911 13653.32168011881
879.3827735935283 13557.083232407042
880.3179329344603 13696.16949814151
881.2528586627541 13744.499169132527
882.1875508478479 13745.58649205964
883.1220095591489 13546.181753931649
884.0562348660296 13588.34435997326
884.9902268378391 13726.377367193369
885.9239855438955 13648.644325829257
886.8575110534839 13517.277192544405
887.7908034358588 13456.990673885166
888.7238627602474 13444.552585069741
889.6566890958475 13414.345618693575
890.5892825118208 13235.84905340111
891.5216430773125 13234.979563623356
892.4537708614189 13095.389180244023
893.3856659332196 13073.272567819195
894.3173283617652 13020.363326921997
895.2487582160684 12986.1180237345
896.179955565116 12913.543173468086
897.110920477864 12765.045466070002
898.0416530232451 12733.616541121051
898.9721532701478 12589.189328149818
899.9024212874428 12724.249067897788
900.8324571439662 12611.709704815938
901.7622609085302 12540.90135802564
902.6918326499072 12458.578674772263
903.6211724368477 12584.745778115765
904.5502803380696 12543.96140925273
905.4791564222614 12603.996671600917
906.4078007580792 12413.066463581144
907.3362134141571 12381.444789224246
908.2643944590909 12555.552353849958
909.1923439614493 12276.992571156381
910.1200619897754 12290.67355703294
911.0475486125779 12514.642238058665
911.9748038983344 12391.22063942916
912.9018279155007 12364.038831771688
913.8286207324982 12157.913652076986
914.7551824177117 12322.795480716279
915.6815130395116 12356.685756043256
916.6076126662283 12235.045880498958
917.533481366163 12303.793712794848
918.4591192075914 12287.045865891447
919.3845262587565 12369.540307454292
920.3097025878706 12322.782977442024
921.2346482631237 12204.704076961289
922.1593633526682 12302.459295338374
923.0838479246304 12414.238163121418
924.0081020471061 12319.123931936509
924.9321257881656 12150.135607155413
925.8559192158464 12165.79236926521
926.7794823981512 12233.971942133385
927.7028154030686 12154.535503085706
928.6259182985414 12101.638645970608
929.5487911524906 12277.020071533383
930.4714340328119 12212.155838674254
931.3938470073608 12080.359534473591
932.3160301439748 12185.337349904683
933.2379835104548 12158.027804921609
934.1597071745709 12204.871538979094
935.0812012040769 12213.528820227973
936.002465666681 12101.519404185347
936.9235006300696 12209.806630794545
937.8443061619055 12061.305892988496
938.7648823298077 12070.363821777697
939.6852292013809 12143.699287701722
940.6053468441951 12204.24494943472
941.5252353257874 12024.75547963141
942.4448947136698 12085.426923648803
943.364325075323 12013.055257611974
944.2835264782043 12110.19391374258
945.2024989897309 11975.310392111465
946.1212426773054 12007.798442678499
947.0397576082851 12037.975339973476
947.9580438500125 12117.267162331429
948.8761014697939 12086.376573163545
949.7939305349064 12025.207445095864
950.7115311125999 12020.201119141297
951.6289032700952 12020.521371801096
952.5460470745875 12030.266444286666
953.4629625932339 11976.629299892771
954.3796498931715 12104.645210587154
955.2961090415029 11965.71191943785
956.2123401053068 12076.124242648812
957.1283431516276 12044.195434751275
958.0441182474842 11919.528884577572
958.9596654598663 12066.32160157651
959.8749848557309 12040.293558120124
960.7900765020167 12016.299837875873
961.7049404656209 11957.866675631698
962.6195768134185 11996.355412748602
963.5339856122537 11906.402216840008
964.4481669289453 11995.319391376031
965.3621208302793 11930.926445062554
966.2758473830145 11970.125289812095
967.1893466538822 12028.589067499608
968.1026187095813 11904.608675350562
969.0156636167867 11894.976497812397
969.9284814421426 12013.50181018648
970.8410722522622 11906.90815591793
971.753436113735 11863.338548682943
972.6655730931161 11863.00163950002
973.5774832569368 12024.291514725901
974.4891666716958 11912.426068511792
975.4006234038698 11909.9381369896
976.3118535198955 11894.97262062366
977.2228570861935 12020.80830581707
978.1336341691494 11989.958904500276
979.0441848351202 11968.600479180592
979.9545091504333 11994.938129330632
980.864607181391 12071.259357711211
981.7744789942699 12107.689190091609
982.6841246553086 12111.91145962771
983.5935442307236 12065.171965510397
984.5027377867027 12175.808711981012
985.4117053894024 12167.553081203929
986.3204471049557 12119.150873891635
987.2289629994648 12149.832172265562
988.1372531390007 12216.442780223551
989.0453175896091 12185.479082335747
989.9531564173067 12159.74598450617
990.860769688079 12022.413745718684
991.7681574678918 12201.716763558501
992.6753198226706 12267.408536893541
993.582256818323 12211.993540198917
994.4889685207218 12231.259431225297
995.3954549957143 12434.229799303637
996.301716309119 12345.118303163206
997.2077525267232 12289.619384805188
998.1135637142943 12190.358352207964
999.0191499375615 12417.277607556603
999.924511262232 12385.77223325994
1000.8296477539861 12397.590602255756
1001.7345594784656 12359.12240331736
1002.6392465012996 12299.364733270935
1003.5437088880753 12367.255212557255
1004.4479467043584 12256.41661404118
1005.3519600156869 12017.661530571684
1006.2557488875718 12223.908905816645
1007.1593133854858 12189.498653503299
1008.0626535748888 12160.846087876333
1008.9657695212009 12132.19039850932
1009.8686612898182 12297.063925907001
1010.7713289461135 12105.798211936262
1011.6737725554212 12127.65666832752
1012.5759921830577 12137.048191465276
1013.4779878943027 12147.721001856926
1014.379759754418 12130.473531680864
1015.2813078286254 11873.228312515817
1016.18263218213 11873.591987900678
1017.0837328801026 11958.93063489376
1017.9846099876886 12022.257649966848
1018.8852635700023 11921.520779044575
1019.7856936921362 11770.211378598922
1020.6859004191447 11924.959373223477
1021.5858838160675 11778.72346023205
1022.4856439479063 11694.639078049424
1023.3851808796389 11715.370141046795
1024.2844946762143 11854.626960153477
1025.183585402554 11768.305613618923
1026.082453123554 11611.300466562574
1026.9810979040776 11606.641336075405
1027.8795198089647 11571.642024807068
1028.777718903024 11626.522851921673
1029.6756952510368 11534.190127083784
1030.5734489177648 11516.93131085724
1031.4709799679313 11595.964887963488
1032.3682884662358 11705.048887611982
1033.2653744773506 11569.681566291418
1034.1622380659192 11529.347442633765
1035.058879296559 11606.663442414156
1035.9552982338591 11702.90284697106
1036.8514949423825 11696.167631163884
1037.7474694866614 11682.865306945449
1038.6432219312028 11711.121587736443
1039.5387523404825 11898.025227042981
1040.4340607789582 11859.92492242196
1041.3291473110476 11885.66137621897
1042.2240120011465 12031.525227094922
1043.1186549136273 12268.979958802722
1044.0130761128294 12131.10651948306
1044.9072756630649 12248.887210693654
1045.8012536286205 12344.863862222457
1046.6950100737577 12300.607957969032
1047.588545062701 12552.13534185191
1048.481858659663 12388.589332695788
1049.3749509288118 12610.62579657017
1050.2678219343034 12432.326623882838
1051.1604717402515 12470.356713966397
1052.0529004107575 12383.63582330828
1052.9451080098825 12561.281949404276
1053.8370946016694 12480.892773314841
1054.7288602501267 12542.331558051017
1055.6204050192446 12399.257742262806
1056.511728972977 12519.247834146958
1057.402832175254 12460.867858710048
1058.2937146899785 12213.66824383407
1059.1843765810263 12220.49853862472
1060.0748179122456 12322.920533798353
1060.9650387474576 12255.142740881289
1061.855039150456 12238.08166113745
1062.7448191850071 12108.334133608612
1063.6343789148505 12120.246333879788
1064.5237184037014 12172.502668600131
1065.412837715241 12004.049749674437
1066.3017369131267 11930.801025854582
1067.190416060992 11954.768895886618
1068.0788752224398 11809.466912685293
1068.9671144610438 11831.404412521992
1069.8551338403558 11875.641951129226
1070.7429334239023 11966.943572976164
1071.6305132751695 11725.532366169213
1072.517873457633 11847.362225725843
1073.4050140347335 11789.834814754071
1074.2919350698776 11711.93472373369
1075.1786366264623 11648.455840124449
1076.0651187678395 11687.520739349373
1076.95138155735 11526.682173000681
1077.8374250582929 11556.571079188789
1078.7232493339507 11640.886215153678
1079.608854447577 11567.147481444545
1080.4942404623907 11586.083129582536
1081.3794074415982 11687.039605174645
1082.2643554483657 11562.981188448957
1083.149084545841 11545.341902678058
1084.033594797138 11382.915067099226
1084.9178862653516 11463.255455527496
1085.8019590135427 11580.085964728492
1086.6858131047484 11429.434684436517
1087.5694486019802 11419.910133755151
1088.4528655682225 11335.22315471282
1089.3360640664287 11433.513736860894
1090.2190441595321 11364.386811094262
1091.1018059104317 11476.99940662776
1091.98434938201 11383.924128216398
1092.866674637111 11397.425353936209
1093.748781738559 11449.669053156527
1094.6306707491512 11287.890752513948
1095.5123417316554 11297.561004844627
1096.3937947488157 11298.418241285184
1097.2750298633455 11270.434278640198
1098.156047137938 11239.673393471483
1099.0368466352556 11335.561481355613
1099.9174284179317 11281.316532320416
1100.7977925485757 11193.71839935135
1101.6779390897755 11061.662125025856
1102.5578681040806 11196.244888344565
1103.4375796540226 11187.285187586811
1104.3170738021054 11239.525899946084
1105.1963506108077 11017.518536748696
1106.0754101425773 11197.618085578131
1106.9542524598382 11158.809818544256
1107.8328776249855 11190.310346615213
1108.7112857003904 11118.820509494322
1109.5894767483987 11086.524528124739
1110.4674508313292 11361.972358501076
1111.3452080114657 11309.193062150644
1112.2227483510815 11292.41025872056
1113.1000719124077 11434.378512270687
1113.9771787576592 11599.233179729712
1114.854068949022 11511.030844977162
1115.7307425486542 11548.284719718384
1116.6071996186893 11708.558658975022
1117.483440221229 12012.915982159444
1118.3594644183577 11766.005276535552
1119.235272272128 11952.053596108797
1120.1108638445658 12018.45638480024
1120.9862391976712 12252.286058838257
1121.8613983934229 12310.329897212081
1122.7363414937627 12341.880877305344
1123.6110685606182 12546.503167972014
1124.485579655884 12652.47745304999
1125.359874841426 12589.537626919626
1126.2339541790916 12572.6486081401
1127.1078177306936 13039.644451941724
1127.9814655580267 12734.815708116541
1128.854897722851 12908.916244472111
1129.7281142869106 12847.606818392262
1130.6011153119125 12973.582254781773
1131.473900859548 12994.335698560051
1132.3464709914697 12817.418027839887
1133.2188257693178 12730.632335515855
1134.0909652546961 12703.340345109002
1134.96288950919 12786.51409733426
1135.8345985943506 12778.984456115488
1136.7060925717087 12484.578944718703
1137.57737150277 12608.993026975706
1138.4484354490069 12440.563457785185
1139.3192844718778 12375.596221818374
1140.1899186327992 12091.526285842327
1141.060337993178 12240.19332699553
1141.930542614382 12116.898509231078
1142.8005325577597 12040.546679443745
1143.670307884635 11671.675092271502
1144.5398686563003 11858.948414218328
1145.409214934025 11526.32811152028
1146.2783467790541 11398.753183810066
1147.1472642526023 11421.247542279589
1148.0159674158622 11436.045439680765
1148.8844563300026 11309.607513087822
1149.7527310561618 11079.089879407227
1150.6207916554504 10983.26987487719
1151.4886381889592 11104.638948134805
1152.3562707177498 10969.48479258721
1153.2236893028585 10972.978295863588
1154.090894005296 10867.678841387784
1154.9578848860474 10947.360250587662
1155.8246620060709 10833.54912892436
1156.6912254262988 10677.417864253552
1157.5575752076438 10676.331801057819
1158.42371141098 10770.307109563517
1159.2896340971656 10787.199361960404
1160.1553433270346 10705.33990488802
1161.0208391613887 10657.154398370252
1161.8861216610057 10717.922508343303
1162.75119088664 10723.101878739008
1163.6160468990201 10566.152870628652
1164.4806897588442 10523.252061001194
1165.3451195267917 10706.301828019492
1166.2093362635114 10703.972241793132
1167.0733400296285 10622.737596337676
1167.9371308857444 10532.134808999053
1168.8007088924278 10596.561500392028
1169.6640741102328 10612.83754220608
1170.5272265996773 10417.642698306521
1171.390166421259 10351.799816573806
1172.252893635452 10585.30300509563
1173.1154083026995 10624.224890298794
1173.977710483421 10629.908245609531
1174.8398002380145 10483.64598586682
1175.7016776268483 10653.643631275238
1176.563342710264 10584.643110110843
1177.4247955485826 10418.30560147866
1178.2860362020947 10503.813153367397
1179.147064731069 10471.951427064712
1180.0078811957483 10523.501282327765
1180.8684856563486 10551.151249758961
1181.7288781730604 10470.388557644237
1182.589058806052 10591.556195294766
1183.4490276154593 10784.002814773321
1184.3087846614017 10603.40115169784
1185.1683300039676 10724.227278961709
1186.027663703222 10887.307385224283
1186.8867858192025 10732.570751611029
1187.7456964119228 10803.407944848983
1188.6043955413716 10922.951687575776
1189.4628832675116 10973.900779502826
1190.3211596502842 11065.500870238577
1191.179224749596 11124.931273903578
1192.0370786253388 10935.947465350811
1192.8947213373758 11180.925526499905
1193.7521529455407 11170.961175253997
1194.6093735096438 10970.625091019378
1195.466383089477 11103.785187141752
1196.3231817447977 11142.791155368974
1197.1797695353398 11323.537704913935
1198.0361465208189 11087.728054495276
1198.8923127609214 11139.374779450223
1199.7482683153048 11149.291433152599
1200.6040132436028 11245.604178100231
1201.459547605431 11087.650463350088
1202.3148714603722 11017.136263138404
1203.1699848679855 11042.282610560946
1204.0248878878065 11106.994316697088
1204.8795805793507 10950.49872638608
1205.7340630020935 10979.688270278453
1206.5883352155033 11013.769762559625
1207.4423972790064 11009.46912775216
1208.2962492520237 10857.838874514864
1209.1498911939307 10890.828622407507
1210.0033231640937 10930.044604427612
1210.8565452218427 10853.020016360299
1211.7095574264913 10758.786965626347
1212.5623598373222 10750.76767636233
1213.4149525135963 10663.393971071648
1214.2673355145507 10692.54060258556
1215.1195088993936 10578.000441793965
1215.9714727273113 10500.675995850439
1216.8232270574663 10670.431531964863
1217.6747719489904 10531.495310911701
1218.5261074609934 10482.120716407522
1219.3772336525653 10517.111286611349
1220.2281505827668 10638.035440266936
1221.0788583106296 10601.109181247302
1221.9293568951707 10428.518699970973
1222.7796463953746 10336.192270578922
1223.629726870202 10508.64807640036
1224.4795983785934 10433.673441918902
1225.3292609794553 10389.969415095544
1226.1787147316809 10333.276417296289
1227.0279596941327 10358.843242084495
1227.8769959256424 10493.287882772542
1228.7258234850306 10392.427613930256
1229.5744424310833 10220.066825964688
1230.422852822563 10468.738445777763
1231.2710547182105 10333.993229602485
1232.119048176739 10294.386260400679
1232.9668332568417 10198.734254129875
1233.8144100171812 10365.996758172354
1234.6617785163999 10351.351968497764
1235.508938813111 10135.776961827649
1236.3558909659114 10210.495294034854
1237.2026350333617 10365.88246239477
1238.049171074008 10346.677087405911
1238.8954991463652 10161.99587835154
1239.741619308932 10082.665710693644
1240.587531620169 10389.992611652666
1241.4332361385277 10327.896939444274
1242.2787329224248 10107.132443294013
1243.1240220302534 10147.599593395867
1243.9691035203869 10045.545620344903
1244.813977451171 10192.669767606894
1245.6586438809263 10216.330064465044
1246.5031028679496 10046.00384320091
1247.3473544705157 10193.625176243391
1248.1913987468706 10152.19342123587
1249.0352357552383 10037.706911737827
1249.8788655538228 10034.070784016752
1250.7222882007918 10145.109875547543
1251.565503754302 10154.474889807992
1252.4085122724755 10098.323922173515
1253.2513138134182 10179.550191441725
1254.0939084352049 10139.398525149594
1254.9362961958905 10132.73290011972
1255.7784771535007 10007.935726619577
1256.6204513660432 10067.269747830604
1257.4622188915 10218.94146137918
1258.3037797878242 10087.82475960383
1259.1451341129468 10023.117731255259
1259.9862819247755 10089.201776094775
1260.8272232811978 10078.107656788385
1261.6679582400666 10223.090244194307
1262.5084868592203 9903.83299291185
1263.34880919647 9943.053319095545
1264.1889253095997 9907.213217942368
1265.0288352563712 10025.137744350051
1265.8685390945266 9810.483600441952
1266.7080368817751 9934.821819573337
1267.5473286758115 9996.744919870918
1268.386414534294 9998.968354946244
1269.2252945148703 9693.566550353233
1270.0639686751547 9868.645049101488
1270.9024370727402 9799.319034664957
1271.7406997651997 9823.166275406466
1272.5787568100714 9759.985096779186
1273.4166082648808 9727.466773917622
1274.2542541871244 9799.133280466096
1275.091694634275 9939.968596536346
1275.9289296637817 9721.186083970251
1276.7659593330663 9738.817459939717
1277.6027836995308 9771.330680853122
1278.4394028205552 9802.417344766425
1279.2758167534867 9693.677738118327
1280.112025555658 9780.370599860331
1280.9480292843746 9852.523753218444
1281.7838279969128 9695.934161958416
1282.6194217505326 9726.706115825533
1283.4548106024686 9631.497077407514
1284.289994609926 9704.696433541654
1285.1249738300921 9769.856784653095
1285.959748320127 9612.275305801124
1286.7943181371702 9650.435251560244
1287.6286833383328 9682.94028267259
1288.4628439807038 9619.150554954183
1289.2968001213521 9523.375074759399
1290.1305518173194 9694.099710957209
1290.9640991256183 9747.689632761296
1291.7974421032523 9579.628611303207
1292.630580807183 9572.912534611696
1293.463515294361 9630.553095173489
1294.29624562171 9767.063724839107
1295.12877184613 9604.937739411003
1295.961094024493 9630.072928263928
1296.79321221365 9621.633144825948
1297.6251264704333 9791.216961262817
1298.4568368516466 10017.524013864526
1299.2883434140658 9817.203450154702
1300.1196462144526 9638.857153701194
1300.9507453095375 9862.824942129624
1301.7816407560313 9881.588661958227
1302.6123326106172 9964.100428069749
1303.4428209299622 9788.437547151729
1304.2731057707024 10009.057963107447
1305.1031871894502 9757.2154194921
1305.933065242798 9844.262932251208
1306.7627399873181 9966.291608591346
1307.5922114795467 10212.902155404923
1308.4214797760123 10050.267443313283
1309.2505449332057 9933.672215849858
1310.0794070076026 10002.159333462896
1310.9080660556538 10140.736886406336
1311.736522133786 10034.654440749186
1312.5647752983987 9926.136132418029
1313.3928256058734 9881.134166455808
1314.2206731125661 9996.012126434229
1315.048317874809 10023.850282766347
1315.8757599489109 9891.974379834795
1316.7029993911547 10154.400421776449
1317.5300362578055 10239.093972588767
1318.356870605101 9912.815045779735
1319.183502489257 9990.151624894246
1320.0099319664623 10070.332042403834
1320.836159092889 10022.817373247382
1321.66218392468 10094.613561124777
1322.4880065179532 10033.961617805111
1323.3136269288134 10006.982816243815
1324.1390452133292 10211.913694244871
1324.9642614275563 10159.980454200446
1325.7892756275214 10055.502345176596
1326.6140878692295 9958.338390788118
1327.4386982086617 10359.56218105149
1328.2631067017755 10116.839550696368
1329.0873134045069 10140.955197205094
1329.911318372764 9881.288732444482
1330.735121662441 9982.488554360036
1331.558723329399 9888.28963231055
1332.3821234294774 9944.728418542392
1333.2053220185007 9733.399958335895
1334.0283191522612 9904.89229809177
1334.851114886529 9787.135668535077
1335.6737092770582 9716.101211319361
1336.4961023795695 9760.294307291977
1337.3182942497697 9658.783603387425
1338.1402849433325 9746.777659165115
1338.962074515921 9477.27309920366
1339.7836630231632 9396.727527313178
1340.6050505206676 9817.548109220787
1341.426237064028 9744.6261867968
1342.2472227088037 9824.52767540934
1343.0680075105338 9307.468629699597
1343.888591524741 9404.209607917404
1344.7089748069138 9585.469623927402
1345.5291574125276 9449.356832861693
1346.3491393970307 9283.451217845188
1347.168920815846 9384.521086475568
1347.9885017243778 9482.551783332592
1348.8078821780036 9210.561055654925
1349.6270622320844 9201.734604827465
1350.4460419419447 9279.705829573595
1351.2648213629054 9364.469949368038
1352.0834005502438 9164.729618095564
1352.90177955923 9095.197653405316
1353.7199584451064 9524.229545594206
1354.5379372630887 9216.481311115433
1355.355716068374 9136.483924613607
1356.1732949161305 9085.971264683825
1356.9906738615155 9204.835142128059
1357.8078529596478 9202.092747381259
1358.6248322656375 9197.029902664382
1359.441611834567 9090.329284119298
1360.2581917214866 9345.81229072808
1361.0745719814367 8941.481113469732
1361.890752669433 9030.935124899279
1362.7067338404577 9017.07862486351
1363.5225155494845 9095.33241806986
1364.3380978514506 9275.400567397279
1365.1534808012839 8989.188988542264
1365.9686644538815 8882.66850519578
1366.783648864117 9179.301292393593
1367.5984340868417 9114.675326399803
1368.413020176893 9025.791203277415
1369.2274071890715 8812.216690564965
1370.0415951781652 9125.482828096367
1370.8555841989346 8885.402194844055
1371.6693743061223 8827.623870786721
1372.48296555444 8841.852963318463
1373.2963579985844 9079.566026632006
1374.1095516932255 8931.702506828438
1374.9225466930166 8960.119091258048
1375.7353430525782 8878.227192413722
1376.5479408265164 8805.407028644633
1377.36034006941 8890.125140433367
1378.1725408358216 8960.05278173576
1378.9845431802805 8770.781450915905
1379.796347157304 8946.149861025435
1380.6079528213813 8940.249058998585
1381.4193602269788 8662.760184757366
1382.230569428546 8752.036427371737
1383.0415804805016 8934.187941902372
1383.852393437246 8860.568214488547
1384.6630083531563 8813.181455434536
1385.4734252825892 8675.416802034735
1386.2836442798798 8730.3709039846
1387.0936653993322 8755.653486165635
1387.9034886952395 8568.251000234775
1388.713114221864 8853.145879320844
1389.5225420334482 8772.434628106768
1390.331772184214 8668.304408718295
1391.1408047283585 8609.23664268613
1391.9496397200564 8471.212800762343
1392.758277213461 8677.228380321583
1393.5667172627054 8637.640401096989
1394.3749599218918 8538.44829458171
1395.1830052451114 8376.349417067275
1395.9908532864265 8456.13915785864
1396.7985040998774 8613.211290426143
1397.6059577394808 8395.045367638313
1398.4132142592352 8453.251686467778
1399.2202737131156 8356.893864663241
1400.027136155073 8464.963267533712
1400.8338016390353 8364.583139500153
1401.6402702189134 8404.695574483132
1402.446541948586 8401.268332455267
1403.2526168819204 8205.489159866125
1404.058495072757 8141.127978776652
1404.8641765749107 8225.68113524245
1405.6696614421799 8153.360683670822
1406.4749497283356 8335.39861747275
1407.280041487129 8025.600405784049
1408.084936772295 7947.003886934103
1408.8896356375335 8101.956543871051
1409.6941381365323 8082.555195720805
1410.498444322955 7815.6397209384595
1411.3025542504402 7883.756180551286
1412.106467972606 7906.654239573627
1412.9101855430508 7964.938987996051
1413.7137070153458 7719.519323118773
1414.5170324430437 7698.109336204876
1415.320161879672 7866.004970103873
1416.1230953787435 7891.2148013705255
1416.925832993742 7629.79334900908
1417.7283747781275 7463.66413583559
1418.5307207853439 7719.331208913818
1419.3328710688093 7642.8604149999055
1420.134825681922 7447.889689103994
1420.9365846780584 7461.801459697049
1421.7381481105713 7651.433243459278
1422.539516032788 7541.503427708378
1423.3406884980232 7233.265807300251
1424.1416655595604 7404.860835077238
1424.942447270665 7327.896458740793
1425.7430336845828 7371.742256512136
1426.5434248545298 7270.369908303046
1427.3436208337116 7330.711711826667
1428.143621675301 7377.060333694359
1428.9434274324558 7536.57643902864
1429.7430381583108 7253.4589662094
1430.5424539059713 7298.722586408269
1431.3416747285337 7668.392621206558
1432.1407006790632 7408.906433695364
1432.9395318106053 7381.426903123906
1433.7381681761835 7269.256692786657
1434.5366098288014 7279.113725132738
1435.3348568214424 7361.055504835314
1436.1329092070573 7191.869736742771
1436.9307670385879 7259.913660783908
1437.7284303689503 7550.1104097572315
1438.5258992510335 7517.150964364568
1439.3231737377118 7262.991387743385
1440.1202538818306 7318.26484372387
1440.9171397362225 7293.189984434861
1441.7138313536925 7292.217387273953
1442.5103287870243 7146.584050573916
1443.3066320889775 7139.89799824011
1444.1027413122956 7278.2175956508045
1444.8986565096966 7185.515476620332
1445.694377733882 7148.991175949821
1446.4899050375207 7038.0868051463285
1447.2852384732687 7036.169877100864
1448.0803780937622 7276.227407461668
1448.8753239516063 6924.352525948345
1449.6700760993954 6949.538452180814
1450.464634589689 7062.050669993939
1451.2589994750397 7159.593482647198
1452.0531708079689 6897.388860132918
1452.8471486409799 6847.606442038011
1453.6409330265524 7112.3434374560675
1454.4345240171442 6948.081538199668
1455.2279216651987 6895.151734907164
1456.0211260231263 7005.351654686431
1456.8141371433194 6972.772103442107
1457.6069550781594 6987.743999173847
1458.3995798799897 6821.329225838808
1459.1920116011424 6907.161424883991
1459.98425029393 6890.321438206525
1460.7762960106338 6768.176097585648
1461.5681488035225 6957.487425074968
1462.3598087248392 6800.592658460987
1463.1512758268036 6957.864885331217
1463.942550161617 6851.229454899478
1464.7336317814625 6740.327980570635
1465.524520738496 6788.020613723657
1466.3152170848552 6742.347745162324
1467.1057208726506 6879.496539692652
1467.8960321539817 6684.564058227979
1468.6861509809169 6564.628236796665
1469.4760774055085 6697.154793877363
1470.265811479785 6863.434435515315
1471.055353255755 6674.420892445402
1471.844702785409 6633.973161037723
1472.6338601207044 6660.9375252297705
1473.4228253135934 7226.24307061962
1474.2115984159936 6757.40688622194
1475.0001794798063 6369.581826378888
1475.7885685569145 6795.902287778685
1476.576765699172 6650.148035653595
1477.3647709584238 6694.469589378014
1478.1525843864802 6748.776433063872
1478.9402060351367 6749.830972204567
1479.7276359561693 6747.549865950682
1480.514874201328 6541.253759352039
1481.3019208223468 6543.464823227252
1482.0887758709323 6444.4722885626015
1482.8754393987747 6662.149772396432
1483.6619114575406 6343.6973656051105
1484.4481920988783 6576.553652301174
1485.2342813744108 6750.059606201028
1486.0201793357446 6605.259998059761
1486.8058860344572 6539.327116965713
1487.591401522117 6468.745878679549
1488.3767258502594 6514.536945534329
1489.1618590704056 6440.491118146645
1489.9468012340494 6428.20054320647
1490.7315523926754 6586.521596560745
1491.5161125977356 6665.221766294029
1492.3004819006637 6534.2784066045715
1493.084660352877 6452.482620036499
1493.8686480057622 6517.146946175005
1494.6524449106964 6708.869775763834
1495.4360511190262 6820.7790040432865
1496.219466682087 6451.449407043991
1497.0026916511779 6556.154885068883
1497.7857260775945 6447.518259633512
1498.5685700125996 6618.130346451873
1499.3512235074395 6452.543998304485
1500.133686613337 6411.995320256157
1500.9159593814966 6424.261414582894
1501.698041863101 6771.964100110979
1502.4799341093094 6395.505661768993
1503.2616361712662 6302.299143454751
1504.043148100087 6571.17896775051
1504.8244699468742 6498.0104716096685
1505.6056017626997 6429.941889008366
1506.3865435986281 6275.316914741106
1507.1672955056893 6518.235873418395
1507.9478575348967 6369.855748967433
1508.7282297372512 6495.634303439533
1509.5084121637192 6364.863844174953
1510.2884048652577 6447.907689619141
1511.0682078927948 6335.258510957483
1511.8478212972423 6376.464721864714
1512.6272451294917 6314.381078011666
1513.4064794404076 6441.081070621913
1514.1855242808433 6376.533677994455
1514.9643797016215 6355.361293153284
1515.743045753552 6432.010033549936
1516.5215224874191 6474.776613924997
1517.2998099539836 6167.247030735708
1518.077908203999 6339.189586357234
1518.8558172881785 6336.905128701796
1519.633537257234 6500.3312684845605
1520.4110681618404 6355.556814016623
1521.1884100526604 6447.800709613972
1521.9655629803365 6393.0049839274125
1522.7425269954856 6453.740016908899
1523.5193021487103 6654.684062823619
1524.2958884905856 6286.040247958006
1525.0722860716687 6302.35916143788
1525.848494942502 6375.658648349827
1526.624515153595 6359.9168898241505
1527.4003467554485 6428.880026068101
1528.175989798534 6445.634205211847
1528.9514443333064 6389.136372594645
1529.726710410203 6609.542366889637
1530.5017880796331 6340.388881793314
1531.276677391992 6305.025473652067
1532.0513783976457 6500.8287913760305
1532.825891146953 6408.446459784823
1533.6002156902414 6586.954701859495
1534.3743520778207 6439.31740112291
1535.1483003599806 6449.830032775937
1535.9220605869923 6388.753609696748
1536.6956328091019 6440.555413062717
1537.4690170765407 6505.818016499521
1538.242213439511 6531.265836263194
1539.015221948208 6508.6499598016
1539.78804265279 6242.095513521272
1540.560675603405 6390.904755664051
1541.3331208501804 6591.362833995097
1542.1053784432224 6654.81481032925
1542.8774484326168 6554.163939243476
1543.649330868422 6521.685181289069
1544.4210258006842 6429.199100567499
1545.1925332794308 6529.623468898696
1545.9638533546604 6358.220891460339
1546.7349860763552 6330.800065578657
1547.5059314944829 6603.514867968773
1548.27668965898 6411.785347914315
1549.0472606197673 6592.8623514123265
1549.817644426752 6368.351172665046
1550.5878411298072 6520.805098219644
1551.3578507787988 6486.049265421558
1552.1276734235635 6487.655032434761
1552.8973091139233 6545.297210284016
1553.6667578996767 6559.561215940023
1554.436019830604 6585.186125313422
1555.20509495646 6558.293567109031
1555.9739833269869 6343.324031160795
1556.7426849919011 6498.944523404222
1557.511200000903 6902.469851397487
1558.2795284036674 6739.135091949427
1559.0476702498509 6559.472642718368
1559.8156255890954 6658.009228438395
1560.5833944710157 6752.4542939538715
1561.3509769452048 6620.100935602988
1562.1183730612447 6542.152846454998
1562.8855828686865 6610.984463682667
1563.6526064170703 6791.26602676474
1564.4194437559127 6577.7224526924665
1565.1860949347047 6393.29315776726
1565.9525600029283 6690.175783080298
1566.7188390100328 6623.636265013649
1567.4849320054564 6570.091019080665
1568.250839038612 6469.258383914422
1569.0165601588997 6486.473271713817
1569.7820954156887 6580.964943629284
1570.5474448583373 6408.671233165169
1571.31260853618 6413.305182739495
1572.0775864985299 6401.799242611591
1572.8423787946813 6553.230990247671
1573.6069854739108 6376.009238742587
1574.371406585471 6409.185487308736
1575.1356421785986 6449.502513024143
1575.899692302506 6462.181393250535
1576.6635570063845 6410.259025264112
1577.4272363394157 6334.815355899113
1578.190730350747 6432.70831508206
1578.9540390895163 6297.175428709444
1579.7171626048384 6132.457473785121
1580.480100945806 6206.400228946369
1581.2428541614918 6206.15783833089
1582.0054223009538 6262.481822768586
1582.767805413223 6365.110140249637
1583.5300035473156 6316.898798009841
1584.292016752228 6307.969799463998
1585.0538450769309 6251.586967515502
1585.8154885703807 6235.603643786267
1586.5769472815136 6110.212747285097
1587.3382212592405 6294.143026520001
1588.099310552463 6354.484375637056
1588.8602152100484 6110.511976594647
1589.6209352808564 6323.972851117612
1590.3814708137234 6294.636646421487
1591.14182185746 6208.039590523811
1591.9019884608679 6420.008743374278
1592.6619706727215 6036.341353681475
1593.4217685417734 6187.749078389172
1594.1813821167616 6447.3868184115045
1594.9408114464022 6037.750982576961
1595.7000565793933 6214.367041483763
1596.459117564409 6394.514950471488
1597.2179944501113 6181.082187577703
1597.9766872851324 6208.9419239414165
1598.735196118092 6248.353630355079
1599.4935209975883 6285.513985448666
1600.2516619721973 6354.903128147441
1601.0096190904787 6209.105531719639
1601.7673924009723 6247.7664917641205
1602.524981952196 6164.191297373313
1603.2823877926476 6023.739111251619
1604.0396099708087 6180.930255782607
1604.7966485351371 6145.514243272489
1605.5535035340745 6085.07776737966
1606.3101750160404 6305.113723977936
1607.0666630294363 6010.033928640333
1607.822967622642 5926.795883589546
1608.5790888440224 6180.03582602417
1609.3350267419137 6228.709300738659
1610.0907813646445 5988.1383238087
1610.8463527605145 6121.684806956403
1611.601740977805 6135.897863953917
1612.356946064785 6067.5702124980635
1613.1119680696902 5728.5911807424145
1613.8668070407512 5804.834288233546
1614.6214630261748 5950.255939758916
1615.375936074137 5920.816152148094
1616.1302262328118 6042.17977390558
1616.8843335503425 5891.742086480744
1617.638258074854 5820.19416038439
1618.391999854457 5809.549461023174
1619.1455589372363 5923.1695918999885
1619.8989353712623 5934.395369585141
1620.65212920458 5605.568459384791
1621.4051404852235 5751.764114893836
1622.1579692611976 5688.419957083632
1622.9106155804966 5665.481572552414
1623.663079491087 5675.454116612201
1624.4153610409248 5695.232130921863
1625.1674602779385 5861.9412159975045
1625.9193772500403 5554.223313277422
1626.6711120051277 5794.075543565486
1627.4226645910676 5597.568652250917
1628.174035055721 5379.758028359844
1628.9252234469168 5555.699799034225
1629.676229812474 5549.078946982225
1630.4270542001905 5966.5624148675815
1631.1776966578382 5538.0043149999765
1631.9281572331747 5417.740968769096
1632.678435973945 5600.9059889141945
1633.4285329278573 5647.15370530742
1634.1784481426203 5479.142069940639
1634.9281816659113 5604.551658724271
1635.677733545388 5661.230830322107
1636.4271038286934 5482.559933912178
1637.176292563452 5709.391162168565
1637.9252997972635 5613.564793049978
1638.674125577716 5782.660070025904
1639.4227699523672 5940.829823512438
1640.171232968767 5410.094019554674
1640.9195146744423 5689.379431734056
1641.6676151168977 5547.445988247682
1642.4155343436178 5767.907232913018
1643.1632724020765 5525.886048550265
1643.9108293397167 5671.910925308545
1644.658205203974 5502.617258976852
1645.4054000422566 6066.7333442566
1646.1524139019566 5617.733405452758
1646.8992468304423 5562.003960766577
1647.6458988750728 5548.242911327347
1648.3923700831765 5662.331805886875
1649.1386605020743 5514.326687255661
1649.8847701790564 5775.802176036572
1650.6306991614038 5660.48836830226
1651.3764474963682 5773.250538769908
1652.1220152311944 5472.420173444014
1652.867402413096 5573.543613957167
1653.6126090892776 5487.0309762940105
1654.3576353069184 5825.591044281787
1655.1024811131829 5551.035424223271
1655.8471465552066 5603.930286713763
1656.5916316801213 5844.61976006478
1657.3359365350298 5660.048852096215
1658.0800611670165 5493.621543867872
1658.824005623148 5525.038335020969
1659.5677699504722 5308.983032443483
1660.3113541960192 5458.463204584538
1661.054758406799 5480.605055912621
1661.7979826297997 5353.659282976626
1662.5410269119966 5200.846128742448
1663.283891300338 5610.452769100845
1664.0265758417645 5315.899924931334
1664.7690805831826 5246.380419805068
1665.5114055714948 5498.136082218727
1666.2535508535748 5568.111786236517
1666.9955164762814 5165.93552934961
1667.7373024864555 5189.50619185762
1668.478908930916 5268.755949062047
1669.220335856462 5105.5728817577055
1669.9615833098778 5079.066718342641
1670.7026513379296 5003.341455706933
1671.44353998736 5143.1546925683015
1672.1842493048916 5083.992172281779
1672.9247793372379 4993.025533060276
1673.6651301310812 5067.820797836543
1674.4053017330934 4878.3774659345045
1675.1452941899242 5046.174323736415
1675.885107548207 4685.182641779394
1676.6247418545518 4783.830986597136
1677.3641971555535 4835.217218465951
1678.1034734977893 4907.910165414579
1678.8425709278108 4713.259812663735
1679.5814894921605 4874.361166329332
1680.320229237359 4609.674490418631
1681.0587902098978 4874.724972123092
1681.7971724562685 4696.406592445625
1682.5353760229264 4636.639388672984
1683.2734009563173 4587.5886458690875
1684.0112473028657 4469.949455299657
1684.7489151089794 4631.613115101836
1685.4864044210462 4652.03232393947
1686.2237152854377 4436.32126160259
1686.960847748498 4636.4872648545725
1687.6978018565642 4320.280622683904
1688.434577655944 4397.950669378959
1689.1711751929379 4412.090777172102
1689.9075945138156 4458.27311562377
1690.6438356648396 4396.979033418544
1691.3798986922448 4009.6377517255473
1692.1157836422499 4188.473520388706
1692.851490561059 4247.848407128907
1693.587019494853 4215.12241740458
1694.3223704897991 4090.1284755963147
1695.0575435920364 3879.3197324622042
1695.792538847696 4396.854407103997
1696.527356302886 4092.142223516997
1697.2619960036936 3957.395235680908
1697.9964579961907 3997.3493387580143
1698.730742326432 3630.629703900362
1699.4648490404488 3683.8017754232196
1700.1987781842563 3882.8662554852986
1700.9325298038548 4082.9732528582645
1701.6661039452174 4101.533563175059
1702.3995006543082 3787.119103026359
1703.1327199770658 3928.4245995341844
1703.865761959416 3837.92498863203
1704.598626647261 3975.445606014136
1705.3313140864866 3660.7876752821103
1706.0638243229587 3831.8821171755276
1706.7961574025303 3944.3640324803478
1707.528313371029 3889.503335590295
1708.260292274268 3552.2915608400194
1708.9920941580403 3717.613993119824
1709.7237190681226 3791.199205728821
1710.4551670502697 3694.4111973444174
1711.18643815022 3391.4742879967075
1711.9175324136959 3883.096455335907
1712.6484498863938 3667.4131814288457
1713.379190614005 3398.2549348255206
1714.109754642188 3692.3879987350324
1714.8401420165883 3595.0062800951578
1715.570352782839 3577.2651461719934
1716.3003869865497 3578.243820578584
1717.0302446733076 3445.21019229909
1717.7599258886876 3497.5330973428127
1718.4894306782444 3717.027485103562
1719.2187590875183 3534.273568224675
1719.9479111620203 3653.8910351547574
1720.6768869472544 3556.7428668575276
1721.4056864887025 3702.057667822476
1722.1343098318284 3696.2682163156705
1722.8627570220742 3478.964706597675
1723.591028104871 3366.348090207726
1724.3191231256242 3335.33137766375
1725.0470421297232 3450.6978177169754
1725.7747851625427 3586.3021291877913
1726.5023522694337 3474.837999327067
1727.2297434957363 3549.819736971937
1727.9569588867635 3320.2108930210766
1728.6839984878152 3580.513472866536
1729.4108623441734 3151.6446132958818
1730.1375505011038 3484.340439286558
1730.8640630038426 3319.297420067766
1731.5903998976264 3263.3511222148036
1732.316561227657 3491.605746013013
1733.0425470391274 3335.682717708018
1733.7683573772065 3517.2419247883545
1734.4939922870508 3344.470809644458
1735.2194518137949 3365.147634111305
1735.9447360025606 3411.578063027556
1736.669844898439 3395.349454347066
1737.3947785465189 3284.9723570961023
1738.1195369918605 3111.4751392751477
1738.8441202795093 3246.977683803678
1739.5685284544943 3309.7708009950993
1740.292761561821 3320.3983616236815
1741.0168196464838 3429.6763477173236
1741.7407027534518 3330.576834318172
1742.464410927687 3336.425779132443
1743.187944214118 3275.6239922665636
1743.9113026576688 3133.529481980686
1744.634486303241 3341.0453599906846
1745.3574951957125 3228.4455318091773
1746.0803293799509 3300.5921129059598
1746.8029889008048 3112.646113548989
1747.5254738031017 3436.518014601741
1748.2477841316504 3113.4234156474176
1748.969919931249 3268.0094701079165
1749.6918812466665 3116.584979051927
1750.4136681226646 3447.24666701972
1751.1352806039777 3248.4746534029337
1751.856718735331 3075.767942227866
1752.5779825614281 3200.2938771504096
1753.2990721269507 3235.7825714994196
1754.0199874765676 3313.4254292386563
1754.7407286549314 2976.5612932446925
1755.4612957066693 3184.9400910172335
1756.1816886763954 3093.568720078892
1756.9019076087097 3251.0212589302573
1757.6219525481865 3230.7783638755277
1758.3418235393856 3203.8649824270346
1759.061520626854 3231.4503469239908
1759.7810438551096 3283.9198670113583
1760.5003932686614 3042.3939486210284
1761.2195689119999 3362.1731339599855
1761.938570829594 3100.18552000362
1762.657399065898 3214.14918795892
1763.376053665348 3055.0991683073744
1764.0945346723602 3130.3368292499226
1764.812842131334 3312.913375233193
1765.5309760866512 2966.120485337212
1766.2489365826787 3063.366801391607
1766.9667236637597 3152.2645895714404
1767.684337374223 2827.721703607275
1768.401777758383 2935.7826384351815
1769.1190448605284 2984.838738173412
1769.836138724937 2980.2291119305187
1770.5530593958665 3152.526802260098
1771.2698069175603 3190.2457252545546
1771.9863813342326 3234.349841396629
1772.702782690094 3152.674625997831
1773.4190110293293 3233.9030449712327
1774.1350663961111 3185.857653749815
1774.8509488345844 2962.707940018158
1775.5666583888924 3139.021541038195
1776.2821951031437 3329.8142923464047
1776.9975590214362 2968.273401629329
1777.7127501878585 3160.779623264131
1778.4277686464684 3087.0264894670154
1779.1426144413108 3245.742967820149
1779.8572876164162 3151.4732464637354
1780.571788215797 3047.599841039207
1781.2861162834415 3127.69478665211
1782.0002718633277 3032.673583228379
1782.7142549994132 3028.435203413227
1783.4280657356376 3074.048044641143
1784.141704115922 2934.021426543421
1784.855170184177 2998.609524394998
1785.5684639842839 3090.5725062630677
1786.2815855601148 2774.2337712457775
1786.9945349555237 3084.4828483890087
1787.707312214343 2907.0376413040376
1788.4199173803918 3218.9795374793002
1789.132350497468 2907.9929950346122
1789.8446116093583 2973.407323492641
1790.556700759822 3179.7843822623613
1791.2686179926077 2651.976674575781
1791.9803633514493 2922.166481086683
1792.6919368800554 2918.913731290158
1793.4033386221236 3093.57341231744
1794.1145686213295 3123.0573690403726
1794.8256269213307 3245.0009757691396
1795.536513565774 3088.696040745678
1796.247228598284 2721.3429745920157
1796.9577720624693 2898.9859045652947
1797.6681440019165 2875.669064677565
1798.3783444602013 2996.1364764251875
1799.0883734808776 3093.6643799639946
1799.7982311074884 3176.3699438696617
1800.5079173835475 2840.1224238680593
1801.2174323525633 3116.3167580403906
1801.9267760580187 2888.979028069416
1802.635948543386 3139.6755364148335
1803.3449498521113 2852.2594950130047
1804.0537800276325 2940.082480052136
1804.7624391133668 2943.5517087427834
1805.47092715271 2779.7038439207704
1806.1792441890484 2762.448105236722
1806.8873902657433 3109.429566792169
1807.5953654261448 2930.6434645608706
1808.3031697135812 2835.5521334869527
1809.0108031713662 2915.7323654667566
1809.71826584279 2918.590818302749
1810.425557771141 2883.882897758028
1811.1326789996747 3427.069562989079
1811.839629571632 2993.063292982331
1812.5464095302468 2965.36614115303
1813.2530189187182 3040.124700796556
1813.959457780249 2805.227934671215
1814.6657261580076 3108.6351739672727
1815.371824095153 2886.0808295330203
1816.0777516348262 3036.100062722063
1816.78350882015 2734.0402590490767
1817.4890956942272 2742.9538023174114
1818.1945123001533 3011.4106052988272
1818.8997586809928 2820.4908519162436
1819.6048348798067 2911.7252421517683
1820.3097409396287 2795.941740746667
1821.0144769034796 3127.823885674277
1821.7190428143622 2896.810202238837
1822.423438715261 3088.5178590857536
1823.1276646491478 2985.4408371486397
1823.8317206589727 2991.350500545982
1824.5356067876692 2892.124760806345
1825.2393230781581 2796.1415631692466
1825.942869573335 2649.642027180473
1826.646246316086 2857.8778714539085
1827.3494533492758 2982.974184902811
1828.052490715756 2922.287872598359
1828.7553584583547 2914.647456581846
1829.458056619891 3035.8537260163525
1830.1605852431585 2759.033890973614
1830.8629443709433 2710.375597485413
1831.5651340460063 2885.0901453359247
1832.2671543110919 2983.4128269710304
1832.9690052089318 2862.727461941119
1833.6706867822395 2712.581058089161
1834.3721990737104 3130.869762511611
1835.0735421260233 3009.2562253479687
1835.774715981841 3003.8546588994386
1836.4757206838058 3195.6473822197227
1837.1765562745459 2596.38090479135
1837.8772227966747 2738.7683056373294
1838.5777202927839 2988.968330673907
1839.2780488054523 2940.478397775808
1839.9782083772352 2804.0277401053386
1840.6781990506806 3027.346632148202
1841.378020868313 2860.93105941327
1842.0776738726418 2805.1013537609592
1842.777158106157 2854.2656138062594
1843.4764736113375 2639.4582480832955
1844.1756204306403 2955.2465444707236
1844.8745986065078 2984.342323913337
1845.5734081813607 2787.893167780735
1846.2720491976124 2759.329005637512
1846.970521697649 2743.01447865847
1847.6688257238511 2775.50503525939
1848.3669613185684 2856.917908739288
1849.0649285241452 2687.85296027419
1849.7627273829057 2849.5188768894714
1850.460357937156 2953.5438480779912
1851.1578202291857 2556.625176428293
1851.8551143012664 2896.755591723992
1852.5522401956569 2864.548069820768
1853.2491979545957 3070.5875597491877
1853.9459876203055 2731.2468039510486
1854.6426092349902 2600.6360826509376
1855.3390628408451 2706.4718998796866
1856.0353484800362 2896.388836504801
1856.7314661947203 2746.591451347315
1857.4274160270397 2556.0412153828356
1858.123198019115 2718.908319302474
1858.8188122130487 2776.450747276459
1859.5142586509319 2822.804779194498
1860.209537374838 2831.072036344748
1860.9046484268183 2706.6000003877793
1861.599591848917 3069.7781992017217
1862.294367683151 2719.352440760099
1862.988975971528 2655.2571107551275
1863.6834167560355 2792.878342303721
1864.3776900786452 2908.9074352095868
1865.0717959813119 2710.5816688294335
1865.7657345059724 2698.585751371739
1866.4595056945564 2830.6035862147514
1867.1531095889586 2903.5427353092514
1867.846546231076 2702.293396757011
1868.5398156627743 3078.061366046787
1869.2329179259123 2713.042703700822
1869.9258530623283 2870.4594710568726
1870.618621113843 2761.508116424571
1871.3112221222636 2747.951658173465
1872.0036561293764 2788.7413941807563
1872.695923176956 2859.414003966706
1873.3880233067594 2930.1646478833454
1874.0799565605212 2644.5208261664407
1874.7717229799673 2839.48455796548
1875.4633226068036 2872.582243095264
1876.1547554827175 2872.258348599535
1876.8460216493859 2679.4369402125076
1877.5371211484617 2744.3708116003504
1878.2280540215852 2957.1025618115555
1878.9188203103804 2593.852686741341
1879.6094200564548 2834.194205668868
1880.299853301396 2667.037011200705
1880.9901200867826 2792.387614340028
1881.6802204541673 2671.939649667002
1882.3701544450942 2910.2555692833494
1883.059922101087 2662.471817120769
1883.7495234636517 2956.202234744874
1884.4389585742792 2764.997590504364
1885.1282274744517 2640.3250472797426
1885.8173302056166 2735.258646817136
1886.506266809225 2830.3232436161575
1887.195037326701 2586.717344395072
1887.8836417994517 2768.108541846511
1888.5720802688702 2997.20932089132
1889.260352776333 2770.383077409121
1889.9484593632042 2862.958390490414
1890.63640007082 2721.84042177788
1891.3241749405151 2668.4413375788945
1892.0117840135954 2800.8045668450027
1892.6992273313572 2677.3664443571315
1893.3865049350788 2624.735706143967
1894.0736168660223 2962.5038837321454
1894.7605631654333 2712.6379944476294
1895.4473438745408 2665.941891640642
1896.133959034556 2961.730486481881
1896.820408686679 2717.2357577707726
1897.506692872088 2964.4398430346
1898.192811631945 2829.7238221911093
1898.8787650073991 2765.3912875301216
1899.5645530395832 2936.247523420113
1900.2501757696118 2925.5510768684626
1900.9356332385796 2648.739004047502
1901.620925487574 2875.7417183349053
1902.3060525576602 2822.98584339011
1902.9910144898859 2906.566634153577
1903.6758113252872 2568.624390555836
1904.3604431048789 2773.4447384196405
1905.0449098696663 2730.030042928536
1905.7292116606295 2847.0811510502504
1906.4133485187394 2873.9735534347114
1907.0973204849488 2478.5212519927
1907.7811276001976 2785.9202660624405
1908.4647699053967 2771.400739957017
1909.1482474414588 2534.8189167582373
1909.8315602492694 2619.833332006602
1910.5147083696957 2812.3449836854606
1911.1976918436012 2787.118198023117
1911.880510711815 2588.7114075430864
1912.5631650151681 2688.2601605024365
1913.2456547944657 2769.4500734710346
1913.927980090495 2704.0862105061874
1914.6101409440362 2697.6955298657003
1915.2921373958416 2715.333337030611
1915.9739694866603 2553.7462792348197
1916.655637257214 3026.439851528678
1917.3371407482136 2748.280299079687
1918.0184800003572 3001.3717617335537
1918.6996550543154 2702.287417385853
1919.3806659507554 2744.0226960894893
1920.0615127303208 3016.788124346783
1920.7421954336423 2872.7334322832053
1921.4227141013343 2827.8345807892383
1922.103068773993 2673.1326905088067
1922.783259492202 2925.738934853123
1923.4632862965227 2627.718833543074
1924.1431492275078 2620.979420799363
1924.8228483256917 2633.9390364862784
1925.5023836315922 2786.943941981319
1926.1817551857057 2382.134904340139
1926.8609630285227 2960.4169589898866
1927.5400072005123 2725.4681503420857
1928.218887742125 2618.4504814971015
1928.8976046938005 2400.8691813928963
1929.5761580959588 2753.101086364686
1930.2545479890086 2739.2483674590812
1930.9327744133352 2528.1494045030877
1931.6108374093164 2771.0643465128223
1932.2887370173066 2975.9346689161107
1932.9664732776473 2420.1431807300232
1933.6440462306673 2775.0406727891996
1934.3214559166754 2585.2471381876962
1934.9987023759659 2839.668276410382
1935.675785648813 2828.417584630205
1936.3527057754836 2505.1961575375144
1937.029462796223 2943.492577749315
1937.70605675126 2501.982346314501
1938.3824876808085 2683.5737024170444
1939.058755625072 2620.8894554907847
1939.7348606242267 2662.9767633919264
1940.4108027184448 2677.5005213683953
1941.0865819478713 2801.9459142192836
1941.7621983526478 2455.975385082092
1942.4376519728921 2464.520152552079
1943.1129428487038 2586.185395458203
1943.7880710201734 2674.466132582678
1944.4630365273733 2759.018566838304
1945.1378394103576 2396.3577926747157
1945.8124797091714 2365.555971423156
1946.4869574638324 2334.6102674722433
1947.161272714353 2616.5992612181203
1947.8354255007234 2687.573733899243
1948.5094158629272 2768.2952000677483
1949.1832438409183 2800.7703514917866
1949.8569094746435 2830.391148403005
1950.530412804037 2840.674608065182
1951.2037538690092 2899.4670688127917
1951.8769327094578 2672.898189851095
1952.5499493652678 2716.9618430325836
1953.222803876306 2767.7927631280554
1953.895496282421 2648.266171747678
1954.5680266234522 2521.605341424184
1955.2403949392155 2681.1781992086394
1955.9126012695142 2408.8746264657357
1956.5846456541403 2723.633429223176
1957.2565281328643 2509.6056925132043
1957.9282487454457 2744.8350994453076
1958.5998075316202 2796.682602000911
1959.27120453112 2688.2420191083834
1959.9424397836501 2587.5516425477917
1960.613513328908 2871.918954106327
1961.2844252065697 2879.1271861547284
1961.9551754563017 2657.5374760249165
1962.6257641177453 2517.0382850900546
1963.29619123054 2526.624199785735
1963.966456834296 2448.5462349543395
1964.6365609686181 2390.947686371108
1965.306503673086 2786.211157241368
1965.976284987275 2592.603338437756
1966.645904950734 2666.8681171557705
1967.315363603002 2578.373550247597
1967.9846609836077 2738.332575678657
1968.6537971320486 2729.4933707682385
1969.3227720878222 2597.101431151478
1969.9915858904042 2463.5881235870384
1970.660238579252 2641.2757362337006
1971.3287301938108 2680.8725331590977
1971.997060773514 2359.7981385464504
1972.665230357772 2642.279461689007
1973.3332389859843 2421.396149464705
1974.0010866975335 2599.792995912882
1974.6687735317864 2766.7157070464564
1975.3362995280932 2695.653980999082
1976.003664725793 2602.4935649060235
1976.6708691642052 2444.3700374057903
1977.3379128826364 2709.71597411128
1978.004795920373 2786.0502285270204
1978.6715183166925 2996.853388145096
1979.3380801108524 2333.6948946164703
1980.0044813420973 2693.1558804400684
1980.6707220496555 2385.526526693901
1981.3368022727373 2455.1915010331404
1982.0027220505417 2632.125140464982
1982.66848142225 2325.328492968454
1983.3340804270283 2579.9251678663586
1983.999519104027 2717.8345424177123
1984.6647974923835 2906.2297308752377
1985.329915631215 2798.653793271914
1985.99487355963 2621.4024919186777
1986.6596713167146 2908.649959963496
1987.3243089415428 2578.8313715112918
1987.9887864731754 2957.094899949757
1988.6531039506553 2550.9569724549115
1989.3172614130071 2927.79843409781
1989.9812588992481 2759.532506019823
1990.645096448372 2486.818225211438
1991.3087740993633 2604.5056504497697
1991.9722918911848 2590.688480544975
1992.635649862792 2546.4425343519756
1993.2988480531185 2767.1866492389995
1993.9618865010852 2807.530831761265
1994.6247652455968 2432.954801177771
1995.287484325545 2423.3770166891163
1995.9500437798033 2641.2966885961096
1996.6124436472292 2444.306799631174
1997.2746839666706 2612.836076585567
1997.936764776954 2723.462714470325
1998.598686116895 2509.5159611622616
1999.2604480252903 2878.702519016827
1999.9220505409212 2552.320015279201
2000.5834937025593 2309.3733478416902
2001.2447775489582 2515.508836635808
2001.9059021188514 2564.235904573453
2002.5668674509616 2424.147371202666
2003.2276735839987 2716.993199361182
2003.8883205566508 2808.7549309080578
2004.5488084075987 2403.554505126929
2005.2091371755014 2562.3663043711886
2005.8693068990033 2569.4096327791285
2006.5293176167397 2689.534102378001
2007.1891693673224 2335.3957619836665
2007.848862189354 2267.1527952549873
2008.5083961214223 2569.7551766456118
2009.1677712020955 2402.178200172144
2009.8269874699254 2415.5127476448947
2010.4860449634598 2781.3645095131305
2011.1449437212177 2748.5584213206116
2011.8036837817108 2715.810215746759
2012.4622651834325 2800.34881153228
2013.1206879648653 2625.2605331294817
2013.7789521644736 2888.585925398446
2014.4370578207036 2305.186993069955
2015.0950049719922 2530.899348299062
2015.7527936567585 2704.491953824274
2016.4104239134067 2557.404622221131
2017.067895780323 2817.0429624398976
2017.725209295886 2770.1500726740687
2018.3823644984514 2723.0591650115243
2019.0393614263648 2540.892182652965
2019.6962001179545 2323.0983599212345
2020.3528806115355 2650.007070899117
2021.0094029454067 2504.29846641627
2021.6657671578487 2476.776758871429
2022.321973287133 2538.0278024961326
2022.9780213715148 2502.1060773455974
2023.6339114492293 2410.440555753132
2024.2896435585026 2536.7261367544916
2024.9452177375442 2510.7423397394496
2025.600634024544 2777.9732069824813
2026.2558924576842 2550.567403139399
2026.9109930751292 2511.696303992564
2027.565935915025 2507.3571783207663
2028.2207210155066 2799.266685766579
2028.8753484146964 2746.3817609206535
2029.529818150695 2308.8055539833576
2030.1841302615903 2694.2261314690027
2030.8382847854573 2230.770365915244
2031.4922817603601 2373.9213687094607
2032.1461212243357 2375.8840227061796
2032.7998032154192 2181.26488987924
2033.4533277716218 2476.617738424267
2034.1066949309443 2421.783386512947
2034.7599047313688 2500.792910259078
2035.4129572108704 2694.230778744556
2036.0658524074006 2586.1296777721936
2036.7185903589016 2598.028083301109
2037.3711711032956 2514.097327132645
2038.023594678496 2433.528668642229
2038.675861122394 2389.521272670608
2039.3279704728757 2625.572168017121
2039.9799227678031 2283.096386036934
2040.6317180450278 2374.681801769881
2041.2833563423865 2462.130484385124
2041.9348376977014 2484.179106034557
2042.5861621487784 2646.451611747346
2043.2373297334088 2451.151146839483
2043.8883404893695 2586.582830825658
2044.5391944544208 2799.1091125401913
2045.1898916663158 2468.465659684153
2045.8404321627804 2590.126238710992
2046.4908159815368 2412.818135550185
2047.1410431602853 2292.211580935745
2047.7911137367173 2248.647807023734
2048.441027748504 2642.274528098918
2049.090785233302 2359.6531586545802
2049.7403862287592 2420.197384969815
2050.389830772503 2718.8841856218355
2051.0391189021466 2140.4760483509476
2051.688250655294 2613.741238285411
2052.337226069527 2358.860963086239
2052.986045182417 2698.1278926387736
2053.634708031521 2124.597207255225
2054.283214654375 2557.0040750668077
2054.931565088511 2194.7869821926092
2055.579759371436 2252.038304134825
2056.2277975406523 2444.9047520755803
2056.8756796336384 2694.4055303220675
2057.5234056878617 2204.8622922274603
2058.1709757407752 2272.695526116075
2058.8183898298194 2384.438708224841
2059.465647992416 2548.088289951184
2060.1127502659747 2542.776245768086
2060.759696687888 2373.064779362126
2061.4064872955405 2696.322728196546
2062.053122126292 2574.3200222002165
2062.699601217497 2147.45895580028
2063.345924606485 2510.9419767788963
2063.992092330587 2599.1354189717676
2064.638104427102 2435.5713353880005
2065.283960933324 2737.4120613266577
2065.92966188653 2536.3926122943894
2066.5752073239855 2596.563926201371
2067.2205972829397 2186.1888776903693
2067.86583180062 2514.684605292368
2068.5109109142522 2386.1203878017154
2069.15583466104 2367.87784975506
2069.8006030781708 2349.620745630082
2070.445216202821 2415.648279086666
2071.089674072153 2572.9052661169335
2071.7339767233116 2449.770818479213
2072.3781241934303 2394.9981141318553
2073.0221165196253 2410.994741945761
2073.6659537390024 2533.302869901508
2074.3096358886505 2618.1306454408705
2074.953163005637 2221.797891674726
2075.596535127028 2343.3122264379776
2076.2397522898664 2256.6616829240834
2076.882814531182 2464.316887216389
2077.5257218879924 2692.8670777133825
2078.1684743973 2277.060419605424
2078.8110720960885 2272.7342225323496
2079.453515021336 2695.565816951062
2080.095803209997 2540.829841021645
2080.7379366990135 2458.2685282451125
2081.37991552532 2490.585071567141
2082.0217397258275 2419.3252377281233
2082.6634093374414 2182.215438591675
2083.3049243970418 2438.0360069651824
2083.9462849415067 2410.7321715357384
2084.587491007689 2392.8123481278717
2085.2285426324324 2581.7085026338696
2085.869439852564 2476.4105449202866
2086.510182704902 2099.2354783825494
2087.1507712262483 2511.9792629288686
2087.791205453381 2246.5169199212924
2088.4314854230743 2566.0770116647404
2089.0716111720867 2452.1394556582745
2089.7115827371617 2135.9599542370133
2090.351400155023 2197.0837876212236
2090.991063462385 2258.427923943836
2091.6305726959527 2275.764030142268
2092.2699278924047 2566.032087492931
2092.9091290884153 2203.4919481341526
2093.548176320641 2334.395096548154
2094.187069625721 2496.01191982774
2094.8258090402887 2332.4944722664227
2095.464394600951 2479.2289187130586
2096.102826344313 2409.212740475046
2096.741104306955 2633.907928978795
2097.379228525453 2111.16438226319
2098.017199036358 2079.3707641053797
2098.6550158762147 2655.6522125451147
2099.2926790815527 2396.6166170443576
2099.9301886888825 2477.1584836375646
2100.5675447347076 2534.190036027933
2101.2047472555114 2708.511962479589
2101.841796287761 2210.15694777711
2102.47869186792 2458.0658279864833
2103.1154340324265 2345.535055765312
2103.752022817709 2318.3707299885873
2104.388458260184 2426.8344515207446
2105.024740396251 2491.481721333056
2105.660869262292 2323.7184639788993
2106.296844894685 2732.3755889238882
2106.93266732978 2451.034869794886
2107.5683366039284 2073.3344628202576
2108.2038527534532 2247.236269159689
2108.8392158146726 2576.3973395195108
2109.4744258238843 2418.660549971902
2110.1094828173755 2356.791950843213
2110.744386831422 2805.512720013706
2111.3791379022787 2484.762469848473
2112.01373606619 2553.2711714421634
2112.648181359389 2340.1870328414493
2113.28247381809 2459.4821381887846
2113.916613478492 2341.3627076528624
2114.550600376786 2460.749447882545
2115.1844345491445 2515.871229444154
2115.818116031729 2223.012246733819
2116.451644860679 2315.4654368239057
2117.085021072133 2370.1906134996298
2117.718244702204 2296.7731622322935
2118.3513157869984 2289.0580315711763
2118.984234362604 2234.7713937076533
2119.617000465092 2416.4202770434167
2120.249614130529 2560.3482160127287
2120.8820753949585 2274.420937653858
2121.5143842944162 2413.6435051756634
2122.14654086492 2144.5350630310045
2122.7785451424734 2697.08704080749
2123.4103971630702 2593.06097861896
2124.042096962681 2489.0783117121077
2124.6736445772767 2461.5105050233697
2125.305040042802 2284.5828320466867
2125.936283395191 2324.7855446700023
2126.567374670365 2289.4520009272424
2127.198313904233 2317.0394891243877
2127.8291011326855 2258.170659131366
2128.4597363916037 2198.9103149842267
2129.0902197168507 2466.8952887125515
2129.720551144279 2124.1679715814507
2130.3507307097225 2611.2720021529935
2130.980758449008 2639.1127342075597
2131.6106343979427 2292.84712975166
2132.2403585923203 2624.6219165328657
2132.8699310679276 2477.4300664528746
2133.499351860526 2312.5698090846427
2134.1286210058715 2509.8126902798344
2134.7577385397053 2251.14164118568
2135.3867044977487 2471.2422674696327
2136.0155189157176 2510.3173598524013
2136.644181829308 2558.3730731572978
2137.2726932742025 2158.0488411140122
2137.901053286074 2495.8791362555935
2138.5292619005777 2246.9615292156554
2139.1573191533535 2243.908810404994
2139.7852250800315 2613.0884374068733
2140.4129797162295 2431.748476909372
2141.0405830975433 2174.526860500258
2141.6680352595613 2529.6551350840487
2142.2953362378576 2100.4404708050733
2142.9224860679915 2241.4569967105863
2143.549484785508 2090.632555504865
2144.1763324259373 2359.7582778887413
2144.803029024799 2325.244614769699
2145.429574617594 2227.1431209531065
2146.0559692398165 2547.5629549369078
2146.682212926942 2238.2750641790426
2147.308305714432 2441.862858208888
2147.9342476377333 2550.181878880728
2148.5600387322847 2376.0619003780125
2149.185679033506 2507.376483719169
2149.8111685768017 2302.635216876609
2150.4365073975678 2371.9600215088494
2151.061695531187 2213.210132671636
2151.686733013021 2442.727246302518
2152.311619878423 2377.4675029447294
2152.9363561627342 2383.789598133549
2153.560941901278 2128.629552996105
2154.1853771293663 2430.7082502712196
2154.809661882293 2373.607203017866
2155.433796195348 2626.9420640440794
2156.0577801037944 2418.8849887243846
2156.681613642895 2503.52141906945
2157.3052968478896 2446.5934288847902
2157.928829754006 2213.317175531612
2158.552212396462 2366.0905609791303
2159.1754448104566 2488.258508724848
2159.7985270311783 2141.7736946313726
2160.4214590938027 2029.7481161769344
2161.0442410334927 2006.7977132933142
2161.6668728853874 2393.375734022551
2162.289354684628 2098.2188430103556
2162.911686466332 2378.31077089831
2163.533868265602 2371.378733721954
2164.1559001175337 2571.7243268387383
2164.7777820572046 2418.169072213571
2165.399514119681 2151.3426707417843
2166.021096340013 2029.585754498182
2166.6425287532384 2136.5190559341145
2167.263811394385 2243.7518678433403
2167.8849442984574 2425.6070346692786
2168.505927500455 2182.996183651139
2169.126761035366 2372.1844524170383
2169.7474449381552 2244.44803808366
2170.367979243778 1996.1373713892103
2170.9883639871823 2338.311518618106
2171.608599203293 2215.552101729069
2172.2286849270276 2561.577439559513
2172.8486211932886 2707.107587490937
2173.4684080369625 2253.393854196926
2174.0880454929265 2018.7626140687048
2174.7075335960417 2124.308532505973
2175.3268723811543 2481.409929024621
2175.9460618831 2464.6814023891206
2176.565102136701 2111.172547577252
2177.1839931767627 2124.5650126683404
2177.802735038078 2138.0233860022427
2178.421327755432 2194.112146221257
2179.0397713635866 2122.341422603783
2179.658065897298 1806.062031278123
2180.276211391305 2302.7146548879728
2180.8942078803357 2090.0271355410437
2181.5120553991 2237.057900808487
2182.129753982299 1983.4378705374238
2182.7473036646206 2208.4965815276614
2183.3647044807367 2314.510860567569
2183.9819564653044 2013.165072531226
2184.599059652968 2391.4861130848203
2185.216014078367 2460.5333768281153
2185.832819776113 2501.333927383594
2186.4494767808137 2542.088207066446
2187.065985127063 2211.857364728822
2187.682344849436 2279.0505476580065
2188.298555982501 2556.3518375027797
2188.9146185608097 2257.181969015945
2189.530532618901 2453.2246207744856
2190.1462981912937 2187.419036288442
2190.761915312507 2424.620289473124
2191.377384017036 2443.1039239931515
2191.9927043393654 2336.343551018647
2192.6078763139667 1877.4922685648191
2193.2228999753006 1902.5866723618299
2193.837775357808 1927.7651156416691
2194.452502495922 1918.7863348232772
2195.0670814240602 2142.6498122160265
2195.6815121766285 2203.7754377376104
2196.2957947880186 2168.247794293152
2196.9099292926057 2132.6559775427872
2197.523915724758 2400.2982931435845
2198.137754118825 2296.829960137391
2198.7514445091456 2468.9000396508386
2199.3649869300443 2104.6644697223774
2199.9783814158327 2610.0611346656433
2200.5916280008096 2888.5222385322727
2201.2047267192593 2484.9352473416466
2201.8176776054515 2421.5056081827847
2202.430480693649 2139.94814244604
2203.0431360180955 2380.4501106031407
2203.6556436130195 2430.9154062628745
2204.268003512645 2450.231001786733
2204.8802157511727 2469.7108529381235
2205.492280362796 2353.0519720075545
2206.1041973816937 2202.509498167058
2206.715966842032 2284.261276904068
2207.3275887779655 2020.7304863062486
2207.93906322363 2149.9380447579224
2208.550390213153 2414.2913316533904
2209.1615697806465 2085.614762738405
2209.7726019602105 1850.4887663907307
2210.3834867859277 1950.5566226785536
2210.9942242918787 2306.0543976764684
2211.6048145121167 2098.044395056307
2212.2152574806914 2814.012053349136
2212.825553231638 2238.3705515599254
2213.435701798975 2223.2071936579023
2214.045703216707 2208.2696370548815
2214.655557518832 2123.4998822890007
2215.2652647393297 1873.0459388030056
2215.874824912169 1853.7041998758655
2216.4842380713 2236.6289522546476
2217.09350425067 2006.0918942603344
2217.7026234842033 2074.1614264227123
2218.311595805819 2463.2624612118734
2218.9204212494133 2000.743881696826
2219.52909984888 2650.5966073533614
2220.137631638092 1819.123649133342
2220.7460166509154 2508.5388528492213
2221.354254921198 2218.434641853016
2221.9623464827764 2351.1056783560875
2222.5702913694713 2119.1325118652226
2223.178089615096 2274.9545482837107
2223.7857412534486 2052.559715175985
2224.39324631831 2028.5305244141714
2225.000604843457 2014.5000502208804
2225.607816862641 2462.1381128073417
2226.214882409611 2321.134482072931
2226.8218015180973 2338.7382102054917
2227.4285742218217 2176.851633563946
2228.0352005544864 2346.0118121237797
2228.6416805497847 1985.3285225436994
2229.248014241399 2151.517821327257
2229.8542016629945 2289.6230096121762
2230.460242848223 2427.918115153038
2231.0661378307304 2644.0743031016564
2231.671886644139 2077.974362898677
2232.277489322065 2085.0869078879787
2232.8829458981127 2217.259780203307
2233.48825640587 2349.6143985509543
2234.0934208789095 2726.7065695941733
2234.6984393507955 2485.2773192242307
2235.3033118550793 2664.8401065348835
2235.9080384252975 2230.6349960168022
2236.5126190949723 1966.6610083898527
2237.1170538976166 1851.3528374528382
2237.721342866729 1629.150311648691
2238.32548603579 2103.1575918841963
2238.9294834382763 2263.029953675833
2239.533335107646 1967.284646943297
2240.1370410773434 2237.2669998878673
2240.740601380803 2103.957220314453
2241.3440160514474 2173.2066575046015
2241.9472851226783 2192.613247321949
2242.550408627896 2231.2204434498635
2243.1533866004793 2269.929548425384
2243.756219073799 2373.604405072005
2244.3589060812064 2024.5390105880203
2244.961447656049 2055.885011597181
2245.5638438316564 2063.685358924853
2246.166094641343 2155.8861428102477
2246.7682001184166 2144.6539894345365
2247.3701602961664 2198.6577494573494
2247.971975207871 2318.059243530856
2248.5736448867974 2489.6342145698895
2249.175169366197 2289.762738316111
2249.7765486793123 2062.6155810781775
2250.3777828593684 2181.9243640320806
2250.9788719395783 2395.1593253054643
2251.579815953146 2298.372361134398
2252.1806149332606 1896.933592519707
2252.781268913097 2238.538669787591
2253.381777925817 1854.419513745955
2253.9821420045737 2090.255493007069
2254.5823611825035 2462.5469818613205
2255.1824354927303 2178.2342267413014
2255.782364968365 2044.147859208278
2256.38214964251 1909.939602154714
2256.9817895482483 1881.3562139647624
2257.5812847186553 2321.1756117803097
2258.180635186791 1800.2092617337723
2258.779840985704 2312.9949543483485
2259.37890214843 2098.289470992423
2259.97781870799 2431.5556250701457
2260.5765906973957 1984.4397070156022
2261.175218149645 2288.0284561192175
2261.773701097718 2499.9834651151514
2262.3720395745895 1950.3523874709203
2262.970233613216 2175.861136081372
2263.568283246548 2071.572466200381
2264.1661885075137 2007.9514351714602
2264.763949429038 2123.0979475889735
2265.3615660440246 2299.0646007401456
2265.959038385374 2097.2034834558026
2266.5563664859637 2329.6871844696684
2267.153550378669 2072.9715298611504
2267.7505900963424 2214.7306751237816
2268.3474856718312 1985.1994968416407
2268.9442371379664 2200.6177743013486
2269.5408445275643 2262.415669063099
2270.1373078734377 2324.4117383229154
2270.7336272083758 2154.0386099590523
2271.32980256516 2075.161253109059
2271.925833976562 2181.5412207572426
2272.5217214753357 2344.8608311131966
2273.117465094223 2096.8320946319022
2273.7130648659586 1883.649250563834
2274.308520823257 2268.6855785545554
2274.903832998827 2283.2210355462967
2275.4990014253563 2064.9340844675617
2276.094026135528 2290.6874533966648
2276.6889071620117 2281.97245907315
2277.2836445374614 2273.138303693003
2277.878238294519 2049.0732009707563
2278.472688465812 2015.0367597404395
2279.066995083962 1980.8811716469638
2279.6611581815705 2179.2917580602425
2280.255177791232 2326.043013629438
2280.8490539455233 2473.1192823526158
2281.442786677013 2413.0474580142572
2282.0363760182554 2493.0774499009513
2282.6298220017943 2093.6946342615984
2283.223124660155 2203.4938959413153
2283.816284025859 2104.4802664323893
2284.4093001314086 1848.2703752787759
2285.002173009292 2356.596680293222
2285.5949026919952 2077.408590327213
2286.1874892119777 1864.9571415885443
2286.7799326016993 1822.288940074431
2287.3722328936 1779.4128593217113
2287.964390120109 1889.7125619894578
2288.556404313642 2118.181766800106
2289.1482755066027 1999.41682378714
2289.7400037313873 1880.3686593271516
2290.3315890203703 2203.8558558507702
2290.9230314059205 2279.854317828078
2291.5143309203904 2060.392312587214
2292.1054875961236 2219.645672896843
2292.6965014654506 2379.3188192113585
2293.287372560684 2112.1583325113625
2293.878100914131 2050.0978063726056
2294.468686558086 1987.9707572461775
2295.059129524827 1928.1292749367808
2295.649429846617 2509.8608415908893
2296.239587555716 2378.6400096723764
2296.8296026843636 1982.136709804637
2297.419475264791 2119.805770806858
2298.0092053292137 2257.599695271455
2298.598792909839 2187.489830004767
2299.1882380388597 1948.994399544939
2299.777540748455 2133.8387133460014
2300.3667010707904 2318.795432843645
2300.9557190380256 2122.821561203961
2301.544594682302 2084.6517642716763
2302.1333280357503 2046.4084825558712
2302.721919130485 2444.4421310898665
2303.3103679986198 2507.0304201453155
2303.898674672242 2484.659796253122
2304.486839183437 1877.9878308941484
2305.0748615642697 2277.894725889465
2305.6627418468015 1813.9479079702633
2306.2504800630704 2172.9577926308657
2306.8380762451143 1999.1656918785218
2307.425530424949 2123.7043761876735
2308.012842634582 2248.5123649962284
2308.6000129060103 2531.8045668882164
2309.187041271214 2825.4968764753967
2309.773927762164 2222.0916683157657
2310.3606724108213 2250.7834943815665
2310.9472752491274 2291.8275466428204
2311.5337363090184 2333.020505766318
2312.120055622414 2223.1475572703703
2312.706233221221 1910.0818559893019
2313.2922691373424 1835.4376446622077
2313.8781634026564 1921.357973087149
2314.463916049037 2007.4587335205943
2315.049527108342 2281.207241535887
2315.6349966124235 2283.901742196609
2316.2203245931123 2395.347585721412
2316.8055110822315 1843.6016007693765
2317.3905561115935 2007.569515069538
2317.9754597129977 1809.682908631255
2318.560221918229 1887.880130509187
2319.1448427590603 1966.2960300572436
2319.729322267256 1835.8578453477126
2320.313660474563 2265.183860094473
2320.8978574127195 2144.164594764109
2321.481913113452 2022.9320928685233
2322.0658276084705 1954.0032000111376
2322.6496009294806 2005.2222252595616
2323.233233108165 2389.5514065416323
2323.8167241762058 2146.6161130833448
2324.4000741652617 2188.1397138137872
2324.983283106987 2592.491876718304
2325.5663510330232 2456.0131812094232
2326.1492779749933 2236.426258197728
2326.7320639645204 2147.5686953861727
2327.3147090332004 1837.2954602593284
2327.897213212629 1988.0251850207508
2328.4795765343843 2138.8111241460147
2329.0617990300307 1763.2104204192729
2329.643880731124 2234.4932925489643
2330.22582166921 2193.700499231038
2330.807621875816 2095.420459703481
2331.3892813824623 2071.7463561297436
2331.9708002206517 1883.6127892698162
2332.5521784218818 2498.559632015008
2333.133416017634 2322.6222937769803
2333.7145130393765 2103.832377799063
2334.295469518571 2324.1757447021328
2334.876285486658 2335.2407292990824
2335.456960975076 1984.3841294218164
2336.037496015242 2183.1977417269236
2336.6178906385667 2144.629509888981
2337.198144876451 2303.048462519922
2337.778258760278 1911.224153980977
2338.3582323214214 2110.963639995194
2338.938065591243 2311.114370996451
2339.517758601087 2320.5867371804407
2340.0973113822965 2145.6127142066302
2340.676723966193 1837.3707120630115
2341.255996384094 2049.908330887937
2341.835128667295 2076.1923846985164
2342.4141208470883 2052.349118181847
2342.992972954751 2201.6620756138514
2343.5716850215467 2216.025956045148
2344.1502570787306 2078.5020994887755
2344.7286891575386 1940.6110490936014
2345.3069812892045 2180.4803716452134
2345.885133504944 2359.689934134587
2346.4631458359618 2084.5461005876173
2347.04101831345 2037.1414310101088
2347.6187509685915 2327.8231107381635
2348.196343832553 2013.476916942095
2348.7737969364935 1843.6354836570076
2349.351110311558 1932.1266442030496
2349.9282839888765 1819.791625634944
2350.5053179995757 2074.6844053330724
2351.0822123747585 1724.4303274196802
2351.658967145526 1692.5446960155346
2352.2355823429643 1660.7043933123944
2352.812057998144 2106.2367432092988
2353.3883941421263 2027.4928218702469
2353.9645908059647 2108.6993185765723
2354.540648020693 1948.996370194994
2355.116565817336 1822.478870786595
2355.6923442269126 1917.991650181169
2356.2679832804224 1750.551219909199
2356.8434830088518 1658.7246665182981
2357.41884344318 2136.524079218321
2357.994064614377 1993.3671926211414
