#exp_cfg={"servo_angle": 0.0, "laser_lim": 100.0, "servo_angle_to": 18.0, "laser_wup": 0.0, "bt_dev": "EnSpectr-25AE3", "laser_wdn_max": 0.0, "frames": 10.0, "servo_used": 0, "servo_calib_use": 0, "laser_wdn_min": 0.0, "servo_pix_from": 90.0, "cooler_tout": 300.0, "servo_angle_from": 0.0, "servo_calib": "[-1.9174921013161362e-09, 3.9322238269163779e-05, -0.27385609119055809, 653.59552119713567]", "laser_autoctl": 0, "servo_pix_to": 3682.0, "laser_pw": 100.0, "cooler_on": 0, "laser_volt": 4.0, "cooler_autoctl": 0, "cooler_curr": 70.0, "cooler_startup": 10.0, "laser_fixed_pw": 0, "gain": 1.3, "offset": 2.53059635486, "servo_calib_degree": 3.0, "laser_curr": 55.0, "shutter": 8200.0, "servo_calib_step": 1.0, "laser_fixed_curr": 0, "exp": 2000.0, "ccd_volt": 4.7, "bt_addr": "00:06:66:62:5A:E3", "servo_delay": 500.0, "laser_autooff": 1}
#proc_cfg={"flat_auto_wnd": 200.0, "flat_auto_fr": 200.0, "flat_auto_shift": 5.0, "yconv": 1, "flatten": 1, "flatten_strength": 100.0, "xfrom": 300.0, "auto_max_frame": 2000.0, "auto_signal": 48000.0, "flat_auto_tol": 0.1, "autoclip": 1, "xrel_range": 0.0, "flat_auto_to": 4000.0, "intensity_adj": 1.0, "xrel": 7852.0, "rmhot": 1, "flat_auto_slit": 4.999999999999997, "auto_ini_exp": 300.0, "auto_off": 0, "xto": 2860.0, "flat_auto_ref": "", "flat_auto_rank": 1, "autobackg": 0, "xrel_adj": 0.0, "auto_black_lvl": 1, "base_wnd": 100.0, "sub_baseline": 0, "xconv": 2, "auto_max_exp": 1000.0, "auto_total_exp": 10000.0, "auto_exp": 0, "rmripple": 0, "black_lvl": 8266.925, "shutter_clip_adj": 0.0, "auto_bckg": 0, "flat_auto_thr": 0.9, "subbackg": 1}
316.8218498245369 16056.038192840473
317.89969571804795 15870.123387826181
318.977263876126 15831.046637028086
320.05455438786703 15697.662131504945
321.1315673423287 15626.65039993549
322.2083028285215 15758.581420194809
323.2847609354267 15611.911894219516
324.3609417519747 15543.136411797004
325.43684536705587 15522.533976411094
326.5124718695279 15429.094680622802
327.58782134820103 15511.414114003204
328.66289389184385 15385.361978829682
329.7376895891921 15287.545544726861
330.8122085289342 15344.474300756474
331.88645079971866 15235.747701204129
332.9604164901575 15197.124717687711
334.03410568881554 15185.301714534176
335.1075184842266 15284.360507816222
336.18065496487543 15046.634833901975
337.2535152192122 15164.226021824283
338.32609933564163 15150.562546811032
339.39840740253203 14965.45289414463
340.4704395082099 14955.842189707875
341.5421957409617 14951.653790069602
342.6136761890357 14978.40536253081
343.6848809406365 14922.03551197147
344.75581008392874 14866.8534016302
345.82646370703696 14810.828820723826
346.8968418980512 14756.553728717141
347.96694474501055 14872.96692619805
349.0367723359268 14769.566451629846
350.106324758759 14741.824263881022
351.1756021014353 14640.166619786987
352.2446044518383 14686.942885769118
353.31333189781435 14716.670382403832
354.38178452716966 14670.692457499103
355.449962427665 14671.951238071802
356.51786568702846 14609.68164787766
357.58549439294256 14852.60445540924
358.6528486330535 14767.990774681228
359.71992849496564 14665.362445791532
360.7867340662433 14662.685651454953
361.8532654344144 14731.192746056313
362.9195226869597 14836.42093820184
363.9855059113288 14580.691907589387
365.05121519492604 14568.513117147435
366.11665062511565 14824.428481953155
367.1818122892273 14742.938823821987
368.2467002745434 14656.502939339782
369.31131466831175 14759.830987567304
370.375655557742 14766.07979141337
371.4397230299983 14743.20398032761
372.5035171722102 14669.082241378695
373.5670380714637 14731.871172639116
374.6302858148101 14853.050334972839
375.6932604892554 14859.230948013244
376.7559621817709 14858.196025245756
377.81839097928605 14672.38192974714
378.8805469686886 14654.833138490669
379.94243023683157 14697.276640578924
381.0040408705263 14722.876056993144
382.0653789565458 14599.099495757604
383.1264445816196 14726.135634331533
384.1872378324406 14685.768409379054
385.2477587956637 14711.091546023856
386.3080075579037 14680.634317344313
387.3679842057336 14593.142937977715
388.4276888256918 14524.895844626424
389.48712150426945 14642.39027037819
390.54628232792857 14654.171231746703
391.6051713830857 14575.477521040282
392.66378875611736 14560.711586958856
393.7221345333637 14544.876434401749
394.7802088011249 14489.877224199143
395.838011645661 14501.152132035404
396.89554315319765 14477.526608617616
397.9528034099112 14409.06344635885
399.00979250194723 14339.738751429682
400.06651051541485 14384.22108526247
401.1229575363741 14390.256443725366
402.17913365085224 14351.854277543705
403.23503894483656 14439.115886768894
404.2906735042761 14303.140633685474
405.3460374150818 14231.716874147478
406.401130763119 14316.074285190256
407.455953634224 14225.744766012294
408.5105061141876 14267.32916788883
409.56478828876243 14097.470925298378
410.6188002436629 14170.266293704548
411.6725420645689 14154.428663577526
412.72601383711117 14134.1944456307
413.77921564689314 14226.318408308332
414.8321475794728 14106.325953836142
415.88480972036814 14021.578892801737
416.93720215506437 14213.282438647515
417.9893249690049 14022.82120063689
419.04117824759123 13967.825842927783
420.09276207619223 13960.769596089138
421.144076540133 14059.191763620434
422.1951217247042 13962.968766458314
423.24589771515275 13982.417623820103
424.2964045966928 13911.284886797434
425.34664245449494 13890.425667340218
426.3966113736933 13881.607304993115
427.4463114393875 13873.402604103607
428.49574273662984 13841.614982220559
429.5449053504417 13759.717867893929
430.5937993658026 13724.930199893312
431.6424248676558 13650.885717015295
432.6907819409007 13733.10198975923
433.73887067040596 13642.520060610948
434.7866911409965 13639.237079505392
435.8342434374608 13608.372811938101
436.88152764455117 13569.475460746928
437.9285438469724 13471.809587891785
438.9752921294057 13419.942380971956
440.02177257648145 13365.352162530055
441.06798527279716 13320.806677529046
442.1139303029122 13423.212744909702
443.1596077513459 13349.358735800977
444.2050177025794 13348.662549271496
445.25016024105753 13330.247312970207
446.2950354511886 13324.876572244422
447.33964341733736 13353.0489216432
448.383984223834 13287.323153361203
449.4280579549686 13266.28673485731
450.471864694995 13279.020546455615
451.5154045281306 13388.338106820727
452.5586775385509 13260.18437996157
453.60168381039693 13241.641363878418
454.64442342776783 13352.280589680555
455.6868964747264 13250.179905994335
456.7291030353008 13224.256891125848
457.77104319347563 13304.310372355423
458.8127170332027 13235.499270467611
459.854124638392 13179.748028775652
460.895266092919 13335.734437154355
461.93614148061897 13340.800657154512
462.97675088529104 13362.09216853645
464.01709439069236 13282.8703475118
465.0571720805492 13368.277847041632
466.0969840385442 13343.862891846211
467.1365303483253 13438.572246402971
468.17581109350067 13279.626099945584
469.2148263576437 13307.6883145295
470.2535762242878 13389.545385045907
471.29206077693016 13448.656720567853
472.33028009902773 13404.338248451138
473.3682342740012 13486.92222189184
474.40592338523857 13506.097112379433
475.4433475160804 13573.250362771923
476.4805067498364 13576.905502212376
477.51740116978 13649.277365605678
478.5540308591426 13720.340071065908
479.59039590112116 13905.606102753241
480.6264963788726 13907.261021973729
481.6623323755193 14113.429304468944
482.6979039741436 14158.221417288814
483.7332112577915 14368.85750601711
484.76825430947247 14493.464485764547
485.80303321215797 14555.867118029812
486.837548048783 14667.064532372136
487.8717989022425 14912.292274810743
488.90578585539697 15016.237867435537
489.9395089910686 15134.804345872286
490.97296839203955 15031.909444506164
492.00616414106116 14862.534266157236
493.0390963208429 14923.319575498046
494.0717650140559 14915.08777315931
495.10417030333883 14749.328028584665
496.1363122712901 14726.677181416148
497.16819100046814 14536.98337160408
498.1998065734024 14301.116803006938
499.2311590725767 14321.17463013639
500.26224858044407 14119.185850883285
501.2930751794156 13978.19980627888
502.3236389518679 13995.674561717437
503.35393998014115 13735.976607890983
504.38397834653733 13679.265154924844
505.4137541333221 13657.759346828772
506.4432674227228 13444.258697383804
507.4725182969323 13488.684287170641
508.5015068381035 13388.992280507027
509.53023312835467 13341.148790234962
510.55869724976765 13346.787936751227
511.58689928438434 13218.81193514409
512.6148393142121 13243.8361895438
513.6425174212218 13251.513860272524
514.6699336873462 13217.63298351158
515.6970881944835 13270.901690344519
516.7239810244901 13224.520752895474
517.7506122591931 13199.058123686355
518.7769819803761 13234.23218313949
519.8030902697901 13340.702890627712
520.8289372091476 13420.099724499945
521.8545228801249 13487.665714721186
522.8798473643619 13335.059093422748
523.9049107434621 13424.196962428148
524.9297130989908 13392.782450156854
525.9542545124805 13392.093860093979
526.9785350654201 13339.480387653171
528.0025548392696 13355.451387003952
529.0263139154504 13353.472264677248
530.0498123753423 13364.742830377523
531.073050300296 13204.97926845259
532.0960277716204 13287.327975714215
533.1187448705896 13159.709074827872
534.1412016784416 13187.0269086735
535.1633982763833 13188.749375982525
536.1853347455726 12995.761339402527
537.2070111671401 13007.035894193326
538.2284276221817 12969.043901356563
539.2495841917516 12882.971910805662
540.2704809568677 12799.550218984481
541.2911179985167 12834.537466132077
542.3114953976419 12751.650356561155
543.3316132351592 12753.39233440346
544.3514715919409 12576.514442820508
545.3710705488247 12643.987069684745
546.3904101866156 12515.859054633625
547.4094905860784 12590.21846291169
548.4283118279418 12514.905845175857
549.4468739929034 12550.701221276313
550.4651771616191 12424.858009688105
551.4832214147063 12467.570901182837
552.501006832761 12427.615482597661
553.5185334963226 12415.507312689824
554.5358014859103 12451.6289691994
555.5528108820035 12377.02869396122
556.5695617650363 12342.261003147996
557.5860542154242 12431.394919548178
558.6022883135283 12349.881267775974
559.6182641396881 12340.634560952914
560.6339817741991 12328.226556068483
561.6494412973225 12424.075513391586
562.6646427892883 12373.60806511072
563.6795863302796 12301.348374705196
564.694272000459 12318.570119774091
565.7086998799423 12370.212583960978
566.7228700488104 12305.836236134022
567.7367825871115 12285.749726869073
568.7504375748576 12329.525682263939
569.7638350920224 12310.505503486695
570.7769752185486 12339.843958359275
571.7898580343353 12348.945792424347
572.802483619258 12348.374074014313
573.8148520531431 12520.189658619203
574.8269634157932 12513.277733438063
575.8388177869692 12434.377600193042
576.8504152463938 12537.34683306536
577.8617558737587 12689.472232730714
578.8728397487175 12666.338653966142
579.883666950891 12788.438900506817
580.8942375598654 12798.04256748551
581.9045516551851 12882.562037140884
582.9146093163617 13107.201011375582
583.924410622878 13068.608371022283
584.9339556541727 13102.560546868484
585.9432444896538 13235.452351672877
586.9522772086875 13192.433427069325
587.9610538906127 13221.51549395234
588.9695746147318 13200.588381458878
589.9778394603054 13220.090744086867
590.985848506567 13228.899500772759
591.9936018327098 13190.371601132516
593.0010995178891 13004.587133328285
594.0083416412344 13179.994873112413
595.0153282818283 12926.487009548158
596.0220595187293 12878.065234870897
597.0285354309508 12812.525672073038
598.0347560974806 12770.867756707465
599.0407215972609 12714.19666117041
600.0464320092051 12636.032519593551
601.0518874121954 12781.314691484065
602.0570878850685 12625.421411392586
603.062033506636 12673.31230474137
604.0667243556636 12690.403371058357
605.0711605108936 12687.96664033236
606.0753420510264 12878.850621399022
607.0792690547278 12776.376254899087
608.082941600629 12800.068262349534
609.0863597673306 12625.785315737456
610.0895236333909 12794.376617939608
611.0924332773357 12916.705645489126
612.0950887776617 13012.892511690177
613.0974902128219 12932.449259639052
614.0996376612384 13179.334089154785
615.1015312013005 13168.976735086204
616.1031709113595 13268.289676273827
617.1045568697336 13230.494076234998
618.1056891547069 13472.461115561291
619.1065678445229 13720.461016507814
620.1071930173985 13876.14338874027
621.1075647515099 14035.870798048472
622.1076831250048 14135.815848251432
623.1075482159849 14438.370048740693
624.1071601025305 14522.77807294267
625.1065188626781 14694.078175056788
626.105624574433 15119.272717368367
627.1044773157682 15105.58928443972
628.1030771646128 15248.596582793547
629.1014241988742 15391.083921547886
630.0995184964158 15629.533419469804
631.0973601350688 15653.377053075737
632.0949491926294 15860.396610544976
633.0922857468631 15579.154562089878
634.089369875499 15666.2602133846
635.0862016562278 15524.910815411688
636.0827811667077 15527.077255142794
637.0791084845641 15423.438137620295
638.0751836873878 15155.838524236713
639.0710068527369 15200.364643381597
640.0665780581294 14872.151593878345
641.0618973810506 14810.88984457438
642.0569648989604 14625.608942823103
643.0517806892676 14342.63653918944
644.0463448293649 14189.859208675622
645.040657396592 14003.305790013019
646.0347184682723 13824.648706182834
647.0285281216875 13677.808768849363
648.0220864340772 13597.910971858128
649.0153934826558 13444.84905781999
650.0084493446047 13259.680598972383
651.0012540970674 13154.931982949976
651.9938078171526 13059.566606488925
652.9861105819346 12905.29565171157
653.9781624684565 12966.433196852411
654.9699635537254 12803.874708804116
655.9615139147136 12893.600710434204
656.9528136283589 12720.241230551666
657.9438627715699 12785.017977806721
658.9346614212154 12668.316647892798
659.925209654135 12419.588546805086
660.9155075471263 12553.44286696264
661.9055551769616 12564.888848080267
662.895352620375 12612.026591608706
663.8848999540678 12523.795473665657
664.8741972547068 12255.538410327375
665.863244598926 12317.960256642908
666.8520420633213 12420.105582370903
667.8405897244611 12321.150251312007
668.8288876588758 12169.216174051648
669.8169359430613 12348.616891123793
670.8047346534822 12308.499721206055
671.7922838665672 12193.184848225486
672.7795836587156 12269.241892971822
673.766634106285 12413.35326753875
674.7534352856092 12243.03961473383
675.7399872729766 12265.979564608007
676.7262901446538 12225.776565975199
677.712343976862 12288.952150503563
678.6981488457986 12336.327317860343
679.6837048276229 12209.605943854389
680.6690119984596 12227.993488440701
681.6540704344043 12206.705474468557
682.6388802115107 12264.835512973852
683.6234414058108 12234.562268802936
684.6077540932874 12123.600096740513
685.591818349907 12121.80323805697
686.575634251587 12091.105759804856
687.5592018742263 12106.34708978384
688.5425212936734 11991.259364111706
689.5255925857564 11934.745411344353
690.5084158262707 11872.388172014378
691.4909910909646 11950.165084566886
692.4733184555644 11844.786670472251
693.4553979957618 11861.947170442556
694.4372297872123 11831.625006550155
695.4188139055404 11792.410449043233
696.4001504263324 11664.599356156821
697.3812394251509 11720.402708851138
698.3620809775111 11685.055816022823
699.3426751589104 11703.624847913552
700.3230220448004 11603.457808109451
701.3031217106054 11694.875668268338
702.2829742317172 11728.196242084021
703.2625796834873 11589.233456020305
704.2419381412474 11580.360424780121
705.22104968028 11671.215023013321
706.1999143758458 11625.245232037178
707.178532303169 11612.487243455678
708.1569035374378 11604.79051105723
709.1350281538107 11655.615785819851
710.1129062274158 11579.853564513902
711.0905378333373 11705.944286678727
712.0679230466376 11590.068192427472
713.0450619423427 11622.928597016247
714.0219545954424 11684.101251363523
714.9986010808989 11559.213282241293
715.9750014736292 11618.226729095757
716.9511558485392 11780.63089115194
717.9270642804786 11742.868229701458
718.9027268442787 11754.67967799503
719.8781436147328 11690.696491758617
720.8533146666014 11704.836044877582
721.828240074612 11675.249384967694
722.8029199134635 11701.851342567668
723.7773542578125 11717.444353213996
724.751543182294 11607.658179852504
725.7254867615029 11625.264502459551
726.6991850700015 11533.091186560723
727.6726381823228 11527.04923510343
728.6458461729599 11575.444601075267
729.6188091163858 11533.411769716262
730.5915270870246 11525.437929609683
731.5640001592856 11312.12748168552
732.536228407529 11411.5508381631
733.5082119060917 11396.656728936467
734.4799507292755 11305.488652709178
735.4514449513481 11335.37397246525
736.4226946465496 11427.033481047603
737.3936998890786 11409.070088528866
738.3644607531078 11252.721930319467
739.3349773127793 11251.878002523012
740.3052496421951 11416.009268977794
741.27527781543 11235.526165692865
742.2450619065221 11334.591886049877
743.2146019894826 11328.88986157973
744.183898138288 11342.8541660527
745.1529504268801 11311.34892908108
746.1217589291682 11235.91570607256
747.0903237190341 11269.901512902272
748.058644870318 11342.771831619115
749.0267224568397 11201.379744807686
749.994556552374 11088.201947330916
750.9621472306771 11144.58509834416
751.9294945654583 11244.112964088165
752.8965986304011 11256.818957696967
753.8634594991636 11219.425520962464
754.8300772453586 11310.108786248155
755.7964519425768 11241.85093469928
756.762583664371 11282.635887323364
757.7284724842611 11385.167030222516
758.6941184757416 11234.324153791962
759.6595217122667 11310.565062375144
760.6246822672638 11311.129804956543
761.5896002141235 11251.568585473548
762.5542756262093 11249.959515635968
763.5187085768503 11261.160218728688
764.4828991393406 11214.668229812838
765.4468473869474 11258.31924723012
766.4105533929032 11151.778716439416
767.3740172304078 11117.03218227449
768.3372389726283 11144.568216943338
769.3002186926988 11072.881758154901
770.2629564637282 10963.5792632858
771.2254523587872 11066.854547258863
772.1877064509154 10887.430395018391
773.1497188131179 10841.56791649869
774.1114895183728 10723.344004677529
775.0730186396268 10694.43597389452
776.0343062497905 10745.723141940734
776.9953524217381 10675.188482081845
777.9561572283274 10732.332843109692
778.9167207423689 10695.807050990396
779.8770430366476 10721.39880781961
780.8371241839159 10691.718813433066
781.7969642568951 10715.297366032919
782.7565633282757 10847.540938750431
783.7159214707099 10624.30660898099
784.6750387568281 10596.936517068738
785.6339152592227 10696.228958996817
786.5925510504512 10623.69059942559
787.5509462030477 10613.980914673877
788.5091007895098 10673.62073040811
789.4670148823006 10687.199585585422
790.4246885538596 10675.17875469166
791.3821218765861 10717.005522823258
792.3393149228505 10632.14879509839
793.2962677649975 10725.44730595624
794.2529804753303 10751.842219245205
795.20945312613 10796.158906911256
796.1656857896378 10835.80863972313
797.1216785380675 10827.877899182928
798.0774314435985 11077.453764619133
799.0329445783846 11214.628244031454
799.9882180145414 11116.091746596163
800.9432518241574 11263.437960955007
801.89804607929 11350.055185274954
802.852600851962 11358.312102800746
803.8069162141637 11287.945055987631
804.760992237856 11458.736338996745
805.714828994971 11401.036422655561
806.6684265574077 11548.214809464487
807.6217849970271 11414.549924241199
808.574904385674 11384.341745678237
809.527784795142 11464.85704155662
810.4804262972102 11452.341138432927
811.4328289636178 11292.104951641199
812.3849928660748 11092.301427077186
813.3369180762638 11087.128853612398
814.2886046658241 10969.379074051069
815.2400527063783 10837.931264205106
816.1912622695108 10731.249127930412
817.1422334267718 10700.850786291343
818.0929662496856 10588.776744026149
819.0434608097457 10384.473078879968
819.9937171784059 10339.252269640761
820.9437354271013 10251.301887910728
821.8935156272255 10295.847211337817
822.8430578501484 10223.092594807096
823.7923621672016 10079.690358588316
824.7414286496896 10110.335618208434
825.6902573688876 10109.228519223641
826.6388483960363 10025.699129117731
827.5872018023492 10093.80750559038
828.5353176590033 9954.266866987826
829.4831960371503 9953.597922120494
830.4308370079016 9994.87834881998
831.3782406423525 9989.822898488062
832.3254070115545 10005.940490990826
833.2723361865319 9868.136966288752
834.2190282382799 9907.787889844858
835.1654832377644 10022.408781128299
836.1117012559116 9885.827955822397
837.0576823636256 9954.938971996033
838.003426631778 9832.655176363649
838.9489341312074 9796.016822394859
839.8942049327197 9837.797945092087
840.8392391070975 9898.73609514492
841.7840367250865 9847.326433360271
842.7285978573982 9720.46018690071
843.672922574724 9930.479867146538
844.6170109477152 9805.147577292097
845.560863046996 9841.288384951084
846.5044789431595 9689.100278388789
847.4478587067697 9789.825218368635
848.3910024083561 9897.029003404687
849.333910118421 9857.30385276793
850.2765819074339 9798.168925553446
851.2190178458332 9846.764970787537
852.161218004032 9863.913353255988
853.1031824524016 9855.75819433149
854.0449112612987 9821.03991936249
854.9864045010327 9820.056168836369
855.9276622418947 9772.906793301556
856.8686845541379 9712.374802214968
857.8094715079915 9751.941862023274
858.7500231736467 9894.479407989567
859.690339621271 9783.096611560195
860.6304209209939 9867.924123348268
861.5702671429244 9725.979028807797
862.5098783571284 9851.048337962333
863.4492546336569 9844.66454165036
864.3883960425155 9847.578278163659
865.3273026536863 9830.678397494608
866.2659745371238 9950.766669259578
867.2044117627465 9931.514537451929
868.1426144004472 9939.21752538752
869.0805825200823 10031.517555931876
870.0183161914847 10177.83156331746
870.9558154844526 10127.892148417066
871.8930804687552 10242.53190786366
872.8301112141307 10153.104428308445
873.7669077902865 10260.868921772435
874.7034702669062 10355.562182064195
875.6397987136315 10344.297578809254
876.5758932000863 10255.65920091209
877.5117537958522 10462.612981004653
878.4473805704911 10468.664326692597
879.3827735935283 10331.847702904559
880.3179329344603 10450.607601762666
881.2528586627541 10426.167788516646
882.1875508478479 10508.729135188742
883.1220095591489 10405.826223234179
884.0562348660296 10411.176134684061
884.9902268378391 10437.541877461303
885.9239855438955 10377.318453578424
886.8575110534839 10286.235277956792
887.7908034358588 10281.939645588205
888.7238627602474 10274.574414877603
889.6566890958475 10177.064387605133
890.5892825118208 10030.450809002696
891.5216430773125 10064.191235306002
892.4537708614189 9967.73924365488
893.3856659332196 9896.40216965754
894.3173283617652 9790.329553612977
895.2487582160684 9833.625336610188
896.179955565116 9696.35459825279
897.110920477864 9505.071479653965
898.0416530232451 9575.965662072504
898.9721532701478 9518.229501612546
899.9024212874428 9649.181365112667
900.8324571439662 9503.140837775642
901.7622609085302 9337.49470920653
902.6918326499072 9323.878699295812
903.6211724368477 9445.812686540827
904.5502803380696 9284.008890303556
905.4791564222614 9499.28837232844
906.4078007580792 9271.725055442737
907.3362134141571 9362.09305063607
908.2643944590909 9386.565751590355
909.1923439614493 9193.912836451604
910.1200619897754 9184.932608639654
911.0475486125779 9324.643421171313
911.9748038983344 9213.862217286221
912.9018279155007 9218.928321658404
913.8286207324982 9118.758136902225
914.7551824177117 9151.258705067497
915.6815130395116 9132.198501781819
916.6076126662283 9131.170843315456
917.533481366163 9129.412262457527
918.4591192075914 9071.505904882697
919.3845262587565 9284.975112912505
920.3097025878706 9072.582009048663
921.2346482631237 9087.593342219032
922.1593633526682 9082.474442808589
923.0838479246304 9204.618135539858
924.0081020471061 9190.358056314013
924.9321257881656 9028.791497076887
925.8559192158464 9020.31386404562
926.7794823981512 8985.226402567929
927.7028154030686 8999.872991905506
928.6259182985414 8899.472268716676
929.5487911524906 9053.124382883183
930.4714340328119 9002.057145763047
931.3938470073608 8871.004116172393
932.3160301439748 8970.982629230148
933.2379835104548 9005.149191850896
934.1597071745709 9107.528421547544
935.0812012040769 9013.904941947472
936.002465666681 8947.340068775544
936.9235006300696 8902.21698976613
937.8443061619055 8970.357985996081
938.7648823298077 8812.924611449576
939.6852292013809 8791.581371810937
940.6053468441951 9008.823180295538
941.5252353257874 8692.655929873228
942.4448947136698 8804.536758596161
943.364325075323 8750.288040838905
944.2835264782043 8825.885557360909
945.2024989897309 8737.32213602807
946.1212426773054 8760.798119586285
947.0397576082851 8771.727336664366
947.9580438500125 8808.555926152616
948.8761014697939 8805.106891492454
949.7939305349064 8754.05182675312
950.7115311125999 8618.26063393263
951.6289032700952 8642.358267797159
952.5460470745875 8743.88733849506
953.4629625932339 8778.531294375733
954.3796498931715 8820.184697884833
955.2961090415029 8761.386585115757
956.2123401053068 8732.567160013361
957.1283431516276 8673.072078147632
958.0441182474842 8588.32294050031
958.9596654598663 8714.888114204272
959.8749848557309 8742.028832314594
960.7900765020167 8703.946856593317
961.7049404656209 8730.411610016647
962.6195768134185 8648.217712648708
963.5339856122537 8690.006219965791
964.4481669289453 8717.68600682213
965.3621208302793 8602.047993963772
966.2758473830145 8687.5478474938
967.1893466538822 8809.47081803516
968.1026187095813 8632.289175340044
969.0156636167867 8656.106942233684
969.9284814421426 8642.838677847565
970.8410722522622 8615.105188211894
971.753436113735 8656.11288933406
972.6655730931161 8491.059679854865
973.5774832569368 8615.503355323512
974.4891666716958 8638.906412866392
975.4006234038698 8561.422439484153
976.3118535198955 8431.447084288016
977.2228570861935 8757.10333816009
978.1336341691494 8603.034747447331
979.0441848351202 8589.009008486473
979.9545091504333 8666.885495554012
980.864607181391 8678.59485976043
981.7744789942699 8655.92481039735
982.6841246553086 8683.909167096532
983.5935442307236 8589.174993475028
984.5027377867027 8782.720114243102
985.4117053894024 8729.215175822294
986.3204471049557 8660.160632435794
987.2289629994648 8753.070979560736
988.1372531390007 8807.421134768796
989.0453175896091 8639.31768043579
989.9531564173067 8705.040248785366
990.860769688079 8583.792751570076
991.7681574678918 8772.018560471215
992.6753198226706 8825.278828166516
993.582256818323 8783.270788230184
994.4889685207218 8797.801454342825
995.3954549957143 8955.445686239684
996.301716309119 8898.226022983039
997.2077525267232 8902.866933879062
998.1135637142943 8868.176534768634
999.0191499375615 9035.159281693872
999.924511262232 8919.296892065895
1000.8296477539861 9026.575527283601
1001.7345594784656 8978.028154849366
1002.6392465012996 8964.024692371733
1003.5437088880753 8944.146201567304
1004.4479467043584 8846.562891027603
1005.3519600156869 8746.162897874843
1006.2557488875718 8846.80039189092
1007.1593133854858 8862.88989336138
1008.0626535748888 8794.50060023501
1008.9657695212009 8738.903208776059
1009.8686612898182 8963.152048813256
1010.7713289461135 8811.031316254379
1011.6737725554212 8865.528162542214
1012.5759921830577 8786.976296337521
1013.4779878943027 8880.408584464172
1014.379759754418 8780.363476833796
1015.2813078286254 8702.360090210681
1016.18263218213 8597.875061522162
1017.0837328801026 8672.424745285123
1017.9846099876886 8781.321055879811
1018.8852635700023 8594.555421190023
1019.7856936921362 8487.744421345637
1020.6859004191447 8692.99456140368
1021.5858838160675 8609.210469868693
1022.4856439479063 8457.19249455546
1023.3851808796389 8417.255254158834
1024.2844946762143 8553.100484156212
1025.183585402554 8455.676054704358
1026.082453123554 8380.742171888356
1026.9810979040776 8328.445963882608
1027.8795198089647 8340.950340975
1028.777718903024 8370.88420349638
1029.6756952510368 8335.215716379109
1030.5734489177648 8312.82316269294
1031.4709799679313 8377.766750359686
1032.3682884662358 8416.61394949608
1033.2653744773506 8272.67301566173
1034.1622380659192 8368.161362992447
1035.058879296559 8403.163196538144
1035.9552982338591 8525.729996810904
1036.8514949423825 8445.868219272674
1037.7474694866614 8463.64312233029
1038.6432219312028 8595.175248515716
1039.5387523404825 8731.415351042382
1040.4340607789582 8667.664611550112
1041.3291473110476 8795.300806252262
1042.2240120011465 8883.026870181659
1043.1186549136273 9042.735464452147
1044.0130761128294 8935.943006075682
1044.9072756630649 9081.223724492922
1045.8012536286205 9279.11944885894
1046.6950100737577 9130.311320857852
1047.588545062701 9289.674088533862
1048.481858659663 9257.246319432586
1049.3749509288118 9325.380684997303
1050.2678219343034 9188.473483603291
1051.1604717402515 9097.935654893867
1052.0529004107575 9044.65030310253
1052.9451080098825 9223.241598849094
1053.8370946016694 9076.275377614405
1054.7288602501267 9043.420337959478
1055.6204050192446 8975.63825505733
1056.511728972977 9019.860099516414
1057.402832175254 8930.445539734155
1058.2937146899785 8801.531977029874
1059.1843765810263 8709.030622651702
1060.0748179122456 8875.416854045156
1060.9650387474576 8710.362488827548
1061.855039150456 8635.392847813895
1062.7448191850071 8624.009910042765
1063.6343789148505 8505.365622822123
1064.5237184037014 8536.150731218902
1065.412837715241 8482.23433749306
1066.3017369131267 8400.278859593194
1067.190416060992 8444.810530062678
1068.0788752224398 8261.00550908798
1068.9671144610438 8368.995702343398
1069.8551338403558 8342.371279567093
1070.7429334239023 8407.335559646115
1071.6305132751695 8256.584102706958
1072.517873457633 8328.106786445516
1073.4050140347335 8189.000358255829
1074.2919350698776 8167.8734725261065
1075.1786366264623 8118.336031998633
1076.0651187678395 8184.837420180663
1076.95138155735 8068.0918589243465
1077.8374250582929 8015.603991154729
1078.7232493339507 8045.778927120128
1079.608854447577 8056.767839005597
1080.4942404623907 7945.286934706518
1081.3794074415982 8054.337281679867
1082.2643554483657 7968.304742693312
1083.149084545841 7985.506791464471
1084.033594797138 7878.222933151439
1084.9178862653516 7877.246307780309
1085.8019590135427 7967.448309511249
1086.6858131047484 7834.818115563108
1087.5694486019802 7908.864113117814
1088.4528655682225 7849.08991295037
1089.3360640664287 7952.773608891823
1090.2190441595321 7882.428166448835
1091.1018059104317 7921.54166539059
1091.98434938201 7874.095374525286
1092.866674637111 7899.032250948301
1093.748781738559 7905.178130684556
1094.6306707491512 7774.786887572385
1095.5123417316554 7883.989476531833
1096.3937947488157 7889.189166463011
1097.2750298633455 7762.968852828148
1098.156047137938 7749.424024037971
1099.0368466352556 7909.4313485754665
1099.9174284179317 7848.680200748584
1100.7977925485757 7812.743270414992
1101.6779390897755 7714.914088541145
1102.5578681040806 7814.57805316465
1103.4375796540226 7823.212655855556
1104.3170738021054 7813.80652966894
1105.1963506108077 7643.413930337962
1106.0754101425773 7727.053953136126
1106.9542524598382 7748.004741927105
1107.8328776249855 7723.694992359868
1108.7112857003904 7712.136313407003
1109.5894767483987 7760.364001725386
1110.4674508313292 7816.778246379794
1111.3452080114657 7854.129314098303
1112.2227483510815 7912.295302553699
1113.1000719124077 7941.412037841651
1113.9771787576592 8000.304547233008
1114.854068949022 7975.515278580164
1115.7307425486542 8121.9967506716275
1116.6071996186893 8179.01149237801
1117.483440221229 8325.46401418065
1118.3594644183577 8283.810838808186
1119.235272272128 8362.042062095614
1120.1108638445658 8612.361184801648
1120.9862391976712 8782.214923030926
1121.8613983934229 8703.02080054792
1122.7363414937627 8734.376820952542
1123.6110685606182 8927.394847848325
1124.485579655884 9007.088051789651
1125.359874841426 9010.288290938624
1126.2339541790916 8987.151344775448
1127.1078177306936 9325.487275693591
1127.9814655580267 9138.178619960758
1128.854897722851 9144.980387479936
1129.7281142869106 9245.46996836396
1130.6011153119125 9252.444851438839
1131.473900859548 9261.58673678025
1132.3464709914697 9092.999052801682
1133.2188257693178 9055.623599564573
1134.0909652546961 9074.93572699811
1134.96288950919 8913.557661059385
1135.8345985943506 9002.995037113447
1136.7060925717087 8803.033945459012
1137.57737150277 8867.892370516332
1138.4484354490069 8723.634244082677
1139.3192844718778 8587.988682404326
1140.1899186327992 8408.626476755886
1141.060337993178 8470.280347807196
1141.930542614382 8319.56282203654
1142.8005325577597 8367.02948809967
1143.670307884635 7991.468683409837
1144.5398686563003 8235.600372164019
1145.409214934025 8042.560808587963
1146.2783467790541 7817.9826876065
1147.1472642526023 7783.055285245512
1148.0159674158622 7803.785353751834
1148.8844563300026 7751.066919949442
1149.7527310561618 7668.185886211919
1150.6207916554504 7604.5488017539365
1151.4886381889592 7514.887763109224
1152.3562707177498 7612.315982445293
1153.2236893028585 7456.6711953510285
1154.090894005296 7446.386781580816
1154.9578848860474 7440.89234068322
1155.8246620060709 7414.37205407704
1156.6912254262988 7422.592489549608
1157.5575752076438 7262.422024050468
1158.42371141098 7460.881070571811
1159.2896340971656 7442.646307898385
1160.1553433270346 7329.727108919955
1161.0208391613887 7363.239178400128
1161.8861216610057 7471.913369295883
1162.75119088664 7308.837037861257
1163.6160468990201 7224.996110281367
1164.4806897588442 7190.146222223299
1165.3451195267917 7286.517481549604
1166.2093362635114 7350.676419576393
1167.0733400296285 7215.087279265643
1167.9371308857444 7206.196088487735
1168.8007088924278 7110.646550452038
1169.6640741102328 7382.354908904349
1170.5272265996773 7249.037555371555
1171.390166421259 6973.870731927015
1172.252893635452 7300.489612625662
1173.1154083026995 7253.556627427948
1173.977710483421 7246.54452787202
1174.8398002380145 7216.609371027822
1175.7016776268483 7222.56632462111
1176.563342710264 7273.123741469726
1177.4247955485826 7160.1446845398195
1178.2860362020947 7259.182327211837
1179.147064731069 7211.412155326767
1180.0078811957483 7202.806589140857
1180.8684856563486 7238.68015366621
1181.7288781730604 7333.146674815294
1182.589058806052 7383.56363035282
1183.4490276154593 7429.220353598615
1184.3087846614017 7385.905278762635
1185.1683300039676 7308.474423638741
1186.027663703222 7570.485371133853
1186.8867858192025 7410.6660311545465
1187.7456964119228 7549.276989925408
1188.6043955413716 7496.477155360512
1189.4628832675116 7638.882587056605
1190.3211596502842 7614.064395965851
1191.179224749596 7693.826354894346
1192.0370786253388 7671.784610287071
1192.8947213373758 7832.233559686339
1193.7521529455407 7973.593260494263
1194.6093735096438 7739.173207256342
1195.466383089477 7775.9090402650745
1196.3231817447977 7995.242909092056
1197.1797695353398 7892.039736277153
1198.0361465208189 7834.346679538156
1198.8923127609214 7781.86421176468
1199.7482683153048 7822.06636258149
1200.6040132436028 7938.200503842153
1201.459547605431 7873.353555770424
1202.3148714603722 7630.690201393106
1203.1699848679855 7774.615470690413
1204.0248878878065 7834.09342154494
1204.8795805793507 7707.482100749417
1205.7340630020935 7761.209378714603
1206.5883352155033 7726.837301406949
1207.4423972790064 7660.01562244434
1208.2962492520237 7538.531669605839
1209.1498911939307 7601.885734678806
1210.0033231640937 7665.0263476492255
1210.8565452218427 7473.022845443442
1211.7095574264913 7513.59579774547
1212.5623598373222 7342.422465831757
1213.4149525135963 7373.535721427496
1214.2673355145507 7277.358177595075
1215.1195088993936 7268.675137172164
1215.9714727273113 7244.984380418117
1216.8232270574663 7284.4172322592685
1217.6747719489904 7149.388521561904
1218.5261074609934 7108.48092976455
1219.3772336525653 7138.957575012767
1220.2281505827668 7206.758994986803
1221.0788583106296 7237.537116273395
1221.9293568951707 7085.453625299713
1222.7796463953746 6992.089393962128
1223.629726870202 7039.352542660233
1224.4795983785934 7199.485895356627
1225.3292609794553 7060.11093829488
1226.1787147316809 6967.9214838034895
1227.0279596941327 7090.703461458608
1227.8769959256424 7104.904990568504
1228.7258234850306 7004.6271081397235
1229.5744424310833 6941.965365238383
1230.422852822563 6994.450731487564
1231.2710547182105 7181.37042121391
1232.119048176739 7030.133542068163
1232.9668332568417 6846.868079875184
1233.8144100171812 7079.761608217584
1234.6617785163999 7050.6478305129
1235.508938813111 6829.156757375609
1236.3558909659114 6917.868047209437
1237.2026350333617 7111.780975926575
1238.049171074008 7094.309051267029
1238.8954991463652 6852.922512766521
1239.741619308932 6798.149794476651
1240.587531620169 7041.131909794474
1241.4332361385277 6926.087843127604
1242.2787329224248 6810.358854384479
1243.1240220302534 6816.633208127098
1243.9691035203869 6739.639903757408
1244.813977451171 6868.750045212342
1245.6586438809263 6845.16419891219
1246.5031028679496 6606.24919451439
1247.3473544705157 6803.667247591274
1248.1913987468706 6762.848914352995
1249.0352357552383 6621.587564660907
1249.8788655538228 6703.988065569234
1250.7222882007918 6734.4914275961155
1251.565503754302 6738.077370012019
1252.4085122724755 6770.03181252721
1253.2513138134182 6737.6217390526435
1254.0939084352049 6663.1143142433375
1254.9362961958905 6755.935409116793
1255.7784771535007 6694.449855930378
1256.6204513660432 6764.525492993989
1257.4622188915 6933.492264133961
1258.3037797878242 6772.239004852277
1259.1451341129468 6746.102347678085
1259.9862819247755 6767.451794083968
1260.8272232811978 6653.939150985349
1261.6679582400666 6865.781810512967
1262.5084868592203 6587.893624992292
1263.34880919647 6594.607177908443
1264.1889253095997 6735.671042709786
1265.0288352563712 6651.617696641971
1265.8685390945266 6647.113844914211
1266.7080368817751 6642.40979816409
1267.5473286758115 6794.259365201307
1268.386414534294 6675.837848786519
1269.2252945148703 6463.969717874326
1270.0639686751547 6561.56365206013
1270.9024370727402 6605.012305907256
1271.7406997651997 6470.481800989812
1272.5787568100714 6495.617211794168
1273.4166082648808 6558.830297249001
1274.2542541871244 6617.289490230808
1275.091694634275 6575.412556623933
1275.9289296637817 6434.1598219178795
1276.7659593330663 6504.61817436293
1277.6027836995308 6566.109419066204
1278.4394028205552 6538.332351401628
1279.2758167534867 6437.586538168795
1280.112025555658 6387.8845662863705
1280.9480292843746 6511.246276412382
1281.7838279969128 6449.22201447645
1282.6194217505326 6437.6349325882475
1283.4548106024686 6298.529185317193
1284.289994609926 6454.860466673896
1285.1249738300921 6500.886904654316
1285.959748320127 6365.076656145822
1286.7943181371702 6366.376556103808
1287.6286833383328 6485.120000839353
1288.4628439807038 6483.247088786105
1289.2968001213521 6359.858513934804
1290.1305518173194 6458.319417269622
1290.9640991256183 6389.973122369816
1291.7974421032523 6339.5761759374955
1292.630580807183 6390.302661042317
1293.463515294361 6490.764676206235
1294.29624562171 6442.064581495462
1295.12877184613 6320.271768770875
1295.961094024493 6418.403143418815
1296.79321221365 6458.890778579926
1297.6251264704333 6545.941218174382
1298.4568368516466 6637.098864078682
1299.2883434140658 6529.773245560541
1300.1196462144526 6424.251691654523
1300.9507453095375 6529.54893811792
1301.7816407560313 6521.8093893898795
1302.6123326106172 6498.67368629023
1303.4428209299622 6324.1798489542425
1304.2731057707024 6578.862442497388
1305.1031871894502 6337.727734164668
1305.933065242798 6516.414258322841
1306.7627399873181 6470.470925685728
1307.5922114795467 6635.387138757983
1308.4214797760123 6635.269568735561
1309.2505449332057 6468.136240485376
1310.0794070076026 6527.7052453102315
1310.9080660556538 6684.546422852918
1311.736522133786 6629.501997901389
1312.5647752983987 6522.933436807856
1313.3928256058734 6502.083857002894
1314.2206731125661 6661.826924937026
1315.048317874809 6606.171396112021
1315.8757599489109 6557.51639165027
1316.7029993911547 6593.551958375583
1317.5300362578055 6708.442629565924
1318.356870605101 6530.071450169843
1319.183502489257 6481.972033500302
1320.0099319664623 6714.735281785722
1320.836159092889 6687.279604827498
1321.66218392468 6650.849912389649
1322.4880065179532 6578.558666739128
1323.3136269288134 6570.288359654784
1324.1390452133292 6725.787168322895
1324.9642614275563 6719.91147464691
1325.7892756275214 6696.200923740887
1326.6140878692295 6562.281245726619
1327.4386982086617 6941.059362697725
1328.2631067017755 6744.9000393594815
1329.0873134045069 6695.238269165646
1329.911318372764 6638.487040522543
1330.735121662441 6710.253961778102
1331.558723329399 6699.376628636984
1332.3821234294774 6670.294265424057
1333.2053220185007 6616.413987130269
1334.0283191522612 6676.786180853014
1334.851114886529 6700.808849539788
1335.6737092770582 6668.968089127635
1336.4961023795695 6691.699532349145
1337.3182942497697 6727.513206194152
1338.1402849433325 6789.2916057231605
1338.962074515921 6539.280136814639
1339.7836630231632 6570.954780352253
1340.6050505206676 6870.99105824689
1341.426237064028 6852.049682116927
1342.2472227088037 6947.779725091571
1343.0680075105338 6668.865715639959
1343.888591524741 6610.415482954207
1344.7089748069138 6871.316220550541
1345.5291574125276 6696.831170304025
1346.3491393970307 6611.770961449732
1347.168920815846 6764.240038226579
1347.9885017243778 6773.024054299654
1348.8078821780036 6805.132399949039
1349.6270622320844 6751.365073005194
1350.4460419419447 6848.382627955226
1351.2648213629054 6839.734287112946
1352.0834005502438 6622.035549301717
1352.90177955923 6787.484291839409
1353.7199584451064 7012.791194620816
1354.5379372630887 6857.238409344932
1355.355716068374 6788.439284996149
1356.1732949161305 6720.28361239145
1356.9906738615155 6781.069900663433
1357.8078529596478 6879.938910989838
1358.6248322656375 6816.571625133994
1359.441611834567 6608.850935522985
1360.2581917214866 6893.962087369388
1361.0745719814367 6615.068057751081
1361.890752669433 6639.534628375806
1362.7067338404577 6701.9036912949405
1363.5225155494845 6746.814524859808
1364.3380978514506 6798.995689751665
1365.1534808012839 6516.389607655308
1365.9686644538815 6446.887402655508
1366.783648864117 6682.686251812353
1367.5984340868417 6751.7217779869225
1368.413020176893 6565.507782201341
1369.2274071890715 6385.666191896464
1370.0415951781652 6646.753729431306
1370.8555841989346 6495.4006704426065
1371.6693743061223 6469.648079919725
1372.48296555444 6401.595881248851
1373.2963579985844 6593.196815078086
1374.1095516932255 6460.466385531283
1374.9225466930166 6419.805461908236
1375.7353430525782 6395.68941502489
1376.5479408265164 6381.752693584217
1377.36034006941 6493.891714339872
1378.1725408358216 6409.040516199882
1378.9845431802805 6249.257389065229
1379.796347157304 6559.005247662991
1380.6079528213813 6529.196519932377
1381.4193602269788 6309.191373764764
1382.230569428546 6331.688007717186
1383.0415804805016 6515.622964483837
1383.852393437246 6497.457143284336
1384.6630083531563 6442.233202114867
1385.4734252825892 6329.948216000064
1386.2836442798798 6457.736517130712
1387.0936653993322 6363.977205943342
1387.9034886952395 6283.449087132618
1388.713114221864 6371.20167713472
1389.5225420334482 6322.115705988136
1390.331772184214 6234.599207656924
1391.1408047283585 6201.362303564897
1391.9496397200564 6069.277767984495
1392.758277213461 6301.237498043022
1393.5667172627054 6215.85661313537
1394.3749599218918 6086.002530816166
1395.1830052451114 5914.874317775741
1395.9908532864265 6180.768601083564
1396.7985040998774 6203.496318008992
1397.6059577394808 5939.04967084744
1398.4132142592352 6070.494262733936
1399.2202737131156 5850.904808555124
1400.027136155073 6005.013421438034
1400.8338016390353 5948.384269595438
1401.6402702189134 5859.704034350406
1402.446541948586 5832.282652124439
1403.2526168819204 5770.167916631007
1404.058495072757 5796.535010897159
1404.8641765749107 5780.381082653113
1405.6696614421799 5797.069763570493
1406.4749497283356 5929.872666258468
1407.280041487129 5672.79487294456
1408.084936772295 5543.897509876648
1408.8896356375335 5737.059827770149
1409.6941381365323 5671.187592945068
1410.498444322955 5499.525791718163
1411.3025542504402 5637.278036360186
1412.106467972606 5623.4681566204
1412.9101855430508 5584.514169519928
1413.7137070153458 5427.4053758104665
1414.5170324430437 5446.610345459176
1415.320161879672 5477.340405894005
1416.1230953787435 5629.80413337788
1416.925832993742 5405.467263032455
1417.7283747781275 5257.808916087024
1418.5307207853439 5584.555747644449
1419.3328710688093 5574.33019994053
1420.134825681922 5288.988299102402
1420.9365846780584 5237.777498328754
1421.7381481105713 5570.623110863497
1422.539516032788 5413.595799679331
1423.3406884980232 5242.610743725802
1424.1416655595604 5157.132421759813
1424.942447270665 5208.022168266534
1425.7430336845828 5363.8466389811965
1426.5434248545298 5049.780156144076
1427.3436208337116 5313.991323669608
1428.143621675301 5356.531883894841
1428.9434274324558 5361.018950497569
1429.7430381583108 5064.409283274078
1430.5424539059713 5117.465710665749
1431.3416747285337 5473.0033334435775
1432.1407006790632 5300.026480648152
1432.9395318106053 5220.153440002403
1433.7381681761835 5173.879525480535
1434.5366098288014 5152.201888659851
1435.3348568214424 5210.522533617066
1436.1329092070573 5075.412383119614
1436.9307670385879 5119.913189439138
1437.7284303689503 5319.121562671184
1438.5258992510335 5395.149541965595
1439.3231737377118 5179.736857086451
1440.1202538818306 5090.222597751907
1440.9171397362225 5237.939545414514
1441.7138313536925 5136.723875412559
1442.5103287870243 5003.460454886934
1443.3066320889775 5085.652737363571
1444.1027413122956 5292.5154119084145
1444.8986565096966 5104.394213311267
1445.694377733882 5066.82293490874
1446.4899050375207 5031.785492478031
1447.2852384732687 4956.814946318728
1448.0803780937622 5274.8278796948625
1448.8753239516063 5029.877263771292
1449.6700760993954 4940.20185678232
1450.464634589689 4922.764736044992
1451.2589994750397 5254.893523125037
1452.0531708079689 4967.636308677159
1452.8471486409799 4938.94852054289
1453.6409330265524 5143.422632898576
1454.4345240171442 4978.345580334661
1455.2279216651987 5136.2290743979665
1456.0211260231263 4943.72456085261
1456.8141371433194 4997.66903823095
1457.6069550781594 5044.219188134212
1458.3995798799897 4954.054183230028
1459.1920116011424 4986.8229280715195
1459.98425029393 4883.1564692163065
1460.7762960106338 4874.592096732064
1461.5681488035225 4897.922833301554
1462.3598087248392 4899.051686764564
1463.1512758268036 5044.533036582955
1463.942550161617 4980.904245487603
1464.7336317814625 4785.937231662998
1465.524520738496 4851.582339676106
1466.3152170848552 4868.266851200233
1467.1057208726506 4997.154084402693
1467.8960321539817 4851.287672218359
1468.6861509809169 4711.5004666083305
1469.4760774055085 4827.753332538869
1470.265811479785 5013.574568374878
1471.055353255755 4682.463716858672
1471.844702785409 4809.404270732373
1472.6338601207044 4744.6518700729675
1473.4228253135934 5378.888965730241
1474.2115984159936 4821.010398747012
1475.0001794798063 4607.688850798598
1475.7885685569145 4851.775204236389
1476.576765699172 4853.4715619894505
1477.3647709584238 4821.119014712864
1478.1525843864802 4940.650929085863
1478.9402060351367 4951.676620233329
1479.7276359561693 4948.86443059213
1480.514874201328 4827.132811162137
1481.3019208223468 4716.249432728078
1482.0887758709323 4816.653574113253
1482.8754393987747 4887.539545095878
1483.6619114575406 4720.799942610614
1484.4481920988783 4901.93210478674
1485.2342813744108 4986.901217130412
1486.0201793357446 4951.862377317089
1486.8058860344572 4859.437089949254
1487.591401522117 4747.456487996923
1488.3767258502594 4862.746332629699
1489.1618590704056 4793.5365259915825
1489.9468012340494 4672.562878163601
1490.7315523926754 4802.949993309292
1491.5161125977356 4881.672498931889
1492.3004819006637 4854.401180645213
1493.084660352877 4751.317028401119
1493.8686480057622 4770.847129523729
1494.6524449106964 5002.710522857411
1495.4360511190262 5062.89934506375
1496.219466682087 4709.276246660017
1497.0026916511779 4909.188900490627
1497.7857260775945 4864.180186229821
1498.5685700125996 4730.563816215216
1499.3512235074395 4814.70592717334
1500.133686613337 4740.256297605461
1500.9159593814966 4736.528863976438
1501.698041863101 5139.533755834608
1502.4799341093094 4617.336422002367
1503.2616361712662 4741.428483621833
1504.043148100087 4838.370519828968
1504.8244699468742 4939.367719149102
1505.6056017626997 4791.5893690849325
1506.3865435986281 4564.24352807215
1507.1672955056893 4914.609655223998
1507.9478575348967 4577.931586893829
1508.7282297372512 4894.690014943837
1509.5084121637192 4727.190334377045
1510.2884048652577 4794.123313226781
1511.0682078927948 4683.074989892704
1511.8478212972423 4624.735372562634
1512.6272451294917 4559.705408532526
1513.4064794404076 4756.538533163109
1514.1855242808433 4676.036068284053
1514.9643797016215 4686.409697308803
1515.743045753552 4732.613400216899
1516.5215224874191 4749.743916773882
1517.2998099539836 4559.529785238827
1518.077908203999 4700.7855715707865
1518.8558172881785 4690.812787205348
1519.633537257234 4781.172081486278
1520.4110681618404 4663.215835177038
1521.1884100526604 4782.247689677397
1521.9655629803365 4789.701511678436
1522.7425269954856 4862.623163039609
1523.5193021487103 4788.060545492097
1524.2958884905856 4571.770066121465
1525.0722860716687 4672.652090859639
1525.848494942502 4745.994295870126
1526.624515153595 4703.923179856905
1527.4003467554485 4763.74053815907
1528.175989798534 4816.231554925451
1528.9514443333064 4740.774797535995
1529.726710410203 4976.6952970653565
1530.5017880796331 4697.8308161506375
1531.276677391992 4774.842587135463
1532.0513783976457 4922.803504756358
1532.825891146953 4695.528112489841
1533.6002156902414 4832.278565818597
1534.3743520778207 4764.59200732547
1535.1483003599806 4660.3682644748105
1535.9220605869923 4774.54144622408
1536.6956328091019 4823.4420741333615
1537.4690170765407 4805.164917131739
1538.242213439511 4870.849395638076
1539.015221948208 4824.545944926851
1539.78804265279 4714.942329012635
1540.560675603405 4641.821166789031
1541.3331208501804 5025.001010350812
1542.1053784432224 5033.743740058218
1542.8774484326168 4860.949440204278
1543.649330868422 4862.268012755688
1544.4210258006842 4909.683632945879
1545.1925332794308 4760.669321740383
1545.9638533546604 4832.211961313083
1546.7349860763552 4701.674442506893
1547.5059314944829 4988.602815865601
1548.27668965898 4800.374691802794
1549.0472606197673 4932.883240035182
1549.817644426752 4709.270726819044
1550.5878411298072 4922.31185917078
1551.3578507787988 4912.462792419176
1552.1276734235635 4772.288255947264
1552.8973091139233 4885.029578720949
1553.6667578996767 4888.29803533583
1554.436019830604 4934.462767003432
1555.20509495646 4983.129978266103
1555.9739833269869 4697.90695142377
1556.7426849919011 4693.429550195726
1557.511200000903 5077.925467831372
1558.2795284036674 4917.825344842803
1559.0476702498509 4930.37047783912
1559.8156255890954 4975.896129153905
1560.5833944710157 5113.676989260044
1561.3509769452048 4816.921216108798
1562.1183730612447 4700.020857159284
1562.8855828686865 4877.270597960944
1563.6526064170703 5087.071277586791
1564.4194437559127 5038.786170670754
1565.1860949347047 4777.410259160196
1565.9525600029283 5039.981668079698
1566.7188390100328 5009.4459348529745
1567.4849320054564 4764.15720022417
1568.250839038612 4796.828200672912
1569.0165601588997 4838.229978529466
1569.7820954156887 4963.473508087432
1570.5474448583373 4700.02678580248
1571.31260853618 4765.133759668816
1572.0775864985299 4671.401772198393
1572.8423787946813 4770.719009114446
1573.6069854739108 4708.716342609899
1574.371406585471 4885.5416042729785
1575.1356421785986 4891.490901579111
1575.899692302506 4848.241142012802
1576.6635570063845 4791.189862200835
1577.4272363394157 4724.061884903813
1578.190730350747 4768.586976437109
1578.9540390895163 4752.255943718145
1579.7171626048384 4586.815984441457
1580.480100945806 4584.641413196682
1581.2428541614918 4720.109831372475
1582.0054223009538 4701.254853611129
1582.767805413223 4771.210590027287
1583.5300035473156 4661.701827687934
1584.292016752228 4789.651624092381
1585.0538450769309 4725.155056116679
1585.8154885703807 4706.969773485166
1586.5769472815136 4564.963602245693
1587.3382212592405 4745.339219908297
1588.099310552463 4865.703537412014
1588.8602152100484 4423.239735666906
1589.6209352808564 4758.401409713425
1590.3814708137234 4837.112456968754
1591.14182185746 4380.670943884807
1591.9019884608679 4628.295192850152
1592.6619706727215 4546.339348954174
1593.4217685417734 4678.354182588062
1594.1813821167616 4832.2336665129
1594.9408114464022 4564.747692353663
1595.7000565793933 4697.562000769514
1596.459117564409 4751.956557648896
1597.2179944501113 4604.245583243926
1597.9766872851324 4654.216286386887
1598.735196118092 4673.350786750567
1599.4935209975883 4848.395796281326
1600.2516619721973 4939.15377372895
1601.0096190904787 4620.997738790005
1601.7673924009723 4704.0727472178705
1602.524981952196 4605.855628296281
1603.2823877926476 4531.92685604195
1604.0396099708087 4590.093368258915
1604.7966485351371 4538.186193234841
1605.5535035340745 4621.954568654821
1606.3101750160404 4764.341706920539
1607.0666630294363 4620.471938226507
1607.822967622642 4297.337082780976
1608.5790888440224 4617.811034551012
1609.3350267419137 4634.251641000354
1610.0907813646445 4481.228086288684
1610.8463527605145 4637.588048951418
1611.601740977805 4605.761602356219
1612.356946064785 4619.295875559924
1613.1119680696902 4403.762116436587
1613.8668070407512 4533.169947958098
1614.6214630261748 4554.165238417672
1615.375936074137 4458.536013849082
1616.1302262328118 4689.399155209008
1616.8843335503425 4405.043163516308
1617.638258074854 4413.6189281182005
1618.391999854457 4526.131664895982
1619.1455589372363 4620.621986061246
1619.8989353712623 4611.970355129106
1620.65212920458 4284.622725014179
1621.4051404852235 4442.209365062749
1622.1579692611976 4387.389235703924
1622.9106155804966 4342.51338168753
1623.663079491087 4450.991369164859
1624.4153610409248 4333.302217090218
1625.1674602779385 4375.006285845091
1625.9193772500403 4265.187253509147
1626.6711120051277 4616.841442195635
1627.4226645910676 4362.527706373441
1628.174035055721 4141.8585262775305
1628.9252234469168 4269.638955398205
1629.676229812474 4227.760665723476
1630.4270542001905 4531.2367444817
1631.1776966578382 4247.193831782831
1631.9281572331747 4317.734073113869
1632.678435973945 4307.068703282128
1633.4285329278573 4336.7289729108725
1634.1784481426203 4140.496020512479
1634.9281816659113 4257.403169552863
1635.677733545388 4387.405947666953
1636.4271038286934 4222.799902422031
1637.176292563452 4255.398578724174
1637.9252997972635 4321.741331493302
1638.674125577716 4400.09078266812
1639.4227699523672 4580.232192216067
1640.171232968767 4190.015884367394
1640.9195146744423 4339.065740941716
1641.6676151168977 4350.9902136477085
1642.4155343436178 4381.260106971242
1643.1632724020765 4416.012874229579
1643.9108293397167 4303.671887042035
1644.658205203974 4247.185607837368
1645.4054000422566 4721.696556633763
1646.1524139019566 4334.8488503114595
1646.8992468304423 4283.4403540339445
1647.6458988750728 4228.469366403215
1648.3923700831765 4297.835988666802
1649.1386605020743 4364.053209001909
1649.8847701790564 4463.168954255771
1650.6306991614038 4283.395514330767
1651.3764474963682 4467.143393376343
1652.1220152311944 4246.99947132988
1652.867402413096 4252.076429036026
1653.6126090892776 4179.624354309401
1654.3576353069184 4449.580318616898
1655.1024811131829 4207.066684168307
1655.8471465552066 4330.295927065642
1656.5916316801213 4411.4954992006315
1657.3359365350298 4294.371299303055
1658.0800611670165 4252.0085206186395
1658.824005623148 4179.775511090723
1659.5677699504722 4169.877978635295
1660.3113541960192 4263.138674091672
1661.054758406799 4349.647552600291
1661.7979826297997 4050.380061667559
1662.5410269119966 4002.857153093543
1663.283891300338 4265.087521829432
1664.0265758417645 4004.2003947308103
1664.7690805831826 4154.9867196493815
1665.5114055714948 4340.505812839732
1666.2535508535748 4385.9514715985015
1666.9955164762814 3879.223071019678
1667.7373024864555 3957.7125818423433
1668.478908930916 4177.942012728248
1669.220335856462 3817.9833268974617
1669.9615833098778 3955.502809690516
1670.7026513379296 3840.6697689558596
1671.44353998736 4035.2402529529572
1672.1842493048916 3984.581034477088
1672.9247793372379 3818.6858793005968
1673.6651301310812 3912.4633813181827
1674.4053017330934 3794.7545931525974
1675.1452941899242 3882.8680273603823
1675.885107548207 3620.0940809519934
1676.6247418545518 3716.923769958418
1677.3641971555535 3787.308340381348
1678.1034734977893 3767.9069134602796
1678.8425709278108 3766.138135892351
1679.5814894921605 3831.635648286855
1680.320229237359 3650.327532958477
1681.0587902098978 3807.508895808508
1681.7971724562685 3723.5521886422903
1682.5353760229264 3652.372932584628
1683.2734009563173 3628.669924191273
1684.0112473028657 3497.452861614444
1684.7489151089794 3636.1178990494495
1685.4864044210462 3739.6664064633414
1686.2237152854377 3353.433290531227
1686.960847748498 3624.3877648811986
1687.6978018565642 3449.255938671938
1688.434577655944 3350.8066176966813
1689.1711751929379 3414.0428516293855
1689.9075945138156 3523.9137361263156
1690.6438356648396 3363.664663848809
1691.3798986922448 3205.2192631891176
1692.1157836422499 3297.478333222699
1692.851490561059 3246.155861600626
1693.587019494853 3278.332361475751
1694.3223704897991 3091.47424544598
1695.0575435920364 3150.148302439647
1695.792538847696 3459.9231111237814
1696.527356302886 3289.1839110994697
1697.2619960036936 3113.8556576411747
1697.9964579961907 3198.738732689814
1698.730742326432 2806.004155056792
1699.4648490404488 2889.4841622688696
1700.1987781842563 2984.1016721496912
1700.9325298038548 3262.109616689214
1701.6661039452174 3219.317255864193
1702.3995006543082 3155.2981814555706
1703.1327199770658 3176.4972481169725
1703.865761959416 2649.7301216222236
1704.598626647261 3282.698965943718
1705.3313140864866 2862.964384697364
1706.0638243229587 3059.1526003041245
1706.7961574025303 3158.421748891954
1707.528313371029 2980.3891742356254
1708.260292274268 2880.9549347675156
1708.9920941580403 2988.1148716489374
1709.7237190681226 2962.0896073045797
1710.4551670502697 2968.38712767662
1711.18643815022 2670.213875917116
1711.9175324136959 3081.4168630294103
1712.6484498863938 2906.038652840377
1713.379190614005 2772.1422607805994
1714.109754642188 2967.847264994032
1714.8401420165883 2758.4605254039716
1715.570352782839 2710.2619916476315
1716.3003869865497 2919.5820230819527
1717.0302446733076 2750.93537103838
1717.7599258886876 2713.1638061509293
1718.4894306782444 3001.362460963809
1719.2187590875183 2788.1154359117727
1719.9479111620203 2938.4925180494297
1720.6768869472544 2780.138790508563
1721.4056864887025 3049.08371306339
1722.1343098318284 3037.483289971124
1722.8627570220742 2865.3606715535852
1723.591028104871 2724.439603133257
1724.3191231256242 2647.05857996122
1725.0470421297232 2744.598770892271
1725.7747851625427 2861.6489143717736
1726.5023522694337 2826.5322273956854
1727.2297434957363 2891.364547349912
1727.9569588867635 2603.390536919581
1728.6839984878152 2873.1392548852823
1729.4108623441734 2431.0598697367527
1730.1375505011038 2812.367575292952
1730.8640630038426 2699.6946053587826
1731.5903998976264 2649.2306301890085
1732.316561227657 2781.4558626617113
1733.0425470391274 2632.2993598749567
1733.7683573772065 2786.457290684236
1734.4939922870508 2590.012135768674
1735.2194518137949 2675.213216579027
1735.9447360025606 2739.142667570943
1736.669844898439 2639.1175112478622
1737.3947785465189 2614.98735869529
1738.1195369918605 2459.223804220691
1738.8441202795093 2546.8121439188662
1739.5685284544943 2677.1688365324985
1740.292761561821 2802.1825824032508
1741.0168196464838 2770.9866403728606
1741.7407027534518 2607.1214627658633
1742.464410927687 2612.532712673638
1743.187944214118 2685.5445974045424
1743.9113026576688 2550.722462598223
1744.634486303241 2625.6387577026444
1745.3574951957125 2483.227387510279
1746.0803293799509 2648.613204185573
1746.8029889008048 2437.7089885143187
1747.5254738031017 2848.0602740966474
1748.2477841316504 2488.0948000951066
1748.969919931249 2547.0064201834175
1749.6918812466665 2407.235212541481
1750.4136681226646 2796.027485464524
1751.1352806039777 2670.9971135765663
1751.856718735331 2465.870999137386
1752.5779825614281 2528.3695479536373
1753.2990721269507 2628.4202681300653
1754.0199874765676 2749.7455866898695
1754.7407286549314 2526.8159216746885
1755.4612957066693 2525.618725777334
1756.1816886763954 2542.936038414461
1756.9019076087097 2639.723544337649
1757.6219525481865 2703.502897350135
1758.3418235393856 2643.3806242149667
1759.061520626854 2683.191885937068
1759.7810438551096 2613.9530064768683
1760.5003932686614 2452.8655120317626
1761.2195689119999 2703.3646334343475
1761.938570829594 2339.838527997164
1762.657399065898 2631.5917008409588
1763.376053665348 2418.7654173563105
1764.0945346723602 2381.1489408526522
1764.812842131334 2752.7385123822783
1765.5309760866512 2476.3353805580955
1766.2489365826787 2435.227613062205
1766.9667236637597 2518.005624857626
1767.684337374223 2264.6843571185855
1768.401777758383 2338.963178342371
1769.1190448605284 2364.4294602281634
1769.836138724937 2459.734907200466
1770.5530593958665 2489.4865206093373
1771.2698069175603 2599.496236847849
1771.9863813342326 2568.224892876694
1772.702782690094 2422.9767825201725
1773.4190110293293 2554.4463902475845
1774.1350663961111 2615.7924757434084
1774.8509488345844 2411.3174282815976
1775.5666583888924 2521.737364165726
1776.2821951031437 2577.8530804999878
1776.9975590214362 2533.2398135969474
1777.7127501878585 2694.236688507378
1778.4277686464684 2497.6272876374505
1779.1426144413108 2769.6726175411413
1779.8572876164162 2572.3304463238283
1780.571788215797 2519.3037096194967
1781.2861162834415 2528.9754040478574
1782.0002718633277 2393.139066505931
1782.7142549994132 2421.278708137789
1783.4280657356376 2653.2912760487584
1784.141704115922 2292.6658707901975
1784.855170184177 2456.0270582462877
1785.5684639842839 2455.4707888428334
1786.2815855601148 2269.6576549979573
1786.9945349555237 2595.7292336717405
1787.707312214343 2387.9581174829364
1788.4199173803918 2518.760953486674
1789.132350497468 2337.729703345817
1789.8446116093583 2497.570810609451
1790.556700759822 2410.0220570858846
1791.2686179926077 2129.5351845971245
1791.9803633514493 2412.168369037806
1792.6919368800554 2288.462617344466
1793.4033386221236 2494.2691464347754
1794.1145686213295 2445.464408731559
1794.8256269213307 2659.960931586679
1795.536513565774 2565.2880124948856
1796.247228598284 2110.4794424755073
1796.9577720624693 2281.7427409868787
1797.6681440019165 2412.2490102391416
1798.3783444602013 2463.1735983813596
1799.0883734808776 2551.137382463199
1799.7982311074884 2507.2945960315456
1800.5079173835475 2272.7370143127673
1801.2174323525633 2470.090692374159
1801.9267760580187 2420.670319601212
1802.635948543386 2457.8380258251973
1803.3449498521113 2357.6997054288736
1804.0537800276325 2441.078841593304
1804.7624391133668 2329.153919633505
1805.47092715271 2179.0044736671543
1806.1792441890484 2281.565035468326
1806.8873902657433 2499.634813744151
1807.5953654261448 2371.8895125778663
1808.3031697135812 2239.011904199234
1809.0108031713662 2312.11367367976
1809.71826584279 2381.107550789334
1810.425557771141 2356.8680878027526
1811.1326789996747 2748.1321335005628
1811.839629571632 2442.936394895236
1812.5464095302468 2295.7236246294483
1813.2530189187182 2503.6566429905333
1813.959457780249 2235.1478644203416
1814.6657261580076 2502.41713472036
1815.371824095153 2203.5973412186167
1816.0777516348262 2393.427284483344
1816.78350882015 2178.8508059902606
1817.4890956942272 2053.647269000182
1818.1945123001533 2279.8864470402577
1818.8997586809928 2398.3933083430215
1819.6048348798067 2344.4407512388657
1820.3097409396287 2158.7690272706595
1821.0144769034796 2459.294581134011
1821.7190428143622 2425.1705869815933
1822.423438715261 2596.543884454006
1823.1276646491478 2361.459926984616
1823.8317206589727 2489.8258803926665
1824.5356067876692 2386.2720541182375
1825.2393230781581 2280.9287784763355
1825.942869573335 2166.2603221722934
1826.646246316086 2194.471025569679
1827.3494533492758 2281.5771186085985
1828.052490715756 2298.9484712023723
1828.7553584583547 2309.653157991373
1829.458056619891 2428.1569730636206
1830.1605852431585 2141.033451391558
1830.8629443709433 2176.364596796176
1831.5651340460063 2354.2234478505457
1832.2671543110919 2266.8394987065453
1832.9690052089318 2151.6712309925533
1833.6706867822395 2091.3885498519307
1834.3721990737104 2457.7182480328015
1835.0735421260233 2450.4917098641376
1835.774715981841 2412.3698014132106
1836.4757206838058 2380.626254649377
1837.1765562745459 2064.3569353088506
1837.8772227966747 2098.6864646010736
1838.5777202927839 2265.7750207516488
1839.2780488054523 2289.8668038933533
1839.9782083772352 2225.398463226355
1840.6781990506806 2469.563203670877
1841.378020868313 2204.603294810842
1842.0776738726418 2258.541090371386
1842.777158106157 2228.1223279532173
1843.4764736113375 2077.2998527046866
1844.1756204306403 2310.3366270922206
1844.8745986065078 2339.130317105617
1845.5734081813607 2114.9385061809935
1846.2720491976124 2046.7571128001673
1846.970521697649 2149.396791766251
1847.6688257238511 2238.5388624234465
1848.3669613185684 2285.8582711934987
1849.0649285241452 2052.5579532870315
1849.7627273829057 2250.0995901910055
1850.460357937156 2404.524563980992
1851.1578202291857 1925.2075037255188
1851.8551143012664 2223.3555746462744
1852.5522401956569 2374.61268566151
1853.2491979545957 2272.360719570431
1853.9459876203055 2270.4138374238228
1854.6426092349902 1993.9771716517284
1855.3390628408451 2121.0135370032895
1856.0353484800362 2344.179619812151
1856.7314661947203 2348.516732068171
1857.4274160270397 2134.3276270173974
1858.123198019115 2096.240643895795
1858.8188122130487 2201.75340668671
1859.5142586509319 2256.316735505112
1860.209537374838 2121.9903110205664
1860.9046484268183 2101.0671717450473
1861.599591848917 2222.45452545469
1862.294367683151 2033.8538770838768
1862.988975971528 2196.1688235926235
1863.6834167560355 2368.261653733159
1864.3776900786452 2285.4885069618413
1865.0717959813119 2151.1930615073748
1865.7657345059724 2157.1030744058653
1866.4595056945564 2268.649130053867
1867.1531095889586 2321.065964939993
1867.846546231076 2122.836486273027
1868.5398156627743 2408.898576663962
1869.2329179259123 2162.358556389051
1869.9258530623283 2436.7062619105423
1870.618621113843 2040.6452697511754
1871.3112221222636 2113.387041446408
1872.0036561293764 2127.3327163766126
1872.695923176956 2251.1203829810697
1873.3880233067594 2251.0463924694923
1874.0799565605212 1987.7782563795015
1874.7717229799673 2206.903493288328
1875.4633226068036 2437.8735032710033
1876.1547554827175 2261.6077199098922
1876.8460216493859 2019.7193521769937
1877.5371211484617 2155.703465843755
1878.2280540215852 2286.5842134499176
1878.9188203103804 1996.275678668197
1879.6094200564548 2200.7127375801438
1880.299853301396 2133.2528070724634
1880.9901200867826 2228.9192288905388
1881.6802204541673 2111.602045191381
1882.3701544450942 2125.5867347050917
1883.059922101087 2266.7162530128726
1883.7495234636517 2339.490230585606
1884.4389585742792 2130.054903668539
1885.1282274744517 2026.3412956976379
1885.8173302056166 2461.9166819283137
1886.506266809225 2138.788645171
1887.195037326701 2013.4599335662388
1887.8836417994517 2325.7896909061183
1888.5720802688702 2468.737081725305
1889.260352776333 2210.1996403916773
1889.9484593632042 2160.860589518813
1890.63640007082 2128.5189774339538
1891.3241749405151 2102.4423000070165
1892.0117840135954 2141.880831540743
1892.6992273313572 2115.817426677546
1893.3865049350788 2093.2923342082076
1894.0736168660223 2412.633917500552
1894.7605631654333 2169.5475492058995
1895.4473438745408 2007.102604354918
1896.133959034556 2372.788741886582
1896.820408686679 2103.5608728561047
1897.506692872088 2186.070522919311
1898.192811631945 2094.2723049998654
1898.8787650073991 2146.120363824529
1899.5645530395832 2229.7594258406225
1900.2501757696118 2233.9749013929345
1900.9356332385796 2055.3811588891917
1901.620925487574 2277.3630701754146
1902.3060525576602 2196.8465738814775
1902.9910144898859 2241.671706398546
1903.6758113252872 1963.9580600046634
1904.3604431048789 2180.870154477124
1905.0449098696663 2255.254589375162
1905.7292116606295 2118.193257496566
1906.4133485187394 2234.6849470992493
1907.0973204849488 1878.7601329681172
1907.7811276001976 2012.5524150876267
1908.4647699053967 2112.661291716092
1909.1482474414588 1908.4360298056793
1909.8315602492694 2049.765584614621
1910.5147083696957 2307.9155204118783
1911.1976918436012 2253.761963959476
1911.880510711815 2100.9448294316708
1912.5631650151681 2150.4009274132795
1913.2456547944657 2112.3226918968603
1913.927980090495 2104.593496545304
1914.6101409440362 2124.541214578974
1915.2921373958416 1913.6568980701245
1915.9739694866603 2138.721352942671
1916.655637257214 2385.4276938818152
1917.3371407482136 2078.0879639535337
1918.0184800003572 2228.7832510313515
1918.6996550543154 2090.4301737477513
1919.3806659507554 2182.7650906967797
1920.0615127303208 2285.3172195934308
1920.7421954336423 2214.206411425818
1921.4227141013343 2356.654651152486
1922.103068773993 2011.1106323176707
1922.783259492202 2116.3831390521905
1923.4632862965227 2049.656757234878
1924.1431492275078 1959.666270918146
1924.8228483256917 1986.1574397069621
1925.5023836315922 2225.428161238267
1926.1817551857057 2241.137718989579
1926.8609630285227 2256.962525896445
1927.5400072005123 2043.8527745356319
1928.218887742125 1878.2005933036544
1928.8976046938005 1886.577021764099
1929.5761580959588 2029.1806597940274
1930.2545479890086 2144.065683689781
1930.9327744133352 1920.0614277166078
1931.6108374093164 2160.3752299766156
1932.2887370173066 2189.311068872821
1932.9664732776473 1793.8731474789333
1933.6440462306673 2130.125634345047
1934.3214559166754 1920.725851770554
1934.9987023759659 2275.684929149385
1935.675785648813 2209.858482476518
1936.3527057754836 1821.519089068909
1937.029462796223 2123.3675271158017
1937.70605675126 2061.9930936538913
1938.3824876808085 1961.5372679400953
1939.058755625072 1910.4192061392805
1939.7348606242267 2005.083083576969
1940.4108027184448 2028.3932163083614
1941.0865819478713 2283.9606874469546
1941.7621983526478 1889.561390611425
1942.4376519728921 1824.670357535461
1943.1129428487038 1942.7403116664123
1943.7880710201734 1958.3194665596754
1944.4630365273733 2183.359693916709
1945.1378394103576 1874.9294794739876
1945.8124797091714 1816.640103629872
1946.4869574638324 1758.1714686219816
1947.161272714353 1938.3154707021015
1947.8354255007234 2044.393179180862
1948.5094158629272 2074.2732576849094
1949.1832438409183 2043.2448947242933
1949.8569094746435 2033.4567011318504
1950.530412804037 2174.8280875325368
1951.2037538690092 2204.8971771744255
1951.8769327094578 1918.4966281517313
1952.5499493652678 2049.366198506394
1953.222803876306 2199.817546908295
1953.895496282421 2065.2571165052177
1954.5680266234522 1985.9003999639226
1955.2403949392155 2083.716263316467
1955.9126012695142 1812.9793952597163
1956.5846456541403 2018.0709414226671
1957.2565281328643 1865.1015046224388
1957.9282487454457 2139.9539803493553
1958.5998075316202 2186.4761954939277
1959.27120453112 2077.5698188854917
1959.9424397836501 1896.0892911376814
1960.613513328908 2055.4224044127654
1961.2844252065697 2074.7273861092417
1961.9551754563017 2093.0216658689596
1962.6257641177453 1843.0651357929812
1963.29619123054 1929.851083706683
1963.966456834296 1873.0361210766291
1964.6365609686181 1774.7405447244826
1965.306503673086 2111.5549950366135
1965.976284987275 2030.90032768
1966.645904950734 1946.1612260814213
1967.315363603002 1839.573086439113
1967.9846609836077 1993.2974238471622
1968.6537971320486 2013.7902630612036
1969.3227720878222 1903.8704263247178
1969.9915858904042 1868.9118914845517
1970.660238579252 1969.331631911639
1971.3287301938108 1953.3086243443795
1971.997060773514 1733.7368130707441
1972.665230357772 1985.1575535728703
1973.3332389859843 1862.8219028854814
1974.0010866975335 1919.849041369609
1974.6687735317864 2112.963110394096
1975.3362995280932 2097.9228206518646
1976.003664725793 2011.2238192437176
1976.6708691642052 1664.714749738158
1977.3379128826364 1931.5223135559922
1978.004795920373 2051.1891097520192
1978.6715183166925 1927.8339241600727
1979.3380801108524 1804.3319773053797
1980.0044813420973 2084.6820580440426
1980.6707220496555 1810.5873745212764
1981.3368022727373 1886.8225651579596
1982.0027220505417 2091.2809321384443
1982.66848142225 1607.913971769458
1983.3340804270283 1734.6380577463856
1983.999519104027 1978.964979755316
1984.6647974923835 2069.275205345338
1985.329915631215 2107.5126817590826
1985.99487355963 2014.0465028405517
1986.6596713167146 2053.1572777096735
1987.3243089415428 2027.7850371403147
1987.9887864731754 2187.812940616127
1988.6531039506553 1868.8056889008635
1989.3172614130071 2150.1364920338888
1989.9812588992481 2080.246444228482
1990.645096448372 1909.1045102345263
1991.3087740993633 1915.8985314473655
1991.9722918911848 1989.6213886382961
1992.635649862792 1827.1389327230347
1993.2988480531185 2102.0286722494816
1993.9618865010852 2264.701304498
1994.6247652455968 1877.3541294955478
1995.287484325545 1799.9464567701175
1995.9500437798033 2040.6108963026381
1996.6124436472292 1810.2431384743363
1997.2746839666706 1964.7218929390087
1997.936764776954 2152.3408333198627
1998.598686116895 1998.1605384485897
1999.2604480252903 2098.999155160981
1999.9220505409212 1915.5077307034662
2000.5834937025593 1690.3746706453578
2001.2447775489582 1922.636845757647
2001.9059021188514 1987.2876548714237
2002.5668674509616 1776.5954178488926
2003.2276735839987 1923.453968909986
2003.8883205566508 2139.5919623951877
2004.5488084075987 1816.5987326156132
2005.2091371755014 1857.1355793049156
2005.8693068990033 1807.7893049434383
2006.5293176167397 2058.8155407687213
2007.1891693673224 1733.133012013842
2007.848862189354 1688.157648704869
2008.5083961214223 1995.3301492846847
2009.1677712020955 1769.9029057026805
2009.8269874699254 1701.2632680527818
2010.4860449634598 1638.2889123285277
2011.1449437212177 1575.2460573261371
2011.8036837817108 1955.8328218957079
2012.4622651834325 2091.609268151461
2013.1206879648653 2072.7154941727113
2013.7789521644736 2167.210494836527
2014.4370578207036 1741.4923718422713
2015.0950049719922 1772.5707900885213
2015.7527936567585 1857.488343648339
2016.4104239134067 1907.7384231122705
2017.067895780323 2144.234386514647
2017.725209295886 2189.082577803713
2018.3823644984514 2234.002379611889
2019.0393614263648 1880.160637415997
2019.6962001179545 1681.6820416426986
2020.3528806115355 1971.5131352111234
2021.0094029454067 1749.162927675488
2021.6657671578487 1840.2116916507748
2022.321973287133 1822.4925881030144
2022.9780213715148 1924.7587722516735
2023.6339114492293 1671.3192339014204
2024.2896435585026 1988.743871420486
2024.9452177375442 1955.4076447345305
2025.600634024544 2067.5639074158444
2026.2558924576842 2017.1043704150457
2026.9109930751292 1990.2937042699255
2027.565935915025 1863.7071397019506
2028.2207210155066 2120.8683014800654
2028.8753484146964 1965.7295911188921
2029.529818150695 1642.2921916581206
2030.1841302615903 2038.6490571999086
2030.8382847854573 1681.2532832755562
2031.4922817603601 1802.848443189485
2032.1461212243357 2065.849195759561
2032.7998032154192 1721.7374104862622
2033.4533277716218 1927.6989726653107
2034.1066949309443 1664.6971065258417
2034.7599047313688 1881.6255337640655
2035.4129572108704 2115.2989040236416
2036.0658524074006 2022.17981085389
2036.7185903589016 1895.87508706385
2037.3711711032956 1844.4665009489895
2038.023594678496 1930.013805028019
2038.675861122394 1704.2650059798984
2039.3279704728757 1634.768038667951
2039.9799227678031 1565.2630246003541
2040.6317180450278 1723.600737990305
2041.2833563423865 1797.9972467506982
2041.9348376977014 1830.3160907135748
2042.5861621487784 1922.7565095050916
2043.2373297334088 2038.6901259955182
2043.8883404893695 1856.7942210661338
2044.5391944544208 2183.638775492712
2045.1898916663158 2042.4874782827126
2045.8404321627804 2166.048393024029
2046.4908159815368 1747.7415361126507
2047.1410431602853 1620.0003530862664
2047.7911137367173 1642.1945198370781
2048.441027748504 1655.9160190154919
2049.090785233302 1669.5890674145066
2049.7403862287592 1794.9265280685727
2050.389830772503 1718.82272918451
2051.0391189021466 1642.6958198052048
2051.688250655294 1912.233126996541
2052.337226069527 1763.7854735161297
2052.986045182417 2091.3920544427256
2053.634708031521 1671.714943619158
2054.283214654375 2031.596139551854
2054.931565088511 1597.8370800539838
2055.579759371436 1805.8937552760722
2056.2277975406523 1903.452759221883
2056.8756796336384 2060.939232087356
2057.5234056878617 1581.196999789954
2058.1709757407752 1751.7765858158905
2058.8183898298194 1912.0532467165322
2059.465647992416 2001.9631619773743
2060.1127502659747 1877.6051850696251
2060.759696687888 1634.1688816964129
2061.4064872955405 2043.473630926271
2062.053122126292 1930.4389390174715
2062.699601217497 1620.213036042142
2063.345924606485 1886.0238236962327
2063.992092330587 1968.3351292041305
2064.638104427102 1705.8007110306476
2065.283960933324 2112.928182746707
2065.92966188653 1971.8427691448196
2066.5752073239855 1886.3312914082767
2067.2205972829397 1640.4764611442795
2067.86583180062 1862.9662654318374
2068.5109109142522 1821.7145610104112
2069.15583466104 1858.4173659616529
2069.8006030781708 1895.156219840252
2070.445216202821 1964.3921064435567
2071.089674072153 1967.561889508998
2071.7339767233116 1864.6796471750363
2072.3781241934303 1769.7044450687583
2073.0221165196253 2110.717278745592
2073.6659537390024 1885.683559692825
2074.3096358886505 1999.860725432643
2074.953163005637 1763.2318413425812
2075.596535127028 1776.915834945035
2076.2397522898664 1740.2747535457543
2076.882814531182 1888.0280169643568
2077.5257218879924 1948.848544655318
2078.1684743973 1700.0349712093641
2078.8110720960885 1555.326939145485
2079.453515021336 1717.6112368430015
2080.095803209997 1880.0374114097237
2080.7379366990135 1749.983097158267
2081.37991552532 1795.740378073609
2082.0217397258275 1876.0470001612878
2082.6634093374414 1630.5984700593665
2083.3049243970418 1829.661092678026
2083.9462849415067 1891.8977064522376
2084.587491007689 1888.6108008214505
2085.2285426324324 1951.2720123040083
2085.869439852564 2062.6764452484103
2086.510182704902 1607.657456536331
2087.1507712262483 1804.6780143715564
2087.791205453381 1649.8254596746888
2088.4314854230743 2021.0637331713199
2089.0716111720867 1883.4717004361123
2089.7115827371617 1591.209233587651
2090.351400155023 1649.538223117002
2090.991063462385 1708.0547323944982
2091.6305726959527 1677.1086059595787
2092.2699278924047 1734.7802039582807
2092.9091290884153 1792.6392738155378
2093.548176320641 1674.2572820321282
2094.187069625721 1624.633523591863
2094.8258090402887 1574.9002676742887
2095.464394600951 1834.4960725234882
2096.102826344313 1904.5768734631195
2096.741104306955 2094.645107003903
2097.379228525453 1647.741639855732
2098.017199036358 1668.4119291314407
2098.6550158762147 2034.4457242814617
2099.2926790815527 1755.8522308940633
2099.9301886888825 1911.2988568432888
2100.5675447347076 1954.7206687742794
2101.2047472555114 2121.326159136318
2101.841796287761 1826.158563759943
2102.47869186792 1828.1100041167458
2103.1154340324265 1822.9608594028282
2103.752022817709 1644.2503687032477
2104.388458260184 1891.2156423933077
2105.024740396251 1843.275009112002
2105.660869262292 1733.2281379329957
2106.296844894685 2135.2398349980185
2106.93266732978 1844.8328181945476
2107.5683366039284 1861.4002563194535
2108.2038527534532 1878.0522685368146
2108.8392158146726 1934.3790707485446
2109.4744258238843 1756.6093851803012
2110.1094828173755 1862.3069710781378
2110.744386831422 1849.0622649791137
2111.3791379022787 1835.8130385793072
2112.01373606619 2008.5300461783772
2112.648181359389 1740.3076774927242
2113.28247381809 1853.9768430212885
2113.916613478492 1920.5857532013804
2114.550600376786 1987.262865356417
2115.1844345491445 2026.0347545268655
2115.818116031729 1682.7522155026309
2116.451644860679 1908.6091049318723
2117.085021072133 1550.868285182482
2117.718244702204 1626.76976757147
2118.3513157869984 1773.5676895162808
2118.984234362604 1603.9380068886012
2119.617000465092 1799.7563674666312
2120.249614130529 1904.0193762763
2120.8820753949585 1801.3714029258238
2121.5143842944162 1834.7400281634443
2122.14654086492 1766.4126045913758
2122.7785451424734 1911.9116573762174
2123.4103971630702 1976.7563963181624
2124.042096962681 2041.969374740166
2124.6736445772767 1827.6170235800805
2125.305040042802 1526.3479800094372
2125.936283395191 1742.3333740029211
2126.567374670365 1797.8547263846806
2127.198313904233 1687.2466644648714
2127.8291011326855 1718.893290320087
2128.4597363916037 1750.4018628547249
2129.0902197168507 1807.8806119377018
2129.720551144279 1539.2927266880188
2130.3507307097225 1986.1386988212992
2130.980758449008 1994.8892043589526
2131.6106343979427 1673.1776689532448
2132.2403585923203 2015.845591163657
2132.8699310679276 1993.1444737001152
2133.499351860526 1839.287005234521
2134.1286210058715 2012.5657613473595
2134.7577385397053 1618.659810841794
2135.3867044977487 1775.8805402272367
2136.0155189157176 1982.1958255029429
2136.644181829308 2061.192071237249
2137.2726932742025 2049.5785945183707
2137.901053286074 2038.057007848442
2138.5292619005777 1807.5790788739705
2139.1573191533535 1794.0906371025617
2139.7852250800315 1981.8009748436598
2140.4129797162295 1911.8899718505322
2141.0405830975433 1581.1162030691257
2141.6680352595613 1532.813868886406
2142.2953362378576 1484.4364284226488
2142.9224860679915 1602.1123212476766
2143.549484785508 1735.198938548781
2144.1763324259373 1852.078361396568
2144.803029024799 1744.863939033326
2145.429574617594 1650.0468163280464
2146.0559692398165 1881.14301458427
2146.682212926942 1554.8450224157023
2147.308305714432 1709.677362125368
2147.9342476377333 1886.2268486687553
2148.5600387322847 1966.226018448376
2149.185679033506 1866.8244375879726
2149.8111685768017 1766.1367400964696
2150.4365073975678 1696.067371493174
2151.061695531187 1734.5467093767759
2151.686733013021 1769.430339354679
2152.311619878423 1895.2924451148458
2152.9363561627342 1876.7892731336397
2153.560941901278 1665.967566929718
2154.1853771293663 1811.1473866908927
2154.809661882293 1928.1196308287895
2155.433796195348 1938.3963291387815
2156.0577801037944 1911.1721541327581
2156.681613642895 1999.4421424903242
2157.3052968478896 1726.2410807252174
2157.928829754006 1838.8151922285301
2158.552212396462 1875.5919669058324
2159.1754448104566 1745.121170505326
2159.7985270311783 1684.2660293107924
2160.4214590938027 1329.5265184693321
2161.0442410334927 1480.238123609914
2161.6668728853874 1681.683249894635
2162.289354684628 1692.2448841282553
2162.911686466332 1766.2460935691026
2163.533868265602 1905.0995813627549
2164.1559001175337 2023.3889890628404
2164.7777820572046 1852.5216515264724
2165.399514119681 1696.8953654872214
2166.021096340013 1837.2237359982344
2166.6425287532384 1564.3372951478339
2167.263811394385 1693.2042768246877
2167.8849442984574 1855.0052657148576
2168.505927500455 1603.9769622063582
2169.126761035366 1752.0305737301285
2169.7474449381552 1569.9291135902374
2170.367979243778 1490.8658661205484
2170.9883639871823 1747.160286269107
2171.608599203293 1560.5899184590448
2172.2286849270276 2006.9125968575736
2172.8486211932886 2106.96284904581
2173.4684080369625 1694.6365066573235
2174.0880454929265 1519.9881561794919
2174.7075335960417 1582.6432928428549
2175.3268723811543 1880.875496353184
2175.9460618831 1803.7968529389334
2176.565102136701 1440.1553103747785
2177.1839931767627 1538.9674149493044
2177.802735038078 1638.0627659884271
2178.421327755432 1540.3963549027474
2179.0397713635866 1742.3610799739163
2179.658065897298 1540.378803269217
2180.276211391305 1844.2764139580072
2180.8942078803357 1542.748575744439
2181.5120553991 1732.0184098988732
2182.129753982299 1599.8575632128882
2182.7473036646206 1542.5832218199894
2183.3647044807367 1676.0569664948384
2183.9819564653044 1458.7226428892873
2184.599059652968 1822.8945656545561
2185.216014078367 1937.099939451003
2185.832819776113 1989.4192903131875
2186.4494767808137 2041.749003062842
2187.065985127063 1842.269846982992
2187.682344849436 1757.3626255283023
2188.298555982501 1883.6811968417194
2188.9146185608097 1772.597376592207
2189.530532618901 1806.620519025662
2190.1462981912937 1764.5820244576432
2190.761915312507 1853.1360543144754
2191.377384017036 1879.2845246670418
2191.9927043393654 1841.509275018088
2192.6078763139667 1582.7245328625359
2193.2228999753006 1567.9205585791044
2193.837775357808 1553.114136955824
2194.452502495922 1483.542133445267
2195.0670814240602 1617.9244876037267
2195.6815121766285 1733.3681510278402
2196.2957947880186 1604.0315433310923
2196.9099292926057 1946.397438573981
2197.523915724758 1823.9275573513082
2198.137754118825 1741.876739466527
2198.7514445091456 2030.495618638831
2199.3649869300443 1958.3047760323032
2199.9783814158327 1886.0275681796727
2200.5916280008096 2173.2864036462324
2201.2047267192593 1838.0574439005304
2201.8176776054515 1736.370068876263
2202.430480693649 1591.401477601504
2203.0431360180955 1884.0269866069461
2203.6556436130195 1983.9555135690632
2204.268003512645 1491.7631551609873
2204.8802157511727 1738.1417886824213
2205.492280362796 1849.6940420853266
2206.1041973816937 1629.8097776353593
2206.715966842032 1883.1769992967515
2207.3275887779655 1553.0849935574756
2207.93906322363 1840.5445001634628
2208.550390213153 1887.7623945858122
2209.1615697806465 1752.9978240539917
2209.7726019602105 1403.3570916157757
2210.3834867859277 1486.1803794769899
2210.9942242918787 1614.0880537867902
2211.6048145121167 1558.3252776477643
2212.2152574806914 2409.739063984153
2212.825553231638 1651.5394421323676
2213.435701798975 2404.886550359178
2214.045703216707 1613.7184921345652
2214.655557518832 1457.687458280347
2215.2652647393297 1473.1662698584971
2215.874824912169 1480.3733717368386
2216.4842380713 1686.6848103833236
2217.09350425067 1584.9219566141346
2217.7026234842033 1629.6664694662504
2218.311595805819 1881.2960921417696
2218.9204212494133 1635.1143851398033
2219.52909984888 2113.0080481311556
2220.137631638092 2066.604603809184
2220.7460166509154 2019.9740746630546
2221.354254921198 1727.968360501307
2221.9623464827764 1775.50592489338
2222.5702913694713 1644.9919875606745
2223.178089615096 1656.5874834312435
2223.7857412534486 1662.4483393611704
2224.39324631831 1492.5648676817777
2225.000604843457 1515.5384408237428
2225.607816862641 1681.3501849501615
2226.214882409611 1847.3396192924206
2226.8218015180973 1659.365065909964
2227.4285742218217 1609.837960128467
2228.0352005544864 1772.8718740603078
2228.6416805497847 1685.5248215916376
2229.248014241399 1684.9617748137966
2229.8542016629945 1442.3492604963428
2230.460242848223 1654.8672470401375
2231.0661378307304 1695.0008137530426
2231.671886644139 1735.2297378640335
2232.277489322065 1495.1461492524259
2232.8829458981127 1235.8795037628727
2233.48825640587 1744.3679855511589
2234.0934208789095 2272.452594018326
2234.6984393507955 2027.8056708451047
2235.3033118550793 2158.947757159197
2235.9080384252975 1778.344963922988
2236.5126190949723 1598.6933049875665
2237.1170538976166 1532.7649188401156
2237.721342866729 1648.0673540288603
2238.32548603579 1763.5609778956762
2238.9294834382763 1661.0015588481037
2239.533335107646 1382.3667204830897
2240.1370410773434 1443.593254117705
2240.740601380803 1504.9106592646488
2241.3440160514474 1583.9698669858612
2241.9472851226783 1651.4212688870207
2242.550408627896 1756.5376985450962
2243.1533866004793 1861.859566342991
2243.756219073799 1988.7677944293875
2244.3589060812064 1525.7582541193071
2244.961447656049 1600.9598837784374
2245.5638438316564 1673.3782439484664
2246.166094641343 1754.8534084603423
2246.7682001184166 1663.2614988623113
2247.3701602961664 1697.5183214174517
2247.971975207871 1746.6824481960443
2248.5736448867974 1953.3496082247516
2249.175169366197 1901.6468856217803
2249.7765486793123 1550.6583794985138
2250.3777828593684 1752.948149647238
2250.9788719395783 2001.6322730240881
2251.579815953146 1915.0151478919397
2252.1806149332606 1465.5791569327241
2252.781268913097 1774.070126012511
2253.381777925817 1805.02186417792
2253.9821420045737 1836.0162906257617
2254.5823611825035 1864.0898183055929
2255.1824354927303 1543.4655445079238
2255.782364968365 1557.9898636567054
2256.38214964251 1572.5828303217263
2256.9817895482483 1602.251342834394
2257.5812847186553 1788.1468454387461
2258.180635186791 1546.2023735698865
2258.779840985704 1735.4745775058552
2259.37890214843 1681.3029992611541
2259.97781870799 1536.6806408949903
2260.5765906973957 1847.1431282074095
2261.175218149645 1720.5249637877391
2261.773701097718 1527.1960313647592
2262.3720395745895 1783.2171177215598
2262.970233613216 1502.5176416641173
2263.568283246548 1423.4431061434439
2264.1661885075137 1529.0470156241286
2264.763949429038 1660.5330642170243
2265.3615660440246 1579.7474784114734
2265.959038385374 1498.8565915969475
2266.5563664859637 1721.7899251736617
2267.153550378669 1672.937731814954
2267.7505900963424 1828.0588461336097
2268.3474856718312 1432.1313525246728
2268.9442371379664 1517.3979560186249
2269.5408445275643 1425.8513426024488
2270.1373078734377 1783.3955709537008
2270.7336272083758 1701.1656395904033
2271.32980256516 1626.4027272672304
2271.925833976562 1614.288769476946
2272.5217214753357 1844.548412156199
2273.117465094223 1574.5199842582274
2273.7130648659586 1600.6646541800922
2274.308520823257 1689.9480906941765
2274.903832998827 1710.0810471589004
2275.4990014253563 1347.8400198517438
2276.094026135528 1387.7049608188158
2276.6889071620117 1427.5965635648652
2277.2836445374614 1810.7412122008031
2277.878238294519 1895.781983547872
2278.472688465812 1712.1859973970113
2279.066995083962 1998.6065275909955
2279.6611581815705 1713.9277172095012
2280.255177791232 1864.986153719487
2280.8490539455233 1645.8985010012268
2281.442786677013 1825.3074107612579
2282.0363760182554 1928.135499190024
2282.6298220017943 1916.8106825038765
2283.223124660155 1905.5822228665907
2283.816284025859 1692.2866209974607
2284.4093001314086 1471.5447589679247
2285.002173009292 1946.5709580446025
2285.5949026919952 1666.9003562331466
2286.1874892119777 1736.2616705786236
2286.7799326016993 1753.8954560815455
2287.3722328936 1631.5786692428169
2287.964390120109 1409.7871228370282
2288.556404313642 1867.7160976784096
2289.1482755066027 1993.8024211586423
2289.7400037313873 1426.0242739620749
2290.3315890203703 1583.4140510499512
2290.9230314059205 1267.145221731651
2291.5143309203904 1506.9292967701792
2292.1054875961236 1508.2474050562246
2292.6965014654506 1842.2768140429948
2293.287372560684 1720.445365660909
2293.878100914131 1661.1476201439807
2294.468686558086 1601.7767278276058
2295.059129524827 1622.6308855642244
2295.649429846617 1992.2437181080306
2296.239587555716 1852.4997838679865
2296.8296026843636 1830.4471532958141
2297.419475264791 2033.456253889131
2298.0092053292137 1797.0873254769808
2298.598792909839 1758.5918240212038
2299.1882380388597 1748.7408543079982
2299.777540748455 2108.902033399357
2300.3667010707904 1980.3809734152776
2300.9557190380256 1718.431624198833
2301.544594682302 2005.0940931100497
2302.1333280357503 1925.8543751565678
2302.721919130485 1846.5636641693698
2303.3103679986198 1781.7633121888982
2303.898674672242 1786.2357753287713
2304.486839183437 1311.0386132819108
2305.0748615642697 1824.854498463658
2305.6627418468015 1405.6154968193434
2306.2504800630704 1607.4819483468218
2306.8380762451143 1447.5985155510486
2307.425530424949 1563.4074718682782
2308.012842634582 1679.4700602346234
2308.6000129060103 2101.672644916782
2309.187041271214 2222.665994395603
2309.773927762164 1655.9711458375873
2310.3606724108213 1781.6963984916888
2310.9472752491274 1490.3859186873813
2311.5337363090184 1555.8911406365655
2312.120055622414 1431.1582629857044
2312.706233221221 1306.117552930837
2313.2922691373424 1427.3464203147828
2313.8781634026564 1499.641481102121
2314.463916049037 1572.0901582784138
2315.049527108342 1955.4966874278794
2315.6349966124235 1855.7280477032505
2316.2203245931123 2054.038112946261
2316.8055110822315 1581.1139882402542
2317.3905561115935 1450.7201402420928
2317.9754597129977 1429.1812357763029
2318.560221918229 1791.74239870833
2319.1448427590603 1495.4168764342826
2319.729322267256 1687.2175666662465
2320.313660474563 1879.5698271509686
2320.8978574127195 2291.3100868632027
2321.481913113452 1856.220079655855
2322.0658276084705 1296.5513522033452
2322.6496009294806 1523.939652941626
2323.233233108165 1822.2538536779346
2323.8167241762058 1714.2351222583711
2324.4000741652617 1753.4898305647264
2324.983283106987 1836.4052862906785
2325.5663510330232 2064.005598590327
2326.1492779749933 1950.0719290576399
2326.7320639645204 1786.778840002956
2327.3147090332004 1488.0121722671806
2327.897213212629 1651.992694743667
2328.4795765343843 1816.0732986603357
2329.0617990300307 1617.7463530226314
2329.643880731124 1863.9980472495595
2330.22582166921 1824.6460104988382
2330.807621875816 1781.9807031396006
2331.3892813824623 1585.1428780574395
2331.9708002206517 1576.41095115043
2332.5521784218818 1696.8424434934332
2333.133416017634 1817.5935293173989
2333.7145130393765 1671.4506286836786
2334.295469518571 1847.0313129428323
2334.876285486658 1809.8195600511172
2335.456960975076 1857.0719344016372
2336.037496015242 1904.4620966001537
2336.6178906385667 1641.3886817992272
2337.198144876451 1807.7864948277918
2337.778258760278 1614.360986741771
2338.3582323214214 1794.8611373366366
2338.938065591243 1551.0589496890675
2339.517758601087 1785.166024605824
2340.0973113822965 1733.678335255651
2340.676723966193 1430.1801247566689
2341.255996384094 1571.5064550876618
2341.835128667295 1631.8727386053276
2342.4141208470883 1694.0882704798369
2342.992972954751 1675.0341195756296
2343.5716850215467 1725.2733495746347
2344.1502570787306 1223.6946556610324
2344.7286891575386 1435.0208026248515
2345.3069812892045 1572.7449493792205
2345.885133504944 1710.58217724029
2346.4631458359618 1619.536156039933
2347.04101831345 1570.0809938688058
2347.6187509685915 1738.430459613194
2348.196343832553 1514.4416730560295
2348.7737969364935 1531.0716833920615
2349.351110311558 1594.9132872934379
2349.9282839888765 1574.9898348282982
2350.5053179995757 1427.4318438716086
2351.0822123747585 1440.7630154232816
2351.658967145526 1420.0339418669696
2352.2355823429643 1399.35302557567
2352.812057998144 1900.8010602414804
2353.3883941421263 1474.0411884133823
2353.9645908059647 1566.9898829553745
2354.540648020693 1714.7647432040176
2355.116565817336 1535.1248263143507
2355.6923442269126 1764.39795264151
2356.2679832804224 1564.998751237318
2356.8434830088518 1347.4444463076495
2357.41884344318 1481.5740883795077
2357.994064614377 1677.9140386036092
