#exp_cfg={"servo_angle": 0.0, "laser_lim": 100.0, "servo_angle_to": 18.0, "laser_wup": 0.0, "bt_dev": "EnSpectr-25AE3", "laser_wdn_max": 0.0, "frames": 10.0, "servo_used": 0, "servo_calib_use": 0, "laser_wdn_min": 0.0, "servo_pix_from": 90.0, "cooler_tout": 300.0, "servo_angle_from": 0.0, "servo_calib": "[-1.9174921013161362e-09, 3.9322238269163779e-05, -0.27385609119055809, 653.59552119713567]", "laser_autoctl": 0, "servo_pix_to": 3682.0, "laser_pw": 100.0, "cooler_on": 0, "laser_volt": 4.0, "cooler_autoctl": 0, "cooler_curr": 70.0, "cooler_startup": 10.0, "laser_fixed_pw": 0, "gain": 1.3, "offset": 2.53059635486, "servo_calib_degree": 3.0, "laser_curr": 55.0, "shutter": 8200.0, "servo_calib_step": 1.0, "laser_fixed_curr": 0, "exp": 2000.0, "ccd_volt": 4.7, "bt_addr": "00:06:66:62:5A:E3", "servo_delay": 500.0, "laser_autooff": 1}
#proc_cfg={"flat_auto_wnd": 200.0, "flat_auto_fr": 200.0, "flat_auto_shift": 5.0, "yconv": 1, "flatten": 1, "flatten_strength": 100.0, "xfrom": 300.0, "auto_max_frame": 2000.0, "auto_signal": 48000.0, "flat_auto_tol": 0.1, "autoclip": 1, "xrel_range": 0.0, "flat_auto_to": 4000.0, "intensity_adj": 1.0, "xrel": 7852.0, "rmhot": 1, "flat_auto_slit": 4.999999999999997, "auto_ini_exp": 300.0, "auto_off": 0, "xto": 2860.0, "flat_auto_ref": "", "flat_auto_rank": 1, "autobackg": 0, "xrel_adj": 0.0, "auto_black_lvl": 1, "base_wnd": 100.0, "sub_baseline": 0, "xconv": 2, "auto_max_exp": 1000.0, "auto_total_exp": 10000.0, "auto_exp": 0, "rmripple": 0, "black_lvl": 8263.8, "shutter_clip_adj": 0.0, "auto_bckg": 0, "flat_auto_thr": 0.9, "subbackg": 1}
316.8218498245369 14721.116325081279
317.89969571804795 14500.420933271904
318.977263876126 14491.413422941268
320.05455438786703 14393.356874293746
321.1315673423287 14396.822110922523
322.2083028285215 14427.457479250103
323.2847609354267 14241.727519775417
324.3609417519747 14296.468575450801
325.43684536705587 14251.93354937738
326.5124718695279 14088.276410484852
327.58782134820103 14138.569658515544
328.66289389184385 14049.294963231738
329.7376895891921 13913.909571929127
330.8122085289342 14073.063113832328
331.88645079971866 14026.17405796042
332.9604164901575 13880.040759435815
334.03410568881554 13861.373185688903
335.1075184842266 14054.964670677704
336.18065496487543 13680.56740458254
337.2535152192122 13790.75366879839
338.32609933564163 13826.612578178141
339.39840740253203 13789.450547221062
340.4704395082099 13734.647441188135
341.5421957409617 13743.193691281089
342.6136761890357 13859.317731013361
343.6848809406365 13703.01169876517
344.75581008392874 13701.111637692677
345.82646370703696 13630.891092629847
346.8968418980512 13627.820162260217
347.96694474501055 13726.015531959954
349.0367723359268 13667.77390536138
350.106324758759 13582.514579262268
351.1756021014353 13527.389444630262
352.2446044518383 13536.513404332864
353.31333189781435 13619.619612690032
354.38178452716966 13539.018496071492
355.449962427665 13581.00707559608
356.51786568702846 13563.424197662778
357.58549439294256 13654.031410361393
358.6528486330535 13708.052506037444
359.71992849496564 13572.28030743141
360.7867340662433 13522.94558978127
361.8532654344144 13557.666776984615
362.9195226869597 13699.268170004832
363.9855059113288 13482.754512622316
365.05121519492604 13591.245831143568
366.11665062511565 13595.388340143778
367.1818122892273 13683.55535297884
368.2467002745434 13596.040471563518
369.31131466831175 13660.32977853571
370.375655557742 13643.87229170849
371.4397230299983 13650.689826929283
372.5035171722102 13554.490851282608
373.5670380714637 13673.813811356571
374.6302858148101 13720.199568780201
375.6932604892554 13622.611160741591
376.7559621817709 13648.100590145605
377.81839097928605 13548.37844595036
378.8805469686886 13596.945629312646
379.94243023683157 13616.941822959958
381.0040408705263 13597.507539332171
382.0653789565458 13581.334853721666
383.1264445816196 13573.48093289945
384.1872378324406 13496.753284029483
385.2477587956637 13606.712961079786
386.3080075579037 13516.59312461681
387.3679842057336 13454.98430915938
388.4276888256918 13477.490495344882
389.48712150426945 13528.82700381881
390.54628232792857 13475.791778646748
391.6051713830857 13413.315694737543
392.66378875611736 13423.775711374295
393.7221345333637 13374.900957266864
394.7802088011249 13309.46919016878
395.838011645661 13357.474406438201
396.89554315319765 13245.353587600799
397.9528034099112 13260.382118015006
399.00979250194723 13281.354771210163
400.06651051541485 13183.954358040075
401.1229575363741 13198.047551107
402.17913365085224 13199.506510245712
403.23503894483656 13343.615625242324
404.2906735042761 13134.493563367647
405.3460374150818 13123.663055242814
406.401130763119 13136.647184466503
407.455953634224 13139.726629737164
408.5105061141876 13127.547914441151
409.56478828876243 12896.424735501267
410.6188002436629 12897.403707180187
411.6725420645689 12955.482697315914
412.72601383711117 12978.664316816354
413.77921564689314 13052.16330131443
414.8321475794728 12981.128903127643
415.88480972036814 12860.336116107434
416.93720215506437 13025.222357259063
417.9893249690049 12853.222212725565
419.04117824759123 12761.435273988634
420.09276207619223 12789.428576280123
421.144076540133 12794.232930969169
422.1951217247042 12682.404895706075
423.24589771515275 12701.998279777317
424.2964045966928 12656.449024686342
425.34664245449494 12678.441256886643
426.3966113736933 12649.98150093097
427.4463114393875 12626.398180742239
428.49574273662984 12644.297567751744
429.5449053504417 12531.060575494534
430.5937993658026 12619.44754413365
431.6424248676558 12481.053441460399
432.6907819409007 12524.357787935081
433.73887067040596 12479.414382007437
434.7866911409965 12612.134904193688
435.8342434374608 12429.016976289626
436.88152764455117 12493.353538896787
437.9285438469724 12433.664852103186
438.9752921294057 12390.435369051318
440.02177257648145 12398.09211133303
441.06798527279716 12335.196361429782
442.1139303029122 12371.506897629417
443.1596077513459 12312.240302142241
444.2050177025794 12357.504514296863
445.25016024105753 12323.95193732916
446.2950354511886 12299.34367464786
447.33964341733736 12390.389678530166
448.383984223834 12210.260101906937
449.4280579549686 12208.433046721064
450.471864694995 12204.328032281115
451.5154045281306 12281.704929985839
452.5586775385509 12162.424940032648
453.60168381039693 12240.108080444536
454.64442342776783 12325.446955013538
455.6868964747264 12247.152570044294
456.7291030353008 12235.01331080103
457.77104319347563 12269.104752656707
458.8127170332027 12214.137113354065
459.854124638392 12215.344690917225
460.895266092919 12251.502946966566
461.93614148061897 12282.799757414432
462.97675088529104 12329.4070558311
464.01709439069236 12312.915511819541
465.0571720805492 12219.302650016776
466.0969840385442 12309.523250797192
467.1365303483253 12377.141802284223
468.17581109350067 12375.353464537297
469.2148263576437 12286.317086922509
470.2535762242878 12347.792809912231
471.29206077693016 12383.347582877273
472.33028009902773 12385.800544567986
473.3682342740012 12425.907918379371
474.40592338523857 12436.584434589477
475.4433475160804 12529.292080912837
476.4805067498364 12586.306826839731
477.51740116978 12568.077211092514
478.5540308591426 12687.037545488341
479.59039590112116 12804.826186152384
480.6264963788726 12927.369717887374
481.6623323755193 12962.221936364615
482.6979039741436 13085.814127238451
483.7332112577915 13278.433709579258
484.76825430947247 13387.190052134338
485.80303321215797 13343.837285206435
486.837548048783 13471.342576117528
487.8717989022425 13675.450162290095
488.90578585539697 13601.544450820922
489.9395089910686 13701.881839610174
490.97296839203955 13581.72586434577
492.00616414106116 13529.490566929453
493.0390963208429 13523.242982086076
494.0717650140559 13546.867151760485
495.10417030333883 13426.404228988695
496.1363122712901 13413.432780754307
497.16819100046814 13164.84171563324
498.1998065734024 13107.127030885986
499.2311590725767 12960.234268113374
500.26224858044407 12824.901249064707
501.2930751794156 12793.315887987697
502.3236389518679 12719.707023416777
503.35393998014115 12475.900510808726
504.38397834653733 12539.555255620327
505.4137541333221 12534.60145076524
506.4432674227228 12408.628003809119
507.4725182969323 12319.820187746707
508.5015068381035 12329.015309654296
509.53023312835467 12280.221829622002
510.55869724976765 12241.270313191973
511.58689928438434 12107.305904148252
512.6148393142121 12142.68832082683
513.6425174212218 12166.182819383619
514.6699336873462 12230.65026957222
515.6970881944835 12253.304099197956
516.7239810244901 12151.856087114424
517.7506122591931 12250.371052229253
518.7769819803761 12322.940899698411
519.8030902697901 12277.204805949972
520.8289372091476 12258.075238325338
521.8545228801249 12401.64855610279
522.8798473643619 12361.676115394488
523.9049107434621 12338.2568312158
524.9297130989908 12388.29478657197
525.9542545124805 12312.904154501342
526.9785350654201 12382.061913749414
528.0025548392696 12304.895895145452
529.0263139154504 12320.077454562766
530.0498123753423 12345.060096773279
531.073050300296 12208.661146188571
532.0960277716204 12192.410262835949
533.1187448705896 12109.440828775745
534.1412016784416 12142.363031895498
535.1633982763833 12089.815910785059
536.1853347455726 12066.004776414553
537.2070111671401 12015.105993708361
538.2284276221817 11891.226492826212
539.2495841917516 11888.120666304461
540.2704809568677 11835.488800555428
541.2911179985167 11862.432290264096
542.3114953976419 11713.779642486541
543.3316132351592 11741.013873783368
544.3514715919409 11694.665763981373
545.3710705488247 11718.883331966119
546.3904101866156 11657.696124229693
547.4094905860784 11631.739661634063
548.4283118279418 11556.15650055605
549.4468739929034 11589.180672271466
550.4651771616191 11545.722463407581
551.4832214147063 11491.95440239021
552.501006832761 11548.343935203051
553.5185334963226 11467.65905840549
554.5358014859103 11416.512395700323
555.5528108820035 11503.681328276922
556.5695617650363 11380.080782160241
557.5860542154242 11462.511886241457
558.6022883135283 11471.345497741002
559.6182641396881 11399.68348505799
560.6339817741991 11441.440316709924
561.6494412973225 11536.817960431208
562.6646427892883 11507.432073043736
563.6795863302796 11399.004390612152
564.694272000459 11443.530119872132
565.7086998799423 11537.9701904703
566.7228700488104 11495.888481011581
567.7367825871115 11476.784734760731
568.7504375748576 11444.076170094526
569.7638350920224 11390.74787761598
570.7769752185486 11422.833292741218
571.7898580343353 11370.2303505497
572.802483619258 11416.93087523583
573.8148520531431 11562.006450035287
574.8269634157932 11544.829591423546
575.8388177869692 11576.999023708015
576.8504152463938 11602.847292664837
577.8617558737587 11666.174068437596
578.8728397487175 11621.93004403649
579.883666950891 11755.002918684175
580.8942375598654 11842.881256389772
581.9045516551851 11911.791188616551
582.9146093163617 12060.742831847003
583.924410622878 11950.55189860911
584.9339556541727 11999.6499923092
585.9432444896538 12219.501360551836
586.9522772086875 12137.251357927847
587.9610538906127 12091.563428664005
588.9695746147318 12111.027537546954
589.9778394603054 12081.936162178888
590.985848506567 12120.761231019225
591.9936018327098 12058.218569890469
593.0010995178891 11825.74980318597
594.0083416412344 11903.179519528177
595.0153282818283 11812.359398094213
596.0220595187293 11778.989061857701
597.0285354309508 11697.272650909254
598.0347560974806 11623.797276129422
599.0407215972609 11641.329961854926
600.0464320092051 11575.40775712293
601.0518874121954 11652.61484108333
602.0570878850685 11544.68969620873
603.062033506636 11562.272630199845
604.0667243556636 11586.117792869725
605.0711605108936 11511.277838559905
606.0753420510264 11708.946224727164
607.0792690547278 11623.25422997415
608.082941600629 11650.45651634618
609.0863597673306 11524.761585451131
610.0895236333909 11694.365681943602
611.0924332773357 11820.0872902687
612.0950887776617 11828.518230416656
613.0974902128219 11819.814997486961
614.0996376612384 12080.010693281778
615.1015312013005 12118.86132934217
616.1031709113595 12193.961044757585
617.1045568697336 12103.318271716476
618.1056891547069 12345.384903637527
619.1065678445229 12538.324086962562
620.1071930173985 12758.629402747301
621.1075647515099 12883.144693795355
622.1076831250048 12963.837002487544
623.1075482159849 13169.215274503795
624.1071601025305 13232.886570966555
625.1065188626781 13459.500789621985
626.105624574433 13670.978044014762
627.1044773157682 13722.78559462757
628.1030771646128 13868.786827393047
629.1014241988742 13970.116587597679
630.0995184964158 14031.710497779955
631.0973601350688 14095.25038681057
632.0949491926294 14233.711326511966
633.0922857468631 13938.616029249122
634.089369875499 14027.494421148376
635.0862016562278 14014.556128199649
636.0827811667077 13812.836449147226
637.0791084845641 13738.44291398682
638.0751836873878 13527.318357826454
639.0710068527369 13599.947954657593
640.0665780581294 13212.774848365105
641.0618973810506 13152.183219569386
642.0569648989604 13092.95160258021
643.0517806892676 12794.706019759606
644.0463448293649 12718.281639725217
645.040657396592 12594.034832958021
646.0347184682723 12377.717081687846
647.0285281216875 12232.261534007612
648.0220864340772 12174.632700892109
649.0153934826558 12038.196729023683
650.0084493446047 12049.153105076979
651.0012540970674 11907.920026575626
651.9938078171526 11748.787693519593
652.9861105819346 11608.082576765177
653.9781624684565 11717.804476168605
654.9699635537254 11485.300970403863
655.9615139147136 11619.936281605258
656.9528136283589 11362.233350653565
657.9438627715699 11465.036552787002
658.9346614212154 11373.769817005174
659.925209654135 11195.788024450569
660.9155075471263 11310.85101531369
661.9055551769616 11192.60342385677
662.895352620375 11329.132569561172
663.8848999540678 11151.463300345706
664.8741972547068 11118.88989916897
665.863244598926 11086.344401114811
666.8520420633213 11147.22039683182
667.8405897244611 11058.925008146512
668.8288876588758 10978.729001590607
669.8169359430613 11062.476714734807
670.8047346534822 11051.671475837113
671.7922838665672 11029.190099942465
672.7795836587156 11081.544197072722
673.766634106285 11139.09627234868
674.7534352856092 10933.410281111408
675.7399872729766 11046.709822503073
676.7262901446538 11036.991522976823
677.712343976862 11006.829849045633
678.6981488457986 11106.357698358388
679.6837048276229 10985.453846802035
680.6690119984596 10988.228391506636
681.6540704344043 10987.781344805855
682.6388802115107 10984.351383025965
683.6234414058108 10972.107247744172
684.6077540932874 10901.168271471182
685.591818349907 10914.673536670347
686.575634251587 10815.084384870786
687.5592018742263 10744.29054390229
688.5425212936734 10778.073140011056
689.5255925857564 10775.218740558907
690.5084158262707 10762.716088434066
691.4909910909646 10775.88795339313
692.4733184555644 10635.920165600508
693.4553979957618 10700.76804298623
694.4372297872123 10640.243820510965
695.4188139055404 10584.621733713906
696.4001504263324 10533.349612056534
697.3812394251509 10606.540048729094
698.3620809775111 10552.047201139358
699.3426751589104 10553.675199077941
700.3230220448004 10442.10351013733
701.3031217106054 10574.53270324668
702.2829742317172 10667.216296467117
703.2625796834873 10479.645568844207
704.2419381412474 10390.139445581259
705.22104968028 10478.367689535216
706.1999143758458 10487.328173908256
707.178532303169 10411.815716826017
708.1569035374378 10474.128925558372
709.1350281538107 10515.626119899125
710.1129062274158 10489.086953187547
711.0905378333373 10557.046456283244
712.0679230466376 10491.018124373028
713.0450619423427 10542.221283007106
714.0219545954424 10592.685579043953
714.9986010808989 10497.337881928575
715.9750014736292 10548.409976077412
716.9511558485392 10614.626894704896
717.9270642804786 10608.02659366688
718.9027268442787 10594.091495262572
719.8781436147328 10606.167358288083
720.8533146666014 10625.694398554464
721.828240074612 10611.611623677583
722.8029199134635 10567.963690807414
723.7773542578125 10597.925597992113
724.751543182294 10592.94525751372
725.7254867615029 10566.702342860013
726.6991850700015 10438.24061534256
727.6726381823228 10511.308748637523
728.6458461729599 10584.701074332937
729.6188091163858 10449.27834132312
730.5915270870246 10416.524502656584
731.5640001592856 10236.43296683146
732.536228407529 10436.825488071794
733.5082119060917 10349.902453319186
734.4799507292755 10293.824978700051
735.4514449513481 10260.131203472356
736.4226946465496 10336.980426485825
737.3936998890786 10351.633861557237
738.3644607531078 10242.430035405814
739.3349773127793 10263.1792571562
740.3052496421951 10306.921245743613
741.27527781543 10294.015345907446
742.2450619065221 10151.718698915694
743.2146019894826 10156.332351802115
744.183898138288 10217.68776839768
745.1529504268801 10264.7426765949
746.1217589291682 10188.828835176933
747.0903237190341 10131.406319775302
748.058644870318 10236.639747625999
749.0267224568397 10113.9310882786
749.994556552374 10057.022841442373
750.9621472306771 10168.060743266946
751.9294945654583 10169.986563386326
752.8965986304011 10192.649596557638
753.8634594991636 10178.451967349869
754.8300772453586 10196.936969244358
755.7964519425768 10207.677009181734
756.762583664371 10196.608303435121
757.7284724842611 10206.324928527629
758.6941184757416 10170.007248935312
759.6595217122667 10195.701362128475
760.6246822672638 10213.732140800663
761.5896002141235 10174.237379991939
762.5542756262093 10223.319504884337
763.5187085768503 10224.248124653433
764.4828991393406 10167.717534876987
765.4468473869474 10167.105753895969
766.4105533929032 10183.97391970764
767.3740172304078 10044.849696049276
768.3372389726283 10215.131497165048
769.3002186926988 10067.652762900321
770.2629564637282 10103.726332115935
771.2254523587872 10048.760251188594
772.1877064509154 9932.223335887404
773.1497188131179 9917.573757377246
774.1114895183728 9853.959603575679
775.0730186396268 9848.49226682389
776.0343062497905 9854.537904037794
776.9953524217381 9759.445836961264
777.9561572283274 9761.510180318714
778.9167207423689 9800.582828363162
779.8770430366476 9741.359170183663
780.8371241839159 9718.67261404281
781.7969642568951 9651.638280230425
782.7565633282757 9955.700129028093
783.7159214707099 9720.19335942734
784.6750387568281 9706.51446395889
785.6339152592227 9657.846079462246
786.5925510504512 9722.438684647628
787.5509462030477 9719.75746491492
788.5091007895098 9768.9982773372
789.4670148823006 9781.040071289468
790.4246885538596 9756.508808554503
791.3821218765861 9791.41951463272
792.3393149228505 9709.70342473637
793.2962677649975 9858.084045257907
794.2529804753303 9912.901944602101
795.20945312613 9946.137892217772
796.1656857896378 9839.58603115457
797.1216785380675 9905.008265236538
798.0774314435985 10107.937646138034
799.0329445783846 10251.193607993919
799.9882180145414 10165.622073183611
800.9432518241574 10195.702001222176
801.89804607929 10286.290014970273
802.852600851962 10401.790378632864
803.8069162141637 10426.582996793619
804.760992237856 10500.34928013981
805.714828994971 10499.344216799223
806.6684265574077 10533.2500045054
807.6217849970271 10459.689273160007
808.574904385674 10453.339496162713
809.527784795142 10396.13195773954
810.4804262972102 10513.83589052222
811.4328289636178 10320.353907582352
812.3849928660748 10113.417418185098
813.3369180762638 10103.176598882443
814.2886046658241 10005.920964798832
815.2400527063783 9874.772241882925
816.1912622695108 9816.323104938927
817.1422334267718 9780.497571554883
818.0929662496856 9754.798420184034
819.0434608097457 9612.824355712413
819.9937171784059 9503.047852902251
820.9437354271013 9462.423147144162
821.8935156272255 9549.222452974907
822.8430578501484 9318.604510603956
823.7923621672016 9288.65261175313
824.7414286496896 9275.212899949966
825.6902573688876 9384.337642683446
826.6388483960363 9303.390775935153
827.5872018023492 9265.619075646804
828.5353176590033 9310.281449392305
829.4831960371503 9239.468097366336
830.4308370079016 9216.871066844942
831.3782406423525 9215.75928850385
832.3254070115545 9254.110475543828
833.2723361865319 9102.861126918042
834.2190282382799 9143.380214196724
835.1654832377644 9182.727635500087
836.1117012559116 9078.40788677084
837.0576823636256 9188.688501505532
838.003426631778 9001.236443991882
838.9489341312074 8985.823692314476
839.8942049327197 9080.816775643496
840.8392391070975 9101.885244318697
841.7840367250865 9109.3648492205
842.7285978573982 9027.34422134288
843.672922574724 9080.213792558072
844.6170109477152 9053.456531023154
845.560863046996 9045.223108136972
846.5044789431595 9044.478236316947
847.4478587067697 8976.901450250658
848.3910024083561 9151.784925482443
849.333910118421 9108.158540530498
850.2765819074339 9000.048553331788
851.2190178458332 9061.805474796978
852.161218004032 9112.707115762762
853.1031824524016 9095.041595734716
854.0449112612987 8998.981723578398
854.9864045010327 9085.874832807343
855.9276622418947 8986.338733213619
856.8686845541379 9020.146223150414
857.8094715079915 9007.226889688647
858.7500231736467 9185.951629835607
859.690339621271 9118.990456719937
860.6304209209939 9116.217843328934
861.5702671429244 9023.767003972738
862.5098783571284 9106.69698502166
863.4492546336569 9187.193468404734
864.3883960425155 9105.591720371722
865.3273026536863 9147.959988341314
866.2659745371238 9236.866779294673
867.2044117627465 9348.098261085537
868.1426144004472 9132.593891705783
869.0805825200823 9242.415104433763
870.0183161914847 9329.920893977232
870.9558154844526 9486.718469462057
871.8930804687552 9435.126819215973
872.8301112141307 9315.130209661023
873.7669077902865 9601.949587861403
874.7034702669062 9598.412594461417
875.6397987136315 9627.734232580857
876.5758932000863 9612.15900330266
877.5117537958522 9681.889793755789
878.4473805704911 9689.2003511626
879.3827735935283 9559.444432122735
880.3179329344603 9644.126483988768
881.2528586627541 9646.074973000956
882.1875508478479 9713.209308624633
883.1220095591489 9624.852341984979
884.0562348660296 9510.597080286638
884.9902268378391 9657.384397095437
885.9239855438955 9567.24470750082
886.8575110534839 9536.419089696203
887.7908034358588 9447.269097114322
888.7238627602474 9460.808414151219
889.6566890958475 9498.223804171967
890.5892825118208 9330.246090729313
891.5216430773125 9353.320262816434
892.4537708614189 9278.95077418054
893.3856659332196 9167.455162891518
894.3173283617652 9060.445778626436
895.2487582160684 9164.1347109331
896.179955565116 9073.653299172456
897.110920477864 8920.407639039895
898.0416530232451 8966.947620797193
898.9721532701478 8846.105789469806
899.9024212874428 8962.990240107078
900.8324571439662 8805.125662037803
901.7622609085302 8747.204320389534
902.6918326499072 8668.008529375988
903.6211724368477 8772.244820937236
904.5502803380696 8712.53335657677
905.4791564222614 8800.439655168386
906.4078007580792 8667.920223539508
907.3362134141571 8678.861042654029
908.2643944590909 8686.648809251783
909.1923439614493 8637.008459845052
910.1200619897754 8564.59064252166
911.0475486125779 8706.64448464511
911.9748038983344 8588.700660227034
912.9018279155007 8613.794379912315
913.8286207324982 8485.427329805814
914.7551824177117 8577.953724077826
915.6815130395116 8541.117426889801
916.6076126662283 8517.64687249651
917.533481366163 8541.394058468013
918.4591192075914 8522.500739326852
919.3845262587565 8601.726408668004
920.3097025878706 8512.390868310848
921.2346482631237 8572.78168478726
922.1593633526682 8557.623911229797
923.0838479246304 8600.607047181808
924.0081020471061 8622.209832523982
924.9321257881656 8499.875743014143
925.8559192158464 8511.792110617671
926.7794823981512 8498.780558073824
927.7028154030686 8438.857695749277
928.6259182985414 8352.839511622082
929.5487911524906 8550.184587561922
930.4714340328119 8506.564697319554
931.3938470073608 8349.26620924347
932.3160301439748 8439.964523799332
933.2379835104548 8416.32927068849
934.1597071745709 8555.846155672913
935.0812012040769 8520.220791975944
936.002465666681 8374.18472318744
936.9235006300696 8450.337184088481
937.8443061619055 8319.08317307731
938.7648823298077 8275.383243968125
939.6852292013809 8354.904907446255
940.6053468441951 8415.278266616227
941.5252353257874 8320.856696675735
942.4448947136698 8327.705620860495
943.364325075323 8334.226922582438
944.2835264782043 8337.059450664088
945.2024989897309 8249.266206167367
946.1212426773054 8262.969942288164
947.0397576082851 8282.83190142809
947.9580438500125 8333.730795022544
948.8761014697939 8350.876033336293
949.7939305349064 8284.586648198516
950.7115311125999 8204.01206187886
951.6289032700952 8196.45521043597
952.5460470745875 8274.150468871381
953.4629625932339 8231.699687149558
954.3796498931715 8266.21916748484
955.2961090415029 8280.121688484487
956.2123401053068 8222.925963015525
957.1283431516276 8257.070737468868
958.0441182474842 8182.663692955424
958.9596654598663 8275.761997144378
959.8749848557309 8256.96767018501
960.7900765020167 8227.53339546786
961.7049404656209 8192.765560341373
962.6195768134185 8198.495328704583
963.5339856122537 8152.297872478412
964.4481669289453 8260.391207313509
965.3621208302793 8214.525760030181
966.2758473830145 8221.277698462956
967.1893466538822 8342.538503219943
968.1026187095813 8235.98682901762
969.0156636167867 8255.730519679619
969.9284814421426 8265.547561448315
970.8410722522622 8226.100251558224
971.753436113735 8156.000319209597
972.6655730931161 8167.10490093206
973.5774832569368 8247.348911182931
974.4891666716958 8157.679179739697
975.4006234038698 8132.636966329378
976.3118535198955 8109.3888123289125
977.2228570861935 8249.29679119321
978.1336341691494 8276.657026408287
979.0441848351202 8200.34623992418
979.9545091504333 8251.27630589527
980.864607181391 8275.314837303937
981.7744789942699 8262.531570999367
982.6841246553086 8218.846503914054
983.5935442307236 8268.019394325282
984.5027377867027 8351.10415609866
985.4117053894024 8313.125037855118
986.3204471049557 8343.905561770662
987.2289629994648 8339.155162955785
988.1372531390007 8405.183205135492
989.0453175896091 8269.626205974646
989.9531564173067 8320.881835977289
990.860769688079 8322.533605356224
991.7681574678918 8358.107418758853
992.6753198226706 8370.180555621933
993.582256818323 8355.79297411118
994.4889685207218 8347.160789144444
995.3954549957143 8564.854416099397
996.301716309119 8520.434395144192
997.2077525267232 8490.131475553422
998.1135637142943 8410.442902333805
999.0191499375615 8606.280648800735
999.924511262232 8506.457927770458
1000.8296477539861 8637.318911650642
1001.7345594784656 8528.931974586045
1002.6392465012996 8532.40906151219
1003.5437088880753 8551.210893679654
1004.4479467043584 8478.362196600337
1005.3519600156869 8361.373275777418
1006.2557488875718 8488.223574692105
1007.1593133854858 8357.520624482046
1008.0626535748888 8490.661620577506
1008.9657695212009 8311.447280811259
1009.8686612898182 8495.34727932288
1010.7713289461135 8407.839117457766
1011.6737725554212 8327.558257210872
1012.5759921830577 8407.77514239896
1013.4779878943027 8429.023474753594
1014.379759754418 8366.975966175
1015.2813078286254 8288.037990768451
1016.18263218213 8211.473207082441
1017.0837328801026 8301.579668729752
1017.9846099876886 8411.05390082428
1018.8852635700023 8218.628168460047
1019.7856936921362 8096.955411668515
1020.6859004191447 8278.470891057801
1021.5858838160675 8140.307953063198
1022.4856439479063 8082.444580545275
1023.3851808796389 8057.502046302705
1024.2844946762143 8091.485646695628
1025.183585402554 8037.525251729674
1026.082453123554 7997.651675198867
1026.9810979040776 8029.172542564285
1027.8795198089647 7959.477087537403
1028.777718903024 8052.974832941945
1029.6756952510368 7960.233772650119
1030.5734489177648 7902.279963695648
1031.4709799679313 8065.3870093877285
1032.3682884662358 8073.158879675435
1033.2653744773506 8004.106804356398
1034.1622380659192 7912.801625966446
1035.058879296559 8014.467419575885
1035.9552982338591 8037.986607503061
1036.8514949423825 7947.310549905737
1037.7474694866614 8025.132908146492
1038.6432219312028 8027.296347149597
1039.5387523404825 8103.0328949233835
1040.4340607789582 8018.02874081871
1041.3291473110476 8096.354705081409
1042.2240120011465 8273.617136755292
1043.1186549136273 8303.139933993323
1044.0130761128294 8191.443501534588
1044.9072756630649 8274.373899119222
1045.8012536286205 8390.776710641065
1046.6950100737577 8345.655455567505
1047.588545062701 8381.41655443375
1048.481858659663 8413.486267518243
1049.3749509288118 8476.258826127509
1050.2678219343034 8376.081025014362
1051.1604717402515 8357.973349893948
1052.0529004107575 8288.696984422626
1052.9451080098825 8337.318471001205
1053.8370946016694 8266.02823603148
1054.7288602501267 8368.56905854931
1055.6204050192446 8154.4561902895975
1056.511728972977 8255.793867154649
1057.402832175254 8183.163786337832
1058.2937146899785 8126.993136880384
1059.1843765810263 8052.587746860496
1060.0748179122456 8218.593260723905
1060.9650387474576 8147.020841171985
1061.855039150456 8142.074303197657
1062.7448191850071 8061.6238548886595
1063.6343789148505 8023.919798434683
1064.5237184037014 8039.768968548304
1065.412837715241 7930.659968458506
1066.3017369131267 7947.638502880194
1067.190416060992 7960.257534313003
1068.0788752224398 7885.216827276701
1068.9671144610438 7853.203901819203
1069.8551338403558 7964.48758751372
1070.7429334239023 8034.41293446571
1071.6305132751695 7840.906629370242
1072.517873457633 7870.7929547911
1073.4050140347335 7745.108714971483
1074.2919350698776 7788.252289129497
1075.1786366264623 7742.428246998941
1076.0651187678395 7797.477452535769
1076.95138155735 7628.432104128714
1077.8374250582929 7713.814674882463
1078.7232493339507 7779.24221675454
1079.608854447577 7632.724864078327
1080.4942404623907 7568.914059316152
1081.3794074415982 7642.614281643141
1082.2643554483657 7617.952025058714
1083.149084545841 7609.510329199853
1084.033594797138 7517.574764746198
1084.9178862653516 7612.932481212246
1085.8019590135427 7660.656068990989
1086.6858131047484 7437.6932543608855
1087.5694486019802 7460.479693502168
1088.4528655682225 7539.651666883551
1089.3360640664287 7663.139283687237
1090.2190441595321 7530.12935161076
1091.1018059104317 7652.741639896415
1091.98434938201 7548.862176246958
1092.866674637111 7527.918612685731
1093.748781738559 7586.59765477108
1094.6306707491512 7430.751890272069
1095.5123417316554 7516.420737544283
1096.3937947488157 7448.677318374726
1097.2750298633455 7499.891040201843
1098.156047137938 7492.423404675923
1099.0368466352556 7581.292571403623
1099.9174284179317 7549.1194403516
1100.7977925485757 7406.493517170976
1101.6779390897755 7418.242014201128
1102.5578681040806 7437.613670340863
1103.4375796540226 7460.147973177607
1104.3170738021054 7441.955429711736
1105.1963506108077 7342.185325547247
1106.0754101425773 7436.277430703243
1106.9542524598382 7508.506140899551
1107.8328776249855 7389.429510625775
1108.7112857003904 7393.939597315036
1109.5894767483987 7442.619342249581
1110.4674508313292 7563.767120029728
1111.3452080114657 7533.261205745337
1112.2227483510815 7573.3400273989755
1113.1000719124077 7617.778772575165
1113.9771787576592 7839.350898443752
1114.854068949022 7693.116575779411
1115.7307425486542 7762.759158588038
1116.6071996186893 7825.795941177344
1117.483440221229 8136.102547466774
1118.3594644183577 8014.17834860626
1119.235272272128 8062.774864956436
1120.1108638445658 8167.714928170363
1120.9862391976712 8383.071994632948
1121.8613983934229 8316.83238744012
1122.7363414937627 8380.395803954483
1123.6110685606182 8452.185539929565
1124.485579655884 8505.455989742146
1125.359874841426 8467.002274067989
1126.2339541790916 8492.125343295562
1127.1078177306936 8840.601633191673
1127.9814655580267 8551.062907377054
1128.854897722851 8652.902008946834
1129.7281142869106 8729.39431997394
1130.6011153119125 8764.797513920686
1131.473900859548 8792.929500419166
1132.3464709914697 8646.274606232077
1133.2188257693178 8558.413947272717
1134.0909652546961 8642.783596098403
1134.96288950919 8445.359062469597
1135.8345985943506 8461.303081237067
1136.7060925717087 8347.259479714125
1137.57737150277 8358.814186266845
1138.4484354490069 8191.502810514748
1139.3192844718778 8151.5453849389405
1140.1899186327992 8000.450351463839
1141.060337993178 8055.73491172556
1141.930542614382 7958.058787449069
1142.8005325577597 7938.85364629432
1143.670307884635 7641.6396754203915
1144.5398686563003 7776.541255438216
1145.409214934025 7645.209085183085
1146.2783467790541 7541.0266099814935
1147.1472642526023 7420.650796460378
1148.0159674158622 7496.2818316037665
1148.8844563300026 7298.808276158619
1149.7527310561618 7332.192461694945
1150.6207916554504 7200.988375834752
1151.4886381889592 7227.459940460032
1152.3562707177498 7205.174542404415
1153.2236893028585 7087.847624536071
1154.090894005296 7124.012169894704
1154.9578848860474 7051.676923509067
1155.8246620060709 7045.758826549143
1156.6912254262988 7000.654448336529
1157.5575752076438 6954.64948228101
1158.42371141098 7135.919148849027
1159.2896340971656 6983.816957442563
1160.1553433270346 6930.676080912152
1161.0208391613887 6995.037255450858
1161.8861216610057 7009.588029683723
1162.75119088664 7028.871216735613
1163.6160468990201 6911.030730203493
1164.4806897588442 6859.212055744536
1165.3451195267917 6923.157534870879
1166.2093362635114 6985.245087571656
1167.0733400296285 6912.351844936723
1167.9371308857444 6786.378073337464
1168.8007088924278 6874.378892086749
1169.6640741102328 6957.4703994819865
1170.5272265996773 6864.266251255845
1171.390166421259 6599.565566338488
1172.252893635452 6879.32721324983
1173.1154083026995 6857.524615361763
1173.977710483421 6941.314347807592
1174.8398002380145 6858.807413458274
1175.7016776268483 6979.94823684358
1176.563342710264 6903.796634660344
1177.4247955485826 6860.669510065156
1178.2860362020947 6898.200635358019
1179.147064731069 6847.021144036696
1180.0078811957483 6988.524384134305
1180.8684856563486 6894.051053664542
1181.7288781730604 6965.119723164791
1182.589058806052 6990.798270146697
1183.4490276154593 7171.405650135626
1184.3087846614017 7144.900895770773
1185.1683300039676 7037.529089195761
1186.027663703222 7300.175357304235
1186.8867858192025 7054.719318579535
1187.7456964119228 7113.256042174736
1188.6043955413716 7225.050429891577
1189.4628832675116 7329.5058942721935
1190.3211596502842 7287.790493821625
1191.179224749596 7374.388033731794
1192.0370786253388 7342.490436635342
1192.8947213373758 7440.712638869673
1193.7521529455407 7467.377049879853
1194.6093735096438 7358.649310616017
1195.466383089477 7375.30201807203
1196.3231817447977 7511.424646938892
1197.1797695353398 7487.331069294511
1198.0361465208189 7405.47742839592
1198.8923127609214 7315.976979377714
1199.7482683153048 7465.565123314838
1200.6040132436028 7616.428681950829
1201.459547605431 7383.902981271771
1202.3148714603722 7186.607914809727
1203.1699848679855 7347.143298973364
1204.0248878878065 7309.657102144792
1204.8795805793507 7236.507230854191
1205.7340630020935 7238.460950299009
1206.5883352155033 7378.4787423780845
1207.4423972790064 7231.386087668814
1208.2962492520237 7142.091857956
1209.1498911939307 7196.227638610561
1210.0033231640937 7235.838813174555
1210.8565452218427 7129.1137596129065
1211.7095574264913 7012.149741681646
1212.5623598373222 7006.798883679088
1213.4149525135963 6946.757207833778
1214.2673355145507 6980.967561814881
1215.1195088993936 6874.737858608563
1215.9714727273113 6821.985919414119
1216.8232270574663 6913.597851387838
1217.6747719489904 6706.79689380968
1218.5261074609934 6723.102022961257
1219.3772336525653 6816.293461702373
1220.2281505827668 6836.98522508094
1221.0788583106296 6781.362112814999
1221.9293568951707 6612.2440259662635
1222.7796463953746 6620.136720782137
1223.629726870202 6655.848945983084
1224.4795983785934 6756.953614784799
1225.3292609794553 6644.900114054758
1226.1787147316809 6631.230376917413
1227.0279596941327 6698.0997723211285
1227.8769959256424 6684.419978806992
1228.7258234850306 6699.977048014419
1229.5744424310833 6541.793559581791
1230.422852822563 6689.788756982825
1231.2710547182105 6704.093818485581
1232.119048176739 6545.91675702045
1232.9668332568417 6509.199949272573
1233.8144100171812 6594.501628105638
1234.6617785163999 6627.5986675151435
1235.508938813111 6425.402354156292
1236.3558909659114 6498.081259137374
1237.2026350333617 6595.793144613645
1238.049171074008 6643.248816363467
1238.8954991463652 6526.293017405662
1239.741619308932 6488.146248864373
1240.587531620169 6624.149989627453
1241.4332361385277 6500.8073427843565
1242.2787329224248 6335.067732577546
1243.1240220302534 6359.616525007788
1243.9691035203869 6392.062671473763
1244.813977451171 6598.192694062408
1245.6586438809263 6481.411792994926
1246.5031028679496 6251.639512482745
1247.3473544705157 6479.647055587193
1248.1913987468706 6385.132426150276
1249.0352357552383 6316.446354405386
1249.8788655538228 6340.0038385758535
1250.7222882007918 6384.8279068274105
1251.565503754302 6350.924727972879
1252.4085122724755 6377.517145811196
1253.2513138134182 6434.522493798864
1254.0939084352049 6476.1849450983
1254.9362961958905 6409.201132631051
1255.7784771535007 6412.002400748373
1256.6204513660432 6388.8651260497445
1257.4622188915 6509.957261606696
1258.3037797878242 6432.383897306899
1259.1451341129468 6403.504081192431
1259.9862819247755 6352.3545532953085
1260.8272232811978 6420.9684138943785
1261.6679582400666 6576.324563902536
1262.5084868592203 6348.22206669521
1263.34880919647 6332.856754327664
1264.1889253095997 6411.478831571787
1265.0288352563712 6355.499680545445
1265.8685390945266 6302.6163694481675
1266.7080368817751 6331.756064264621
1267.5473286758115 6406.519685632431
1268.386414534294 6350.134863336626
1269.2252945148703 6278.7782660364155
1270.0639686751547 6239.872081190207
1270.9024370727402 6332.239642475267
1271.7406997651997 6264.4761851005405
1272.5787568100714 6239.428365035187
1273.4166082648808 6242.714585843447
1274.2542541871244 6164.1023962712325
1275.091694634275 6338.4792007178485
1275.9289296637817 6117.351090327452
1276.7659593330663 6147.8550827507715
1277.6027836995308 6181.413977798956
1278.4394028205552 6228.743170500023
1279.2758167534867 6148.043185251468
1280.112025555658 6236.249504144185
1280.9480292843746 6246.397237937145
1281.7838279969128 6165.185931893428
1282.6194217505326 6054.6427836472485
1283.4548106024686 6020.784395514128
1284.289994609926 6063.368981339345
1285.1249738300921 6178.258917504429
1285.959748320127 6041.653047627109
1286.7943181371702 6153.52287869933
1287.6286833383328 6228.049978469716
1288.4628439807038 6095.239718356248
1289.2968001213521 6008.700306162922
1290.1305518173194 6156.34717680689
1290.9640991256183 6193.249058585401
1291.7974421032523 6102.372583588652
1292.630580807183 6153.367489021949
1293.463515294361 6109.371254991739
1294.29624562171 6079.535615630803
1295.12877184613 5977.629085897819
1295.961094024493 6071.989429822448
1296.79321221365 6109.688100533215
1297.6251264704333 6201.857235698784
1298.4568368516466 6283.293510004176
1299.2883434140658 6182.577312459782
1300.1196462144526 6032.596309798615
1300.9507453095375 6176.244825780123
1301.7816407560313 6132.894435468222
1302.6123326106172 6134.255105796879
1303.4428209299622 5998.241875571362
1304.2731057707024 6200.293676338817
1305.1031871894502 6046.081410346118
1305.933065242798 6162.091058334744
1306.7627399873181 6099.330614656753
1307.5922114795467 6417.452209697332
1308.4214797760123 6253.951656306646
1309.2505449332057 6182.183257128745
1310.0794070076026 6163.7909272510715
1310.9080660556538 6257.60764643437
1311.736522133786 6206.749690121464
1312.5647752983987 6249.639331822407
1313.3928256058734 6138.052164611442
1314.2206731125661 6338.805613912134
1315.048317874809 6285.4363946176145
1315.8757599489109 6231.508783429132
1316.7029993911547 6306.653724571981
1317.5300362578055 6353.184740084336
1318.356870605101 6139.690519061815
1319.183502489257 6184.8234554551
1320.0099319664623 6276.189430888548
1320.836159092889 6277.747105293817
1321.66218392468 6297.2275452804515
1322.4880065179532 6181.003291564875
1323.3136269288134 6238.883189952408
1324.1390452133292 6370.698434074778
1324.9642614275563 6206.80523274472
1325.7892756275214 6294.621066599883
1326.6140878692295 6202.116048105467
1327.4386982086617 6474.985381699972
1328.2631067017755 6317.221675131668
1329.0873134045069 6248.305744029274
1329.911318372764 6221.89185898761
1330.735121662441 6229.913038794739
1331.558723329399 6249.436169308236
1332.3821234294774 6208.286422819724
1333.2053220185007 6233.58744973895
1334.0283191522612 6296.296123355278
1334.851114886529 6266.197163068168
1335.6737092770582 6231.008305297784
1336.4961023795695 6224.682899760002
1337.3182942497697 6383.092711064459
1338.1402849433325 6400.890992568995
1338.962074515921 6189.222496572497
1339.7836630231632 6114.471161823256
1340.6050505206676 6457.482171267565
1341.426237064028 6440.801533099373
1342.2472227088037 6539.82745417282
1343.0680075105338 6200.111033987143
1343.888591524741 6233.90434545497
1344.7089748069138 6398.208989887877
1345.5291574125276 6226.984920467136
1346.3491393970307 6176.8244104225105
1347.168920815846 6393.829571295793
1347.9885017243778 6287.033983748923
1348.8078821780036 6262.644877493795
1349.6270622320844 6377.52093466119
1350.4460419419447 6290.528683304627
1351.2648213629054 6404.409215540278
1352.0834005502438 6195.261441994777
1352.90177955923 6247.730072526205
1353.7199584451064 6467.93986940347
1354.5379372630887 6367.347042443946
1355.355716068374 6284.042816216001
1356.1732949161305 6218.608832041628
1356.9906738615155 6331.857160803873
1357.8078529596478 6370.042009004877
1358.6248322656375 6271.046520716274
1359.441611834567 6139.4769803513955
1360.2581917214866 6352.107299378882
1361.0745719814367 6106.353281242943
1361.890752669433 6093.970979356836
1362.7067338404577 6148.42605655082
1363.5225155494845 6297.3039583134605
1364.3380978514506 6324.243298164735
1365.1534808012839 5969.837929119498
1365.9686644538815 5964.950075248253
1366.783648864117 6216.76177967153
1367.5984340868417 6169.869850659695
1368.413020176893 6193.260989334678
1369.2274071890715 5873.528238501507
1370.0415951781652 6150.722376255368
1370.8555841989346 6123.429959025691
1371.6693743061223 5980.426862386717
1372.48296555444 5959.455000741915
1373.2963579985844 6044.834334259367
1374.1095516932255 5957.088018897481
1374.9225466930166 5862.836342560228
1375.7353430525782 6027.234335246451
1376.5479408265164 5899.403550556379
1377.36034006941 5977.082577381789
1378.1725408358216 6010.550258264763
1378.9845431802805 5805.617257001542
1379.796347157304 6109.215081414876
1380.6079528213813 5947.987823496407
1381.4193602269788 5828.33421707466
1382.230569428546 5907.8917221605025
1383.0415804805016 6097.474426377746
1383.852393437246 5980.869291998881
1384.6630083531563 5906.012401797158
1385.4734252825892 5881.516728316954
1386.2836442798798 5926.80902596545
1387.0936653993322 5870.939559206021
1387.9034886952395 5748.175123770474
1388.713114221864 5838.344633631792
1389.5225420334482 5786.300964428197
1390.331772184214 5733.018214061756
1391.1408047283585 5688.226985315627
1391.9496397200564 5638.440426844255
1392.758277213461 5889.640559444496
1393.5667172627054 5732.289380608711
1394.3749599218918 5675.151961200654
1395.1830052451114 5440.657871358874
1395.9908532864265 5749.6166023502155
1396.7985040998774 5850.586425395797
1397.6059577394808 5517.3284008643295
1398.4132142592352 5667.01648539778
1399.2202737131156 5483.536102013174
1400.027136155073 5558.43280856568
1400.8338016390353 5499.41638777012
1401.6402702189134 5587.726929623558
1402.446541948586 5515.6387330686575
1403.2526168819204 5438.070945055358
1404.058495072757 5477.180536455324
1404.8641765749107 5410.137561616607
1405.6696614421799 5418.832823429331
1406.4749497283356 5581.773902061513
1407.280041487129 5319.988258534511
1408.084936772295 5085.915948888376
1408.8896356375335 5333.852674579402
1409.6941381365323 5356.231782473204
1410.498444322955 5172.235804586429
1411.3025542504402 5158.970179297068
1412.106467972606 5333.411329900109
1412.9101855430508 5205.216652272511
1413.7137070153458 5047.728162554498
1414.5170324430437 5171.642252810258
1415.320161879672 5210.912038090561
1416.1230953787435 5374.696419486734
1416.925832993742 5114.80846878449
1417.7283747781275 4963.579827703693
1418.5307207853439 5191.132172920199
1419.3328710688093 4987.50036609201
1420.134825681922 4889.357085641821
1420.9365846780584 4935.32492578179
1421.7381481105713 5150.279840663532
1422.539516032788 5088.889721558219
1423.3406884980232 4887.5398892355
1424.1416655595604 4939.124503853838
1424.942447270665 4926.259011312513
1425.7430336845828 4992.531833371231
1426.5434248545298 4771.861830963839
1427.3436208337116 4869.767165000566
1428.143621675301 5072.985755314705
1428.9434274324558 5065.41339199477
1429.7430381583108 4844.190149237968
1430.5424539059713 4748.268944010647
1431.3416747285337 5328.734794193657
1432.1407006790632 4999.787507587835
1432.9395318106053 4849.764052031736
1433.7381681761835 4884.269108732494
1434.5366098288014 4781.592659281572
1435.3348568214424 4829.9347210034575
1436.1329092070573 4713.110110760006
1436.9307670385879 4790.655137184032
1437.7284303689503 4947.626459056989
1438.5258992510335 4978.496814998141
1439.3231737377118 4926.713725453045
1440.1202538818306 4847.164735064305
1440.9171397362225 4913.8435914608135
1441.7138313536925 4884.589398801769
1442.5103287870243 4845.679238132392
1443.3066320889775 4771.299880910605
1444.1027413122956 4995.522563578318
1444.8986565096966 4837.966072402143
1445.694377733882 4938.693909642277
1446.4899050375207 4779.712564567207
1447.2852384732687 4619.0116618836555
1448.0803780937622 5036.071227936379
1448.8753239516063 4761.603731755094
1449.6700760993954 4678.037880800538
1450.464634589689 4673.060842784221
1451.2589994750397 4962.9429914917555
1452.0531708079689 4606.282909502541
1452.8471486409799 4629.836016942668
1453.6409330265524 4813.302445950171
1454.4345240171442 4640.4805217264475
1455.2279216651987 4688.268083711713
1456.0211260231263 4687.544548350746
1456.8141371433194 4718.721964799877
1457.6069550781594 4883.275849640592
1458.3995798799897 4656.136812638537
1459.1920116011424 4551.722718273382
1459.98425029393 4639.379773704104
1460.7762960106338 4601.573674157
1461.5681488035225 4572.359169783848
1462.3598087248392 4644.26636803861
1463.1512758268036 4674.833102108965
1463.942550161617 4618.532151160418
1464.7336317814625 4512.5550838962945
1465.524520738496 4534.830659067526
1466.3152170848552 4513.92704559922
1467.1057208726506 4623.8777995381615
1467.8960321539817 4483.616364962587
1468.6861509809169 4452.436327441236
1469.4760774055085 4501.214573882705
1470.265811479785 4624.192044538949
1471.055353255755 4422.412306604636
1471.844702785409 4410.287841651863
1472.6338601207044 4514.872089181822
1473.4228253135934 5017.552972532636
1474.2115984159936 4491.77639231094
1475.0001794798063 4264.1591919566845
1475.7885685569145 4495.084301678821
1476.576765699172 4565.356206466433
1477.3647709584238 4485.10586585418
1478.1525843864802 4576.706066417731
1478.9402060351367 4621.088295283309
1479.7276359561693 4593.293612951506
1480.514874201328 4382.8226271526855
1481.3019208223468 4367.969371628185
1482.0887758709323 4352.986874659384
1482.8754393987747 4482.763044558646
1483.6619114575406 4270.28465297488
1484.4481920988783 4606.217038999203
1485.2342813744108 4588.008324641981
1486.0201793357446 4534.967887997106
1486.8058860344572 4410.280916445063
1487.591401522117 4392.322157612508
1488.3767258502594 4477.109664127003
1489.1618590704056 4516.922096530933
1489.9468012340494 4347.622260501588
1490.7315523926754 4452.219939161522
1491.5161125977356 4660.4443997041035
1492.3004819006637 4469.872047149143
1493.084660352877 4419.582103809102
1493.8686480057622 4400.757515121072
1494.6524449106964 4710.5520493586955
1495.4360511190262 4644.031477000206
1496.219466682087 4478.295432989244
1497.0026916511779 4551.388276133875
1497.7857260775945 4480.462955761575
1498.5685700125996 4533.28561226663
1499.3512235074395 4386.848463631849
1500.133686613337 4454.701395467398
1500.9159593814966 4436.417600566559
1501.698041863101 4699.5013300130895
1502.4799341093094 4307.828679452341
1503.2616361712662 4353.62240793604
1504.043148100087 4644.988961809066
1504.8244699468742 4537.083968483881
1505.6056017626997 4444.328026919569
1506.3865435986281 4261.241341558884
1507.1672955056893 4486.412911030257
1507.9478575348967 4351.001583262576
1508.7282297372512 4541.7711437278585
1509.5084121637192 4335.78572252429
1510.2884048652577 4430.813982491195
1511.0682078927948 4292.168239971733
1511.8478212972423 4320.297834056863
1512.6272451294917 4305.465080998298
1513.4064794404076 4458.42435425156
1514.1855242808433 4336.460723049381
1514.9643797016215 4366.154601801476
1515.743045753552 4456.634884212026
1516.5215224874191 4443.230313920374
1517.2998099539836 4130.521108327953
1518.077908203999 4344.029863604463
1518.8558172881785 4319.8259207829815
1519.633537257234 4503.850227044431
1520.4110681618404 4323.443168686853
1521.1884100526604 4362.204478544034
1521.9655629803365 4289.25414608808
1522.7425269954856 4479.228881601705
1523.5193021487103 4477.830280481869
1524.2958884905856 4298.675403813659
1525.0722860716687 4331.9115309691715
1525.848494942502 4314.198625377587
1526.624515153595 4346.729254698164
1527.4003467554485 4308.602667475787
1528.175989798534 4443.168633556136
1528.9514443333064 4211.791668491162
1529.726710410203 4525.548806206358
1530.5017880796331 4316.003547966922
1531.276677391992 4339.750170180172
1532.0513783976457 4479.418843608364
1532.825891146953 4384.586424708089
1533.6002156902414 4430.984747258613
1534.3743520778207 4336.496339217013
1535.1483003599806 4301.277912438226
1535.9220605869923 4329.854899812877
1536.6956328091019 4403.850825662327
1537.4690170765407 4400.146101089595
1538.242213439511 4443.819845924226
1539.015221948208 4341.323468810803
1539.78804265279 4251.808721246539
1540.560675603405 4167.733079756699
1541.3331208501804 4602.784291028493
1542.1053784432224 4629.263844545493
1542.8774484326168 4436.253913622394
1543.649330868422 4355.010680933449
1544.4210258006842 4537.455557802815
1545.1925332794308 4404.4207988194485
1545.9638533546604 4253.9611932366115
1546.7349860763552 4257.363902526269
1547.5059314944829 4575.812259118111
1548.27668965898 4365.279332349427
1549.0472606197673 4420.263950147327
1549.817644426752 4303.4519239916135
1550.5878411298072 4516.731638993159
1551.3578507787988 4384.541799354181
1552.1276734235635 4372.244446184309
1552.8973091139233 4407.147106113232
1553.6667578996767 4511.468908822911
1554.436019830604 4484.720807996166
1555.20509495646 4407.300221743346
1555.9739833269869 4282.769909144803
1556.7426849919011 4308.959439619148
1557.511200000903 4698.242343664642
1558.2795284036674 4374.45335359715
1559.0476702498509 4422.793888348764
1559.8156255890954 4514.943306622385
1560.5833944710157 4477.253997066115
1561.3509769452048 4408.054928584523
1562.1183730612447 4377.2733258120825
1562.8855828686865 4364.007632002916
1563.6526064170703 4544.015174688785
1564.4194437559127 4519.392685300268
1565.1860949347047 4302.77232828803
1565.9525600029283 4660.024562939343
1566.7188390100328 4533.162860092677
1567.4849320054564 4279.715463318428
1568.250839038612 4322.183375793758
1569.0165601588997 4289.416788911507
1569.7820954156887 4430.901987087118
1570.5474448583373 4325.065221497894
1571.31260853618 4196.419203544782
1572.0775864985299 4349.2915857958815
1572.8423787946813 4383.3580937696615
1573.6069854739108 4261.141471605746
1574.371406585471 4400.187140328344
1575.1356421785986 4355.333222891024
1575.899692302506 4374.182282658528
1576.6635570063845 4345.035219548925
1577.4272363394157 4279.933845204358
1578.190730350747 4377.048088274062
1578.9540390895163 4236.159892985205
1579.7171626048384 4130.51585975104
1580.480100945806 4239.757761083018
1581.2428541614918 4350.0744678898345
1582.0054223009538 4268.226296781434
1582.767805413223 4344.99539422315
1583.5300035473156 4223.408904460253
1584.292016752228 4417.765224720009
1585.0538450769309 4287.617981671411
1585.8154885703807 4191.928870957121
1586.5769472815136 4272.985409043388
1587.3382212592405 4278.842413600433
1588.099310552463 4328.084818925198
1588.8602152100484 3902.9937015874284
1589.6209352808564 4360.616158433064
1590.3814708137234 4363.496154656236
1591.14182185746 4310.4776312015865
1591.9019884608679 4354.083116490931
1592.6619706727215 4083.6482351108266
1593.4217685417734 4238.427972949001
1594.1813821167616 4537.722946639141
1594.9408114464022 4018.076259389938
1595.7000565793933 4336.687065466182
1596.459117564409 4314.249192094884
1597.2179944501113 4159.6567153640835
1597.9766872851324 4206.029434334854
1598.735196118092 4215.586246086857
1599.4935209975883 4435.981244947454
1600.2516619721973 4399.150011426833
1601.0096190904787 4328.625041864283
1601.7673924009723 4296.58175043165
1602.524981952196 4194.0207493067055
1603.2823877926476 4212.855528588149
1604.0396099708087 4193.559354716491
1604.7966485351371 4156.680475641922
1605.5535035340745 4136.871384065771
1606.3101750160404 4407.672640121938
1607.0666630294363 4204.850538998477
1607.822967622642 4030.386479825835
1608.5790888440224 4217.075674103622
1609.3350267419137 4369.017050082433
1610.0907813646445 4253.325103821511
1610.8463527605145 4278.450768167321
1611.601740977805 4379.025168590203
1612.356946064785 4263.93323378239
1613.1119680696902 4044.267914273535
1613.8668070407512 4139.389070881134
1614.6214630261748 4124.057544776343
1615.375936074137 4169.742286217573
1616.1302262328118 4334.783097384418
1616.8843335503425 4136.861244254088
1617.638258074854 4124.561573531369
1618.391999854457 4159.812435144646
1619.1455589372363 4233.395114933386
1619.8989353712623 4127.913688990176
1620.65212920458 3877.6352164303985
1621.4051404852235 4074.6651720657865
1622.1579692611976 3998.0680374497288
1622.9106155804966 3904.399301242088
1623.663079491087 4048.1859580760006
1624.4153610409248 4100.756004284294
1625.1674602779385 4032.1498906315637
1625.9193772500403 3884.8090316970156
1626.6711120051277 4154.9289633563585
1627.4226645910676 4066.811889008638
1628.174035055721 3763.9631629353294
1628.9252234469168 3871.868085960095
1629.676229812474 3927.45527561032
1630.4270542001905 4225.348362494673
1631.1776966578382 3984.5928103097167
1631.9281572331747 3872.890520174894
1632.678435973945 3862.6029406064604
1633.4285329278573 3950.4519742059288
1634.1784481426203 3861.5068130212685
1634.9281816659113 3860.3237742051497
1635.677733545388 4016.6248416045264
1636.4271038286934 3860.614095217022
1637.176292563452 3754.3014723206165
1637.9252997972635 3986.322601287852
1638.674125577716 3999.390675635397
1639.4227699523672 4150.394095504818
1640.171232968767 3744.6687303557037
1640.9195146744423 3955.013868391422
1641.6676151168977 3873.146218281335
1642.4155343436178 3949.7079199121154
1643.1632724020765 4006.793101017303
1643.9108293397167 3964.3771813617554
1644.658205203974 3807.076134553468
1645.4054000422566 4271.699304817992
1646.1524139019566 3839.127188266335
1646.8992468304423 3836.510163465055
1647.6458988750728 3773.776686263956
1648.3923700831765 3999.016713010294
1649.1386605020743 3790.1470090488706
1649.8847701790564 4009.914132372468
1650.6306991614038 3817.404963876779
1651.3764474963682 4009.813391683873
1652.1220152311944 3739.4272292671317
1652.867402413096 3938.8795633571053
1653.6126090892776 3789.809435802262
1654.3576353069184 3961.462686053059
1655.1024811131829 3870.7377356725437
1655.8471465552066 3889.236796338141
1656.5916316801213 3944.8908269003177
1657.3359365350298 3843.984102920823
1658.0800611670165 3817.8433002142892
1658.824005623148 3898.8806131786355
1659.5677699504722 3656.880335227038
1660.3113541960192 3804.830892523717
1661.054758406799 3852.810730335915
1661.7979826297997 3691.3577189560237
1662.5410269119966 3670.818053905134
1663.283891300338 3940.3851940217755
1664.0265758417645 3686.164522758843
1664.7690805831826 3748.9976226617305
1665.5114055714948 3834.3712789975507
1666.2535508535748 4006.0108712425545
1666.9955164762814 3598.1186663847047
1667.7373024864555 3683.45867406792
1668.478908930916 3767.9276172714262
1669.220335856462 3593.745937426816
1669.9615833098778 3630.9186675222854
1670.7026513379296 3404.2401231512063
1671.44353998736 3668.9743145002635
1672.1842493048916 3614.506028527531
1672.9247793372379 3535.97860477117
1673.6651301310812 3579.5977825157015
1674.4053017330934 3482.993852282246
1675.1452941899242 3543.6429274612556
1675.885107548207 3307.6979062169726
1676.6247418545518 3351.219069049412
1677.3641971555535 3430.5543411052486
1678.1034734977893 3572.951785063139
1678.8425709278108 3464.028534943526
1679.5814894921605 3581.025819683805
1680.320229237359 3385.1531572726076
1681.0587902098978 3531.36128282138
1681.7971724562685 3432.8254713101187
1682.5353760229264 3405.4169347263423
1683.2734009563173 3465.9137368551383
1684.0112473028657 3333.8746872952847
1684.7489151089794 3478.2102055899727
1685.4864044210462 3425.6272495548374
1686.2237152854377 3243.7394362293676
1686.960847748498 3431.4174425275523
1687.6978018565642 3210.5149010675364
1688.434577655944 3303.8864482601157
1689.1711751929379 3337.343160935
1689.9075945138156 3308.484302150989
1690.6438356648396 3227.239736754031
1691.3798986922448 3069.3994946550806
1692.1157836422499 3132.426990917961
1692.851490561059 3118.8556317339344
1693.587019494853 3223.8408043097143
1694.3223704897991 3150.741558808018
1695.0575435920364 3039.392704560713
1695.792538847696 3269.515523475603
1696.527356302886 3132.2908339617597
1697.2619960036936 2925.458299404735
1697.9964579961907 3149.9253562071926
1698.730742326432 2607.1757911477453
1699.4648490404488 2791.5727693680974
1700.1987781842563 2904.4474993282192
1700.9325298038548 3163.354971324532
1701.6661039452174 3103.6377940920165
1702.3995006543082 3041.0136683863675
1703.1327199770658 3073.8845195378517
1703.865761959416 2552.922067679632
1704.598626647261 3094.6329372057
1705.3313140864866 2952.199160352274
1706.0638243229587 2836.1498133082905
1706.7961574025303 3066.451250091319
1707.528313371029 2900.1447344873823
1708.260292274268 2708.3321103253597
1708.9920941580403 2878.1795896188787
1709.7237190681226 2911.983413142129
1710.4551670502697 2906.4088991390113
1711.18643815022 2601.535630711719
1711.9175324136959 3036.4083397392865
1712.6484498863938 2745.359113794262
1713.379190614005 2578.721892315926
1714.109754642188 3043.0061296069807
1714.8401420165883 2781.6759817699367
1715.570352782839 2769.1867919872834
1716.3003869865497 2871.395198549327
1717.0302446733076 2711.642945024564
1717.7599258886876 2713.3501946238553
1718.4894306782444 2981.4012598995005
1719.2187590875183 2728.5534855313367
1719.9479111620203 2829.5452613466523
1720.6768869472544 2706.261107286734
1721.4056864887025 2990.86687082729
1722.1343098318284 3051.1601615312097
1722.8627570220742 2721.5347735082596
1723.591028104871 2639.0457396382253
1724.3191231256242 2726.8882692628713
1725.0470421297232 2705.686956531482
1725.7747851625427 2710.5952362622893
1726.5023522694337 2774.0164952714626
1727.2297434957363 2717.5342606080803
1727.9569588867635 2516.902912959382
1728.6839984878152 2791.1330493227942
1729.4108623441734 2456.9011392525176
1730.1375505011038 2764.238067444242
1730.8640630038426 2646.9946022176173
1731.5903998976264 2553.3762195195477
1732.316561227657 2789.9725512487744
1733.0425470391274 2570.340613020243
1733.7683573772065 2757.81208859462
1734.4939922870508 2622.1106985190063
1735.2194518137949 2671.6002478108567
1735.9447360025606 2736.287113481666
1736.669844898439 2639.308081888094
1737.3947785465189 2599.9175843700955
1738.1195369918605 2495.3088396616836
1738.8441202795093 2523.309282103807
1739.5685284544943 2626.113225707587
1740.292761561821 2611.0268311095333
1741.0168196464838 2700.7187462967277
1741.7407027534518 2647.928081538625
1742.464410927687 2650.296879265464
1743.187944214118 2561.4385044420956
1743.9113026576688 2494.0973260917344
1744.634486303241 2545.1513128859197
1745.3574951957125 2587.23590503771
1746.0803293799509 2607.2421526472026
1746.8029889008048 2446.3762270465472
1747.5254738031017 2816.6347317255013
1748.2477841316504 2470.5329131989533
1748.969919931249 2415.063200115514
1749.6918812466665 2407.4285880656435
1750.4136681226646 2783.058269394316
1751.1352806039777 2493.699253014155
1751.856718735331 2361.320008495494
1752.5779825614281 2505.2616814195962
1753.2990721269507 2690.823500707984
1754.0199874765676 2711.7939011319877
1754.7407286549314 2360.2255208548668
1755.4612957066693 2468.8588656235556
1756.1816886763954 2469.720098116912
1756.9019076087097 2663.3684011955424
1757.6219525481865 2619.9992815109717
1758.3418235393856 2551.996773194617
1759.061520626854 2605.072030233548
1759.7810438551096 2640.7888985587992
1760.5003932686614 2440.5193667628773
1761.2195689119999 2853.3500520496627
1761.938570829594 2423.9891528461208
1762.657399065898 2512.460093098821
1763.376053665348 2444.098973061175
1764.0945346723602 2535.418071259068
1764.812842131334 2653.811818442487
1765.5309760866512 2348.98042716029
1766.2489365826787 2457.4905247790475
1766.9667236637597 2466.1408420454272
1767.684337374223 2319.364467549777
1768.401777758383 2252.214153268042
1769.1190448605284 2359.088352056136
1769.836138724937 2420.3252822632335
1770.5530593958665 2568.1968418518736
1771.2698069175603 2593.3431132390774
1771.9863813342326 2546.9629435913985
1772.702782690094 2505.1318181246907
1773.4190110293293 2514.8209600211926
1774.1350663961111 2643.894631183983
1774.8509488345844 2460.1880714489876
1775.5666583888924 2399.767720033111
1776.2821951031437 2693.1168433306666
1776.9975590214362 2471.070740246886
1777.7127501878585 2652.028280646439
1778.4277686464684 2408.14390707608
1779.1426144413108 2714.5776795814454
1779.8572876164162 2489.9180198172926
1780.571788215797 2472.1388921121807
1781.2861162834415 2423.1033749790076
1782.0002718633277 2361.969237061083
1782.7142549994132 2382.831334545544
1783.4280657356376 2482.6311620788074
1784.141704115922 2294.4808853336385
1784.855170184177 2402.9444994823666
1785.5684639842839 2440.321666220104
1786.2815855601148 2318.371863917627
1786.9945349555237 2582.9857353883726
1787.707312214343 2322.573429486752
1788.4199173803918 2472.7719137568156
1789.132350497468 2312.7879716798125
1789.8446116093583 2331.3299642614375
1790.556700759822 2411.0380437884205
1791.2686179926077 2163.100003382865
1791.9803633514493 2354.534560228848
1792.6919368800554 2244.6281959689873
1793.4033386221236 2539.376423662555
1794.1145686213295 2489.8029454483367
1794.8256269213307 2625.8024883112766
1795.536513565774 2436.9058770569404
1796.247228598284 2119.7031179877104
1796.9577720624693 2254.0429729878474
1797.6681440019165 2345.9067708669045
1798.3783444602013 2456.800042891203
1799.0883734808776 2419.6343947332766
1799.7982311074884 2431.6998441939136
1800.5079173835475 2247.380158876197
1801.2174323525633 2442.2383437861017
1801.9267760580187 2393.623723851478
1802.635948543386 2320.0346413654484
1803.3449498521113 2298.367002069841
1804.0537800276325 2447.9052982495964
1804.7624391133668 2282.9951705485664
1805.47092715271 2165.127443132893
1806.1792441890484 2135.8648746894523
1806.8873902657433 2364.6203135369374
1807.5953654261448 2245.911743480018
1808.3031697135812 2240.0503587719345
1809.0108031713662 2122.771630736503
1809.71826584279 2235.726568302393
1810.425557771141 2297.1373145942757
1811.1326789996747 2700.8600542140375
1811.839629571632 2342.297708492029
1812.5464095302468 2325.9510866563514
1813.2530189187182 2403.7564778864084
1813.959457780249 2131.866819576648
1814.6657261580076 2390.7440173933055
1815.371824095153 2205.476741936074
1816.0777516348262 2303.3851983652166
1816.78350882015 2106.3234684989065
1817.4890956942272 2092.334173410857
1818.1945123001533 2199.7509439689575
1818.8997586809928 2221.913095456611
1819.6048348798067 2217.2952934767936
1820.3097409396287 2190.8346222585155
1821.0144769034796 2494.731404616268
1821.7190428143622 2360.767890713841
1822.423438715261 2525.3999461367775
1823.1276646491478 2164.330454482633
1823.8317206589727 2302.7188201784493
1824.5356067876692 2178.9527884684244
1825.2393230781581 2158.441652989143
1825.942869573335 2181.6007697173854
1826.646246316086 2172.8216298861703
1827.3494533492758 2308.6974547800346
1828.052490715756 2275.6067579342757
1828.7553584583547 2234.981979895026
1829.458056619891 2336.6316246573406
1830.1605852431585 2131.1412349044213
1830.8629443709433 2080.5637075645927
1831.5651340460063 2192.662191240572
1832.2671543110919 2284.752514779623
1832.9690052089318 2199.1136364973136
1833.6706867822395 2051.0904199127917
1834.3721990737104 2354.05090901952
1835.0735421260233 2337.4392315493606
1835.774715981841 2288.2029310173534
1836.4757206838058 2427.4318595848795
1837.1765562745459 2037.419012803408
1837.8772227966747 2022.4015012241903
1838.5777202927839 2274.505510470254
1839.2780488054523 2132.136313323638
1839.9782083772352 2128.8978423989824
1840.6781990506806 2337.63865467999
1841.378020868313 2114.505388882947
1842.0776738726418 2250.1366151531724
1842.777158106157 2134.208931057752
1843.4764736113375 2085.2990299488015
1844.1756204306403 2307.9562868217185
1844.8745986065078 2258.8103256533345
1845.5734081813607 1960.136742151776
1846.2720491976124 1999.3569322150422
1846.970521697649 2037.9954585242024
1847.6688257238511 2164.4000288588986
1848.3669613185684 2082.205349493327
1849.0649285241452 2024.2914521694915
1849.7627273829057 2115.781375781098
1850.460357937156 2247.0309520218407
1851.1578202291857 1910.7800217335039
1851.8551143012664 2177.073786530967
1852.5522401956569 2256.016575097314
1853.2491979545957 2295.823734625911
1853.9459876203055 1988.994055972551
1854.6426092349902 2007.9790639606315
1855.3390628408451 1962.5922220602056
1856.0353484800362 2233.1015037700795
1856.7314661947203 2208.864112643686
1857.4274160270397 1990.2462012575063
1858.123198019115 2018.630125548083
1858.8188122130487 2122.350517652757
1859.5142586509319 2173.3869999167564
1860.209537374838 2091.0028599635393
1860.9046484268183 1931.264251223153
1861.599591848917 2297.328487788743
1862.294367683151 2045.364823262044
1862.988975971528 2051.1992946365863
1863.6834167560355 2143.14792717635
1864.3776900786452 2167.3017292578957
1865.0717959813119 2032.051401542353
1865.7657345059724 2078.853187707365
1866.4595056945564 2077.786384147696
1867.1531095889586 2137.9129581603406
1867.846546231076 2051.39434856796
1868.5398156627743 2174.7107333737063
1869.2329179259123 2078.538574900563
1869.9258530623283 2164.440013220282
1870.618621113843 2018.9421079415
1871.3112221222636 2034.621824952325
1872.0036561293764 1936.9629516969896
1872.695923176956 2149.381036275986
1873.3880233067594 2277.654765789358
1874.0799565605212 2041.6952973773405
1874.7717229799673 2045.0279314334384
1875.4633226068036 2163.900648104794
1876.1547554827175 2078.296721105199
1876.8460216493859 2066.743478756619
1877.5371211484617 2056.0547943841607
1878.2280540215852 2170.049241206012
1878.9188203103804 1958.4326388087368
1879.6094200564548 2149.5513988410494
1880.299853301396 1992.506219458456
1880.9901200867826 2212.283020285594
1881.6802204541673 2058.5483906525383
1882.3701544450942 2099.1515754398038
1883.059922101087 2090.8742919347396
1883.7495234636517 2310.348099628851
1884.4389585742792 2047.466162563765
1885.1282274744517 1998.9417486882598
1885.8173302056166 1962.3779717828704
1886.506266809225 1925.7685527542192
1887.195037326701 1897.6142813827814
1887.8836417994517 2066.0160140250796
1888.5720802688702 2317.8567765811536
1889.260352776333 2104.8401919199923
1889.9484593632042 2079.5974562377637
1890.63640007082 2033.748857181908
1891.3241749405151 1982.4821197154627
1892.0117840135954 2063.112936745751
1892.6992273313572 1900.4287623620883
1893.3865049350788 1925.379381332661
1894.0736168660223 2301.2763913536196
1894.7605631654333 2059.0045256330154
1895.4473438745408 1914.5034944722363
1896.133959034556 2198.963845692506
1896.820408686679 1959.4056476156043
1897.506692872088 2245.888653806153
1898.192811631945 1994.2170198971485
1898.8787650073991 2130.9789891732103
1899.5645530395832 2152.196677190622
1900.2501757696118 2219.719098021169
1900.9356332385796 1851.8018428707503
1901.620925487574 2147.0467279003624
1902.3060525576602 1966.6024443456524
1902.9910144898859 2132.9089059564185
1903.6758113252872 1953.2751100804435
1904.3604431048789 2006.3459321928156
1905.0449098696663 1987.599002029491
1905.7292116606295 1933.2490004227955
1906.4133485187394 2092.455931208885
1907.0973204849488 1729.0626830448623
1907.7811276001976 1954.2109308782997
1908.4647699053967 2018.5311176258633
1909.1482474414588 1743.6014444936147
1909.8315602492694 1842.551666572975
1910.5147083696957 2108.785027681909
1911.1976918436012 2012.1684279177184
1911.880510711815 1999.9522446935923
1912.5631650151681 1923.1705098385344
1913.2456547944657 1980.770501563315
1913.927980090495 1989.548072348984
1914.6101409440362 1942.9683269345528
1915.2921373958416 1935.1288280358026
1915.9739694866603 1923.6130960864484
1916.655637257214 2214.552778379594
1917.3371407482136 1957.9913486991622
1918.0184800003572 2160.468942853862
1918.6996550543154 2005.3808002357036
1919.3806659507554 2047.5669979609258
1920.0615127303208 2188.089427035209
1920.7421954336423 2088.131427794064
1921.4227141013343 1991.697831500403
1922.103068773993 1932.316468277718
1922.783259492202 2055.2207012113327
1923.4632862965227 1909.3442154158813
1924.1431492275078 1923.5766526691932
1924.8228483256917 1873.621332794127
1925.5023836315922 1954.259116079264
1926.1817551857057 1691.6162105070493
1926.8609630285227 2045.149704644639
1927.5400072005123 2021.648415958139
1928.218887742125 1851.2973027475207
1928.8976046938005 1771.6003795886913
1929.5761580959588 2069.7337995323014
1930.2545479890086 1995.0500092911593
1930.9327744133352 1764.2950494264746
1931.6108374093164 1975.2573350458522
1932.2887370173066 2148.098845234598
1932.9664732776473 2098.7266639000754
1933.6440462306673 2049.1645736125574
1934.3214559166754 1705.4608888668233
1934.9987023759659 1991.1208243973754
1935.675785648813 2033.9222539761108
1936.3527057754836 1679.5332820089473
1937.029462796223 2159.672520315636
1937.70605675126 1860.794067062699
1938.3824876808085 1911.3603432222244
1939.058755625072 1690.6775490557793
1939.7348606242267 1909.0297721140844
1940.4108027184448 1887.3685247210146
1941.0865819478713 2042.4373094846226
1941.7621983526478 1718.5549487043088
1942.4376519728921 1575.8897655166506
1943.1129428487038 1872.0254752247329
1943.7880710201734 1873.128190212799
1944.4630365273733 2018.3194661870752
1945.1378394103576 1746.2708157763561
1945.8124797091714 1692.6661218675472
1946.4869574638324 1638.8958053631752
1947.161272714353 1946.2747079985825
1947.8354255007234 1852.4710468730405
1948.5094158629272 1785.5253349248808
1949.1832438409183 1938.0414231962034
1949.8569094746435 2024.0162140960615
1950.530412804037 2077.189172668657
1951.2037538690092 2007.2627312687716
1951.8769327094578 1921.651850640943
1952.5499493652678 1876.6524704037395
1953.222803876306 1933.6076542338644
1953.895496282421 1853.3422966340927
1954.5680266234522 1912.1276026624982
1955.2403949392155 1892.9475016471547
1955.9126012695142 1743.0103121642362
1956.5846456541403 1684.1042906148546
1957.2565281328643 1625.1440700247217
1957.9282487454457 1842.1851427206966
1958.5998075316202 2010.7171944809998
1959.27120453112 2008.337877908795
1959.9424397836501 1780.7741570262672
1960.613513328908 1950.7951925531659
1961.2844252065697 1964.130843217537
1961.9551754563017 1949.9447319179012
1962.6257641177453 1650.764515988077
1963.29619123054 1801.3172261099185
1963.966456834296 1607.6903619166892
1964.6365609686181 1474.7878620181887
1965.306503673086 1881.355738887924
1965.976284987275 1723.721880397938
1966.645904950734 1811.3483101482186
1967.315363603002 1718.5047417649487
1967.9846609836077 1884.018201179717
1968.6537971320486 1916.3149669507723
1969.3227720878222 1685.8973194923387
1969.9915858904042 1715.0726752072344
1970.660238579252 1884.6052913979117
1971.3287301938108 1846.802707829429
1971.997060773514 1852.1624720312982
1972.665230357772 1857.753211858118
1973.3332389859843 1664.0251737982276
1974.0010866975335 1701.0677671191909
1974.6687735317864 1901.9271844571936
1975.3362995280932 1852.947981967051
1976.003664725793 1788.8999363037897
1976.6708691642052 1806.6623525307343
1977.3379128826364 1824.305349534789
1978.004795920373 1909.0582946718175
1978.6715183166925 1764.2027778293227
1979.3380801108524 2050.2922924217955
1980.0044813420973 1920.36108725868
1980.6707220496555 1582.2834473267653
1981.3368022727373 1649.362330993304
1982.0027220505417 1584.2355821582921
1982.66848142225 1519.120402510975
1983.3340804270283 1597.6896536780773
1983.999519104027 1802.7840919229868
1984.6647974923835 1892.9158103816746
1985.329915631215 1991.244779268233
1985.99487355963 1801.1419926494818
1986.6596713167146 2034.2875030845614
1987.3243089415428 1801.3983561854384
1987.9887864731754 1940.059917100701
1988.6531039506553 1686.427810372778
1989.3172614130071 1978.7112964616456
1989.9812588992481 1777.2746268425176
1990.645096448372 1626.0962374714031
1991.3087740993633 1702.500571216127
1991.9722918911848 1616.907849932542
1992.635649862792 1794.930362460584
1993.2988480531185 1907.3235226069053
1993.9618865010852 1765.895283658777
1994.6247652455968 1624.2591686056255
1995.287484325545 1510.926264588738
1995.9500437798033 1551.9044076759712
1996.6124436472292 1593.0394852009263
1997.2746839666706 1794.2764871263903
1997.936764776954 1831.2486792852203
1998.598686116895 1854.9682121883804
1999.2604480252903 1981.283887005456
1999.9220505409212 1706.2538200375154
2000.5834937025593 1556.974768864024
2001.2447775489582 1650.1614466733583
2001.9059021188514 1751.6408973767884
2002.5668674509616 1829.4357603456679
2003.2276735839987 1692.5827421716454
2003.8883205566508 1967.41269727875
2004.5488084075987 1591.6065540008676
2005.2091371755014 1722.9782453694643
2005.8693068990033 1646.6312972193543
2006.5293176167397 1775.331979983842
2007.1891693673224 1592.4301301235055
2007.848862189354 1471.5775401286126
2008.5083961214223 1517.8218996217875
2009.1677712020955 1564.2785833980874
2009.8269874699254 1540.1553413451138
2010.4860449634598 1920.5233658482598
2011.1449437212177 1881.3445622948373
2011.8036837817108 1842.1595935538503
2012.4622651834325 1981.9584350760201
2013.1206879648653 1860.1628905469836
2013.7789521644736 1984.7831595356868
2014.4370578207036 1848.4872235804862
2015.0950049719922 1711.7517997416296
2015.7527936567585 1756.4991981281012
2016.4104239134067 1742.1695960250818
2017.067895780323 1982.6598400312719
2017.725209295886 2008.214810230987
2018.3823644984514 2033.7920648624113
2019.0393614263648 1686.0504155459178
2019.6962001179545 1490.500226804988
2020.3528806115355 1465.8877123242407
2021.0094029454067 1441.216402034883
2021.6657671578487 1682.4220493198923
2022.321973287133 1592.826170853621
2022.9780213715148 1731.1717106480069
2023.6339114492293 1608.3011801562407
2024.2896435585026 1682.8245967161934
2024.9452177375442 1715.706439333352
2025.600634024544 1901.8354221684356
2026.2558924576842 1686.9713968429344
2026.9109930751292 1840.2206106119115
2027.565935915025 1568.1901729967942
2028.2207210155066 1881.2819507851382
2028.8753484146964 1839.8902823476449
2029.529818150695 1823.8767572339125
2030.1841302615903 1807.6939643826383
2030.8382847854573 1440.1184421917721
2031.4922817603601 1436.672627424491
2032.1461212243357 1745.203770849435
2032.7998032154192 1474.188826509016
2033.4533277716218 1633.7897122589407
2034.1066949309443 1482.5843795847259
2034.7599047313688 1646.5769792504739
2035.4129572108704 2008.825511833078
2036.0658524074006 1806.5944351443663
2036.7185903589016 1676.8182315714064
2037.3711711032956 1723.4048587397338
2038.023594678496 1588.0349556279884
2038.675861122394 1479.0926010396995
2039.3279704728757 1494.5383803303062
2039.9799227678031 1510.1569048488334
2040.6317180450278 1449.9429034537602
2041.2833563423865 1675.0121806948719
2041.9348376977014 1523.711390575816
2042.5861621487784 1621.3386474809163
2043.2373297334088 1812.7108063505561
2043.8883404893695 1734.3375752240197
2044.5391944544208 1770.6726289606845
2045.1898916663158 1777.8318523767498
2045.8404321627804 1986.2086207063257
2046.4908159815368 1801.759330406788
2047.1410431602853 1481.3712278761873
2047.7911137367173 1409.3366329699827
2048.441027748504 1464.433645192148
2049.090785233302 1519.5294032285744
2049.7403862287592 1476.433350650011
2050.389830772503 1428.2581681872105
2051.0391189021466 1380.0779534261562
2051.688250655294 1648.3508569914338
2052.337226069527 1603.2240537667938
2052.986045182417 1782.1502289691223
2053.634708031521 1406.1666926576713
2054.283214654375 1697.0598812945123
2054.931565088511 1344.2479662807414
2055.579759371436 1426.7308828715127
2056.2277975406523 1542.0609268096825
2056.8756796336384 1735.475685934849
2057.5234056878617 1402.663349102388
2058.1709757407752 1535.7944358639595
2058.8183898298194 1673.347450791758
2059.465647992416 1647.6509435952999
2060.1127502659747 1601.4242911354193
2060.759696687888 1516.6027750995486
2061.4064872955405 1817.0978345851836
2062.053122126292 1830.9770575356172
2062.699601217497 1413.0275677754043
2063.345924606485 1585.790944433653
2063.992092330587 1522.7974175148156
2064.638104427102 1678.8483505237186
2065.283960933324 1751.052511714126
2065.92966188653 1772.2307788346739
2066.5752073239855 1749.1280666887228
2067.2205972829397 1466.8374628317365
2067.86583180062 1572.11323383523
2068.5109109142522 1575.102565632782
2069.15583466104 1635.59510157945
2069.8006030781708 1696.14559899321
2070.445216202821 1620.591443429365
2071.089674072153 1783.1875622568696
2071.7339767233116 1646.0099293578583
2072.3781241934303 1592.0066661538035
2073.0221165196253 1819.9282694788094
2073.6659537390024 1543.351121495884
2074.3096358886505 1682.4769291387117
2074.953163005637 1415.9307653547016
2075.596535127028 1412.2369311937402
2076.2397522898664 1518.465209265192
2076.882814531182 1599.63299033059
2077.5257218879924 1638.4885749675436
2078.1684743973 1464.0345020678767
2078.8110720960885 1366.2372882098011
2079.453515021336 1789.674825718487
2080.095803209997 1693.0247511869825
2080.7379366990135 1591.6122855405933
2081.37991552532 1439.4392605408682
2082.0217397258275 1588.6195094533473
2082.6634093374414 1533.0130024364298
2083.3049243970418 1594.9229910593576
2083.9462849415067 1605.1373716331386
2084.587491007689 1638.5649026291626
2085.2285426324324 1719.5034410622186
2085.869439852564 1742.897322653355
2086.510182704902 1362.7719488146743
2087.1507712262483 1322.8710883828383
2087.791205453381 1282.875778746429
2088.4314854230743 1663.0839969982717
2089.0716111720867 1359.2617100336392
2089.7115827371617 1446.3294949579206
2090.351400155023 1445.8341282689412
2090.991063462385 1445.4113227134028
2091.6305726959527 1427.0198476019225
2092.2699278924047 1499.5903468235756
2092.9091290884153 1572.3703094196176
2093.548176320641 1415.1964518249765
2094.187069625721 1686.9113856498254
2094.8258090402887 1472.1607464488122
2095.464394600951 1487.8450296682392
2096.102826344313 1625.6007307348289
2096.741104306955 1692.0151116723432
2097.379228525453 1401.0728494482098
2098.017199036358 1366.1345980530268
2098.6550158762147 1675.2612304152724
2099.2926790815527 1560.2822974068285
2099.9301886888825 1681.2638148222886
2100.5675447347076 1688.9673408002793
2101.2047472555114 1857.6585009385835
2101.841796287761 1456.7498965511427
2102.47869186792 1542.52805359936
2103.1154340324265 1484.8202488890556
2103.752022817709 1624.3380732304745
2104.388458260184 1589.2280899620628
2105.024740396251 1611.2460469889916
2105.660869262292 1424.6017082107332
2106.296844894685 1724.760314114093
2106.93266732978 1689.7144329952002
2107.5683366039284 1276.393021996725
2108.2038527534532 1455.3144922098709
2108.8392158146726 1761.8943121720672
2109.4744258238843 1551.4688858936215
2110.1094828173755 1512.551136219216
2110.744386831422 1527.158908369282
2111.3791379022787 1541.8296744313523
2112.01373606619 1791.4487830138146
2112.648181359389 1514.4743004255713
2113.28247381809 1685.9701244521293
2113.916613478492 1583.8429501071273
2114.550600376786 1603.9822669071302
2115.1844345491445 1777.204813167114
2115.818116031729 1505.4283037741116
2116.451644860679 1515.5303214163505
2117.085021072133 1382.9350189673796
2117.718244702204 1323.228104424051
2118.3513157869984 1583.3408373911807
2118.984234362604 1428.2184005323193
2119.617000465092 1497.8854294617768
2120.249614130529 1715.7753578838997
2120.8820753949585 1414.4770772910454
2121.5143842944162 1388.6632062104304
2122.14654086492 1279.4332241542156
2122.7785451424734 1637.0042859645837
2123.4103971630702 1657.2650848497683
2124.042096962681 1677.7553121216035
2124.6736445772767 1446.8955891326825
2125.305040042802 1317.9780970068343
2125.936283395191 1558.409244218172
2126.567374670365 1512.1665259107097
2127.198313904233 1404.92841461135
2127.8291011326855 1368.0101008332144
2128.4597363916037 1330.851979644092
2129.0902197168507 1477.479667986911
2129.720551144279 1272.0900486593216
2130.3507307097225 1639.058587672369
2130.980758449008 1682.4723299781222
2131.6106343979427 1500.2031683908813
2132.2403585923203 1676.8829246627836
2132.8699310679276 1772.5679466740555
2133.499351860526 1494.9962005211264
2134.1286210058715 1626.88514760479
2134.7577385397053 1346.5137447780544
2135.3867044977487 1397.288632082675
2136.0155189157176 1749.7691706700402
2136.644181829308 1569.4109574224235
2137.2726932742025 1356.3088307172006
2137.901053286074 1713.5605840159465
2138.5292619005777 1550.5862370029902
2139.1573191533535 1555.716056172873
2139.7852250800315 1558.3754988956211
2140.4129797162295 1572.39696113273
2141.0405830975433 1251.3823788258483
2141.6680352595613 1266.4431297174574
2142.2953362378576 1281.5471472076922
2142.9224860679915 1482.407921099255
2143.549484785508 1334.634657754155
2144.1763324259373 1549.8596796137876
2144.803029024799 1425.8881767374999
2145.429574617594 1505.7925553175244
2146.0559692398165 1633.962377262663
2146.682212926942 1419.2545343994652
2147.308305714432 1345.213105205417
2147.9342476377333 1707.2220925287625
2148.5600387322847 1607.6892135310843
2149.185679033506 1641.7677614221109
2149.8111685768017 1591.8961779478957
2150.4365073975678 1503.8432149269897
2151.061695531187 1389.0093073248952
2151.686733013021 1630.5074627877111
2152.311619878423 1533.7210939425609
2152.9363561627342 1379.1496926540062
2153.560941901278 1229.3338213811735
2154.1853771293663 1526.73776785495
2154.809661882293 1702.5278690791615
2155.433796195348 1573.9335057191647
2156.0577801037944 1587.636748700853
2156.681613642895 1619.1929576071068
2157.3052968478896 1447.457245950371
2157.928829754006 1387.5149709923494
2158.552212396462 1397.0802992745425
2159.1754448104566 1467.2797222724882
2159.7985270311783 1353.4366877975126
2160.4214590938027 1135.1503539313258
2161.0442410334927 1308.938909566792
2161.6668728853874 1330.720459717911
2162.289354684628 1339.6736688921383
2162.911686466332 1528.503967614833
2163.533868265602 1603.6894853055326
2164.1559001175337 1799.4860678613957
2164.7777820572046 1746.4779613646945
2165.399514119681 1305.1668188403673
2166.021096340013 1210.0374840380841
2166.6425287532384 1320.86952703028
2167.263811394385 1431.960538849815
2167.8849442984574 1549.2297992870067
2168.505927500455 1503.2496212203273
2169.126761035366 1457.3330589535044
2169.7474449381552 1320.609535347059
2170.367979243778 1259.5387142831232
2170.9883639871823 1680.6486054228571
2171.608599203293 1268.2561399775966
2172.2286849270276 1812.7429406829274
2172.8486211932886 1945.4328687379802
2173.4684080369625 1290.4535940966205
2174.0880454929265 1274.9298508651027
2174.7075335960417 1486.545390241442
2175.3268723811543 1570.3996079686115
2175.9460618831 1401.5552862103284
2176.565102136701 1258.830657417015
2177.1839931767627 1318.237698365397
2177.802735038078 1377.8206749325402
2178.421327755432 1345.038753017058
2179.0397713635866 1564.0760693999378
2179.658065897298 1501.3396350719902
2180.276211391305 1438.37190477243
2180.8942078803357 1342.4003054201207
2181.5120553991 1524.7454479409414
2182.129753982299 1305.1954787573345
2182.7473036646206 1491.9076933755603
2183.3647044807367 1486.897886182802
2183.9819564653044 1241.0831755886143
2184.599059652968 1458.1472557970255
2185.216014078367 1678.4602573970526
2185.832819776113 1593.3923361278044
2186.4494767808137 1508.0313181301
2187.065985127063 1490.7006724003254
2187.682344849436 1471.8356537020793
2188.298555982501 1706.381589904219
2188.9146185608097 1452.651099220889
2189.530532618901 1404.9229203023542
2190.1462981912937 1426.4483481292168
2190.761915312507 1556.89277574094
2191.377384017036 1449.3349993243241
2191.9927043393654 1588.3422121374442
2192.6078763139667 1106.9351301379936
2193.2228999753006 1134.67261326895
2193.837775357808 1162.486024173228
2194.452502495922 1249.8838197952916
2195.0670814240602 1293.6204364320197
2195.6815121766285 1379.9413610130664
2196.2957947880186 1636.6303232255098
2196.9099292926057 1397.8407087755784
2197.523915724758 1611.087297571789
2198.137754118825 1364.9663492450377
2198.7514445091456 1587.0084975207699
2199.3649869300443 1424.613683189535
2199.9783814158327 1516.109881975034
2200.5916280008096 1830.581840671705
2201.2047267192593 1614.0349957129738
2201.8176776054515 1634.0980971644735
2202.430480693649 1341.81751808673
2203.0431360180955 1514.5554089364023
2203.6556436130195 1568.0574627463232
2204.268003512645 1277.4343757137246
2204.8802157511727 1568.1839428660696
2205.492280362796 1651.5312604391515
2206.1041973816937 1347.3537504579224
2206.715966842032 1541.4184931423852
2207.3275887779655 1282.4490957084952
2207.93906322363 1510.501287014701
2208.550390213153 1379.9720813436973
2209.1615697806465 1248.9206842526733
2209.7726019602105 1124.4837190575347
2210.3834867859277 1126.6746686907459
2210.9942242918787 1454.8854923307283
2211.6048145121167 1404.7000094830555
2212.2152574806914 1441.3210925186352
2212.825553231638 1477.9908351581585
2213.435701798975 1886.1057887421036
2214.045703216707 1359.3026175934506
2214.655557518832 1249.8257947286495
2215.2652647393297 1154.538463626622
2215.874824912169 1203.989703292741
2216.4842380713 1375.8815653405927
2217.09350425067 1420.2593590796694
2217.7026234842033 1357.9663675974098
2218.311595805819 1583.5831693826724
2218.9204212494133 1184.2576078378556
2219.52909984888 1715.9590939706966
2220.137631638092 1072.3876568714672
2220.7460166509154 1599.1834465752804
2221.354254921198 1541.9263360017367
2221.9623464827764 1254.891779794806
2222.5702913694713 1227.3245535397023
2223.178089615096 1344.9326395265266
2223.7857412534486 1374.9694467847014
2224.39324631831 1265.3219115936604
2225.000604843457 1482.736919093463
2225.607816862641 1387.3258526393834
2226.214882409611 1603.6272684622859
2226.8218015180973 1542.6584973113972
2227.4285742218217 1257.318698786467
2228.0352005544864 1376.7297044661773
2228.6416805497847 1332.6016601931956
2229.248014241399 1398.4911108959648
2229.8542016629945 1465.9022568365672
2230.460242848223 1533.4124266307945
2231.0661378307304 1569.1227436894137
2231.671886644139 1398.746531714058
2232.277489322065 1071.282294964176
2232.8829458981127 1000.7334843732009
2233.48825640587 1474.1573291841182
2234.0934208789095 1680.3666991559967
2234.6984393507955 1851.9180639459069
2235.3033118550793 1736.5964278406877
2235.9080384252975 1389.2351358688861
2236.5126190949723 1288.1150599140774
2237.1170538976166 1043.6973086108972
2237.721342866729 1002.1463127581503
2238.32548603579 1180.7681892248304
2238.9294834382763 1359.6669874975053
2239.533335107646 1202.4483481153768
2240.1370410773434 1267.2009372802565
2240.740601380803 1332.0505396417614
2241.3440160514474 1385.9965896976573
2241.9472851226783 1404.7649146470226
2242.550408627896 1489.810327837128
2243.1533866004793 1575.0230979990397
2243.756219073799 1430.4460657977702
2244.3589060812064 1473.0123504956975
2244.961447656049 1214.4258129111427
2245.5638438316564 1452.0348480944017
2246.166094641343 1525.903200885898
2246.7682001184166 1389.6609985486225
2247.3701602961664 1647.487762877695
2247.971975207871 1465.1210213762936
2248.5736448867974 1628.4411570895634
2249.175169366197 1505.0755522965696
2249.7765486793123 1394.7927537314806
2250.3777828593684 1451.017396888629
2250.9788719395783 1684.575211257034
2251.579815953146 1490.3675759170696
2252.1806149332606 1240.621989660118
2252.781268913097 1257.8073202733626
2253.381777925817 1122.6059416009805
2253.9821420045737 1461.151285130059
2254.5823611825035 1637.0856012905472
2255.1824354927303 1397.145983857518
2255.782364968365 1294.7361984360195
2256.38214964251 1192.2250148143862
2256.9817895482483 1094.1060954287527
2257.5812847186553 1151.2520617868304
2258.180635186791 1208.5281518185618
2258.779840985704 1323.8327141095785
2259.37890214843 1255.756687934229
2259.97781870799 1220.7205728369345
2260.5765906973957 1185.6318150752793
2261.175218149645 1296.8544157483507
2261.773701097718 1162.8137417697553
2262.3720395745895 1028.5102015215057
2262.970233613216 1168.5407813521183
2263.568283246548 1184.5938573795793
2264.1661885075137 1153.6511051859986
2264.763949429038 1340.973796294424
2265.3615660440246 1510.3288714840392
2265.959038385374 1315.5090586752492
2266.5563664859637 1311.1435028652825
2267.153550378669 1306.8340991055347
2267.7505900963424 1441.8626282492066
2268.3474856718312 1249.7112174736644
2268.9442371379664 1171.642411210462
2269.5408445275643 1166.744407870196
2270.1373078734377 1286.4056089079118
2270.7336272083758 1406.3249723712956
2271.32980256516 1439.9703091951717
2271.925833976562 1427.6635752371187
2272.5217214753357 1386.14447069282
2273.117465094223 1344.5145042995205
2273.7130648659586 1224.3768173587907
2274.308520823257 1302.5200366636618
2274.903832998827 1490.1832253082682
2275.4990014253563 1190.9485889695302
2276.094026135528 1564.0378308575198
2276.6889071620117 1139.1034936384608
2277.2836445374614 1566.8352019758684
2277.878238294519 1405.6369426020187
2278.472688465812 1247.2147406703157
2279.066995083962 1088.5112027269365
2279.6611581815705 1363.814216781907
2280.255177791232 1211.1836635463183
2280.8490539455233 1664.1495873636327
2281.442786677013 1665.5711506052103
2282.0363760182554 1659.3285527680916
2282.6298220017943 1298.0575744289838
2283.223124660155 1414.8124532871618
2283.816284025859 1324.2879392032476
2284.4093001314086 1668.0632811399319
2285.002173009292 1568.3263852667203
2285.5949026919952 1468.3526102892477
2286.1874892119777 1250.4926269189389
2286.7799326016993 1173.38490901998
2287.3722328936 1096.0358092360837
2287.964390120109 1038.9043618284309
2288.556404313642 1252.426760409708
2289.1482755066027 1216.4539028410848
2289.7400037313873 1180.3687720463074
2290.3315890203703 1386.4985092495958
2290.9230314059205 1337.048511196043
2291.5143309203904 1287.5599171747829
2292.1054875961236 1158.9274158982846
2292.6965014654506 1392.844426307627
2293.287372560684 1368.8648935168642
2293.878100914131 1727.411003056687
2294.468686558086 1646.662225718373
2295.059129524827 1565.7662325472697
2295.649429846617 1530.8568724117156
2296.239587555716 1660.0167472737653
2296.8296026843636 1739.094336884189
2297.419475264791 1818.2313307970853
2298.0092053292137 1672.791949468232
2298.598792909839 1434.19333220244
2299.1882380388597 1562.598128600497
2299.777540748455 1349.7854310075286
2300.3667010707904 1491.7493760884436
2300.9557190380256 1486.205714428469
2301.544594682302 1430.8341817239832
2302.1333280357503 1375.3808322941359
2302.721919130485 1487.0130322904213
2303.3103679986198 1653.5326304995
2303.898674672242 1422.9949454398215
2304.486839183437 1512.736861479128
2305.0748615642697 1231.2781097616667
2305.6627418468015 1314.0457686580603
2306.2504800630704 1307.4294203675004
2306.8380762451143 1258.7901070152743
2307.425530424949 1371.9533012032439
2308.012842634582 1485.3655460948276
2308.6000129060103 1634.7244325243068
2309.187041271214 1535.0509138087127
2309.773927762164 1435.1749930592423
2310.3606724108213 1350.5718729569699
2310.9472752491274 1246.2340889885595
2311.5337363090184 1520.3862149354823
2312.120055622414 1391.5230448530524
2312.706233221221 1339.256322480531
2313.2922691373424 1072.1995279592322
2313.8781634026564 1153.9016291756645
2314.463916049037 1235.7856422460195
2315.049527108342 1615.4996811201204
2315.6349966124235 1548.2579686005938
2316.2203245931123 1624.233367875953
2316.8055110822315 1286.1377321171537
2317.3905561115935 1426.3521720501262
2317.9754597129977 1239.395560318087
2318.560221918229 1297.0832404649539
2319.1448427590603 1354.930158653703
2319.729322267256 1071.081310303434
2320.313660474563 1499.4601151732613
2320.8978574127195 2100.3849112491134
2321.481913113452 1723.350292735577
2322.0658276084705 1538.0515075598635
2322.6496009294806 1352.269323392768
2323.233233108165 1646.9928954107352
2323.8167241762058 1578.9393508498301
2324.4000741652617 1388.1532338844547
2324.983283106987 1761.2271167661431
2325.5663510330232 1648.9758490113004
2326.1492779749933 1684.4496112518395
2326.7320639645204 1450.1118683811278
2327.3147090332004 1215.16425517582
2327.897213212629 1211.8270591279702
2328.4795765343843 1208.3929180598886
2329.0617990300307 1090.8220478850524
2329.643880731124 1275.0110267621747
2330.22582166921 1459.505255238433
2330.807621875816 1489.394587927657
2331.3892813824623 1132.9713900512136
2331.9708002206517 1230.7160970706236
2332.5521784218818 1374.5846142399573
2333.133416017634 1518.8052091700515
2333.7145130393765 1163.016493192525
2334.295469518571 1515.2343815967083
2334.876285486658 1484.482694856394
2335.456960975076 1450.2705199700179
2336.037496015242 1504.8947095652288
2336.6178906385667 1249.9197273234568
2337.198144876451 1287.3598649934672
2337.778258760278 1175.6596215042011
2338.3582323214214 1448.3827405346597
2338.938065591243 1721.7033734181957
2339.517758601087 1715.024512731472
2340.0973113822965 1548.0117027559156
2340.676723966193 1166.6975207384799
2341.255996384094 1325.021031147254
2341.835128667295 1417.9770665254557
2342.4141208470883 1358.8607945135727
2342.992972954751 1391.42358621075
2343.5716850215467 1489.9201455000143
2344.1502570787306 1507.0035052077988
2344.7286891575386 1524.044638163691
2345.3069812892045 1739.2120809564599
2345.885133504944 1552.682283956571
2346.4631458359618 1364.014660650754
2347.04101831345 1370.1455864098566
2347.6187509685915 1590.6736774121478
2348.196343832553 1406.7189680179188
2348.7737969364935 1191.1244576937813
2349.351110311558 1171.786394648033
2349.9282839888765 1152.4582298126334
2350.5053179995757 1079.8109782327886
2351.0822123747585 1318.675579947778
2351.658967145526 1712.1426972178622
2352.2355823429643 1129.7830613692372
2352.812057998144 1560.784713631637
2353.3883941421263 1102.072504788733
2353.9645908059647 1507.6425315178726
2354.540648020693 1310.332868700106
2355.116565817336 1391.0623157088714
2355.6923442269126 1165.018670641807
2356.2679832804224 1132.7420782336972
2356.8434830088518 1132.189256754812
2357.41884344318 1395.2945759906756
2357.994064614377 1478.167639920693
