#exp_cfg={"servo_angle": 0.0, "laser_lim": 100.0, "servo_angle_to": 18.0, "laser_wup": 0.0, "bt_dev": "EnSpectr-25AE3", "laser_wdn_max": 0.0, "frames": 10.0, "servo_used": 0, "servo_calib_use": 0, "laser_wdn_min": 0.0, "servo_pix_from": 90.0, "cooler_tout": 300.0, "servo_angle_from": 0.0, "servo_calib": "[-1.9174921013161362e-09, 3.9322238269163779e-05, -0.27385609119055809, 653.59552119713567]", "laser_autoctl": 0, "servo_pix_to": 3682.0, "laser_pw": 100.0, "cooler_on": 0, "laser_volt": 4.0, "cooler_autoctl": 0, "cooler_curr": 70.0, "cooler_startup": 10.0, "laser_fixed_pw": 0, "gain": 1.3, "offset": 2.53059635486, "servo_calib_degree": 3.0, "laser_curr": 55.0, "shutter": 8200.0, "servo_calib_step": 1.0, "laser_fixed_curr": 0, "exp": 2000.0, "ccd_volt": 4.7, "bt_addr": "00:06:66:62:5A:E3", "servo_delay": 500.0, "laser_autooff": 1}
#proc_cfg={"flat_auto_wnd": 200.0, "flat_auto_fr": 200.0, "flat_auto_shift": 5.0, "yconv": 1, "flatten": 1, "flatten_strength": 100.0, "xfrom": 300.0, "auto_max_frame": 2000.0, "auto_signal": 48000.0, "flat_auto_tol": 0.1, "autoclip": 1, "xrel_range": 0.0, "flat_auto_to": 4000.0, "intensity_adj": 1.0, "xrel": 7852.0, "rmhot": 1, "flat_auto_slit": 4.999999999999997, "auto_ini_exp": 300.0, "auto_off": 0, "xto": 2860.0, "flat_auto_ref": "", "flat_auto_rank": 1, "autobackg": 0, "xrel_adj": 0.0, "auto_black_lvl": 1, "base_wnd": 100.0, "sub_baseline": 0, "xconv": 2, "auto_max_exp": 1000.0, "auto_total_exp": 10000.0, "auto_exp": 0, "rmripple": 0, "black_lvl": 8267.175, "shutter_clip_adj": 0.0, "auto_bckg": 0, "flat_auto_thr": 0.9, "subbackg": 1}
316.8218498245369 17152.95768807832
317.89969571804795 16975.64567048386
318.977263876126 16978.629603549918
320.05455438786703 16781.750054100943
321.1315673423287 16722.03582147556
322.2083028285215 16784.756954896202
323.2847609354267 16599.676302668962
324.3609417519747 16522.642967755142
325.43684536705587 16383.115441762679
326.5124718695279 16331.648145247585
327.58782134820103 16408.68145663449
328.66289389184385 16226.759500291344
329.7376895891921 16055.265479371248
330.8122085289342 16162.854667529455
331.88645079971866 16050.896804746051
332.9604164901575 15988.374618477616
334.03410568881554 15867.414728547123
335.1075184842266 15982.135517599105
336.18065496487543 15762.140110248714
337.2535152192122 15842.587451357069
338.32609933564163 15802.600974687502
339.39840740253203 15595.35848489798
340.4704395082099 15568.041023787131
341.5421957409617 15566.168828273774
342.6136761890357 15616.229728672999
343.6848809406365 15548.443818466438
344.75581008392874 15418.143845828487
345.82646370703696 15420.427641817194
346.8968418980512 15367.251794372063
347.96694474501055 15403.279030403772
349.0367723359268 15361.979433367636
350.106324758759 15276.734720914577
351.1756021014353 15098.005466842365
352.2446044518383 15202.185954788569
353.31333189781435 15162.46549253336
354.38178452716966 15220.973090330377
355.449962427665 15169.596545653225
356.51786568702846 15171.713664362163
357.58549439294256 15264.828335042828
358.6528486330535 15256.005792861051
359.71992849496564 15199.563799969508
360.7867340662433 15171.289464033189
361.8532654344144 15188.869155074008
362.9195226869597 15305.526378656024
363.9855059113288 14945.072269783204
365.05121519492604 15057.764298722797
366.11665062511565 15319.172305492048
367.1818122892273 15243.152777883312
368.2467002745434 15200.867516973693
369.31131466831175 15260.117074447673
370.375655557742 15256.357488634787
371.4397230299983 15262.428603492435
372.5035171722102 15183.032476546821
373.5670380714637 15231.777724451744
374.6302858148101 15363.233092220084
375.6932604892554 15233.285738647543
376.7559621817709 15279.721462236874
377.81839097928605 15165.326388913541
378.8805469686886 15126.08406755027
379.94243023683157 15147.285509424231
381.0040408705263 15099.148675051401
382.0653789565458 15023.632247713238
383.1264445816196 15081.020394502342
384.1872378324406 15031.562311679303
385.2477587956637 15081.905976636906
386.3080075579037 14936.27903090117
387.3679842057336 14937.924694129095
388.4276888256918 14974.106825825967
389.48712150426945 14886.763157609766
390.54628232792857 14891.701059468633
391.6051713830857 14756.955214913654
392.66378875611736 14840.009483957529
393.7221345333637 14766.717638698556
394.7802088011249 14640.344556163758
395.838011645661 14664.180872616163
396.89554315319765 14649.890344968991
397.9528034099112 14526.850471146716
399.00979250194723 14506.470722316095
400.06651051541485 14447.87170328393
401.1229575363741 14507.970620513492
402.17913365085224 14498.1562445142
403.23503894483656 14407.451031693849
404.2906735042761 14292.12887365612
405.3460374150818 14268.323623596001
406.401130763119 14301.566762444703
407.455953634224 14243.550307433252
408.5105061141876 14277.698944140444
409.56478828876243 13997.067379464172
410.6188002436629 13962.01163760056
411.6725420645689 14010.13306762951
412.72601383711117 14031.309815288263
413.77921564689314 13992.076971472812
414.8321475794728 13864.467948539357
415.88480972036814 13905.420316699281
416.93720215506437 13973.410128571017
417.9893249690049 13805.209745689022
419.04117824759123 13728.029017584107
420.09276207619223 13691.014573679437
421.144076540133 13648.28457991173
422.1951217247042 13574.716990198236
423.24589771515275 13699.307524038875
424.2964045966928 13533.706656232276
425.34664245449494 13568.32233148381
426.3966113736933 13513.862028019983
427.4463114393875 13468.68478374836
428.49574273662984 13422.516329224489
429.5449053504417 13279.072682132723
430.5937993658026 13376.842211259496
431.6424248676558 13180.091370963191
432.6907819409007 13207.250877020098
433.73887067040596 13185.378379780483
434.7866911409965 13139.98044622465
435.8342434374608 13171.286143762987
436.88152764455117 13017.791345508165
437.9285438469724 12937.329526001535
438.9752921294057 12886.33556494801
440.02177257648145 12864.63649451632
441.06798527279716 12856.345601884543
442.1139303029122 12880.135830606563
443.1596077513459 12831.382278212877
444.2050177025794 12827.044017337841
445.25016024105753 12811.628049303226
446.2950354511886 12760.688440188716
447.33964341733736 12703.434799582848
448.383984223834 12718.509471094047
449.4280579549686 12664.833342937549
450.471864694995 12595.203642695926
451.5154045281306 12716.862727584474
452.5586775385509 12565.905934962959
453.60168381039693 12639.387880880964
454.64442342776783 12686.74678608935
455.6868964747264 12576.399214945164
456.7291030353008 12552.782541508654
457.77104319347563 12651.734742571227
458.8127170332027 12530.256031187379
459.854124638392 12562.96717811734
460.895266092919 12639.80888117615
461.93614148061897 12588.519477024105
462.97675088529104 12688.597129402155
464.01709439069236 12664.148807573478
465.0571720805492 12544.712632283443
466.0969840385442 12593.13871546038
467.1365303483253 12664.587371800171
468.17581109350067 12627.939849244684
469.2148263576437 12514.161263144379
470.2535762242878 12622.07188684417
471.29206077693016 12701.704816473846
472.33028009902773 12751.449970572392
473.3682342740012 12776.766195309843
474.40592338523857 12729.138905751024
475.4433475160804 12858.256072802138
476.4805067498364 12864.393948843608
477.51740116978 12995.015445253066
478.5540308591426 13001.94752321158
479.59039590112116 13282.123901235365
480.6264963788726 13290.81918906238
481.6623323755193 13572.313231946693
482.6979039741436 13678.349338741124
483.7332112577915 14016.646807097068
484.76825430947247 14225.5658233893
485.80303321215797 14326.43639149576
486.837548048783 14538.929104473753
487.8717989022425 14818.076946763575
488.90578585539697 14926.627320002011
489.9395089910686 14999.647861877063
490.97296839203955 14951.033056869419
492.00616414106116 14813.210884048323
493.0390963208429 14730.161342343232
494.0717650140559 14681.626358791711
495.10417030333883 14439.9393806554
496.1363122712901 14346.64515652131
497.16819100046814 14165.522852323815
498.1998065734024 13903.569548423091
499.2311590725767 13674.884001109289
500.26224858044407 13463.539249017607
501.2930751794156 13339.309245848077
502.3236389518679 13164.524511885675
503.35393998014115 12871.19303099768
504.38397834653733 12861.053334616416
505.4137541333221 12735.266265806365
506.4432674227228 12520.188182608215
507.4725182969323 12443.076359792572
508.5015068381035 12409.781242160643
509.53023312835467 12358.316982059008
510.55869724976765 12282.491783456182
511.58689928438434 12138.388174866366
512.6148393142121 12110.008948645343
513.6425174212218 12207.742727404957
514.6699336873462 12130.560820472037
515.6970881944835 12065.07761816432
516.7239810244901 12079.244282225625
517.7506122591931 12114.418888071876
518.7769819803761 12120.804443465198
519.8030902697901 12126.062463249045
520.8289372091476 12202.712679269674
521.8545228801249 12328.742022715047
522.8798473643619 12190.886117912349
523.9049107434621 12168.06418346833
524.9297130989908 12160.799258901718
525.9542545124805 12201.85006478079
526.9785350654201 12176.736581976673
528.0025548392696 12165.231049173191
529.0263139154504 12125.44328735285
530.0498123753423 12100.151962592165
531.073050300296 11969.602282794405
532.0960277716204 11893.655562568496
533.1187448705896 11909.65279931577
534.1412016784416 11837.891682391732
535.1633982763833 11753.55379991767
536.1853347455726 11718.63809628312
537.2070111671401 11613.33057308931
538.2284276221817 11614.49483126562
539.2495841917516 11553.354870159106
540.2704809568677 11422.520669349538
541.2911179985167 11455.921568677315
542.3114953976419 11250.186321527863
543.3316132351592 11306.24853227728
544.3514715919409 11117.673561352902
545.3710705488247 11108.56033391607
546.3904101866156 11055.61837878883
547.4094905860784 11092.324182689981
548.4283118279418 11013.125601993528
549.4468739929034 11032.598067860596
550.4651771616191 10867.238152331583
551.4832214147063 10795.8177052668
552.501006832761 10862.454100533325
553.5185334963226 10788.469881695466
554.5358014859103 10849.998162162707
555.5528108820035 10875.584935433102
556.5695617650363 10745.411351664963
557.5860542154242 10797.421324414147
558.6022883135283 10732.729280326119
559.6182641396881 10608.966242106533
560.6339817741991 10658.54178094913
561.6494412973225 10771.978502983351
562.6646427892883 10749.62034586053
563.6795863302796 10649.779048649409
564.694272000459 10702.410144186022
565.7086998799423 10756.915332390648
566.7228700488104 10671.041577773623
567.7367825871115 10669.383795246476
568.7504375748576 10654.40582625716
569.7638350920224 10672.382375912808
570.7769752185486 10756.750369175337
571.7898580343353 10641.770759166577
572.802483619258 10621.121720207233
573.8148520531431 10861.009732338065
574.8269634157932 10796.271790360986
575.8388177869692 10806.650052877352
576.8504152463938 10940.109627539818
577.8617558737587 11083.769044734958
578.8728397487175 11061.256839416827
579.883666950891 11236.009758617476
580.8942375598654 11380.876871122138
581.9045516551851 11528.82183005324
582.9146093163617 11784.827436217065
583.924410622878 11685.934570173076
584.9339556541727 11781.316356326874
585.9432444896538 11960.139517782987
586.9522772086875 11867.172487130136
587.9610538906127 11906.727241820794
588.9695746147318 11843.635498039537
589.9778394603054 11770.087937706176
590.985848506567 11766.76135000627
591.9936018327098 11692.410408113608
593.0010995178891 11421.090720080296
594.0083416412344 11491.066101229524
595.0153282818283 11195.673448798161
596.0220595187293 11237.178295772794
597.0285354309508 11097.923385411235
598.0347560974806 10949.924293273521
599.0407215972609 10873.062859214977
600.0464320092051 10810.409745362293
601.0518874121954 10805.605018551258
602.0570878850685 10708.736343071765
603.062033506636 10741.038709923883
604.0667243556636 10769.17191270446
605.0711605108936 10631.21525827973
606.0753420510264 10826.12969359566
607.0792690547278 10807.03297187916
608.082941600629 10727.974854883043
609.0863597673306 10732.858920820498
610.0895236333909 10854.07909576908
611.0924332773357 10958.118978529024
612.0950887776617 11062.201975826001
613.0974902128219 11034.697013015882
614.0996376612384 11264.793011877251
615.1015312013005 11416.117814723872
616.1031709113595 11483.378735042126
617.1045568697336 11529.683866661226
618.1056891547069 11791.478841238311
619.1065678445229 12072.145130060146
620.1071930173985 12379.710312903904
621.1075647515099 12440.718633201683
622.1076831250048 12693.653681779448
623.1075482159849 12905.198496033709
624.1071601025305 13171.12025819498
625.1065188626781 13459.587205430124
626.105624574433 13905.342632342295
627.1044773157682 13996.070620631119
628.1030771646128 14273.415295976354
629.1014241988742 14526.891274188489
630.0995184964158 14697.011672909513
631.0973601350688 14808.704340760329
632.0949491926294 15087.544891281126
633.0922857468631 14858.098729723706
634.089369875499 14853.096691670153
635.0862016562278 14900.83120366997
636.0827811667077 14593.047602735984
637.0791084845641 14567.636838904282
638.0751836873878 14201.505389290203
639.0710068527369 14266.370894500762
640.0665780581294 13793.361067344511
641.0618973810506 13590.557946072306
642.0569648989604 13388.378658385709
643.0517806892676 12999.5735326921
644.0463448293649 12718.90367531647
645.040657396592 12516.850961676682
646.0347184682723 12302.083615774518
647.0285281216875 11978.249030061626
648.0220864340772 11807.094549702251
649.0153934826558 11617.01972845301
650.0084493446047 11422.60885103678
651.0012540970674 11262.30965183528
651.9938078171526 11073.827789682198
652.9861105819346 10939.483532383787
653.9781624684565 10919.00750065241
654.9699635537254 10653.656064007733
655.9615139147136 10687.394018796396
656.9528136283589 10483.408420047863
657.9438627715699 10506.515020000183
658.9346614212154 10334.37922165717
659.925209654135 10197.557820042204
660.9155075471263 10231.674082496498
661.9055551769616 10173.392708349917
662.895352620375 10280.98098422594
663.8848999540678 10102.29363005851
664.8741972547068 10022.209383182453
665.863244598926 10028.800942501248
666.8520420633213 9990.5743556516
667.8405897244611 9942.18169456235
668.8288876588758 9826.975941524324
669.8169359430613 10044.022349587163
670.8047346534822 9917.195572792205
671.7922838665672 9870.40853020445
672.7795836587156 9867.345462297142
673.766634106285 9994.810105142731
674.7534352856092 9805.818843230789
675.7399872729766 9927.681050822936
676.7262901446538 9864.663643734744
677.712343976862 9810.226612265165
678.6981488457986 9975.920048156202
679.6837048276229 9762.96863285579
680.6690119984596 9826.95174256623
681.6540704344043 9821.579989751692
682.6388802115107 9792.865568648454
683.6234414058108 9755.283906927918
684.6077540932874 9646.044281200291
685.591818349907 9606.621637983588
686.575634251587 9569.356219709221
687.5592018742263 9530.941117936582
688.5425212936734 9429.367678423321
689.5255925857564 9551.490696677402
690.5084158262707 9402.105228109038
691.4909910909646 9441.5946098761
692.4733184555644 9299.804327916849
693.4553979957618 9345.70083218646
694.4372297872123 9323.686597675252
695.4188139055404 9273.711083217855
696.4001504263324 9217.580100196259
697.3812394251509 9243.282362512076
698.3620809775111 9264.788807561998
699.3426751589104 9183.442369084914
700.3230220448004 9133.54816139382
701.3031217106054 9248.381764655987
702.2829742317172 9274.593385457774
703.2625796834873 9162.36574572266
704.2419381412474 9036.289129765148
705.22104968028 9178.788389650854
706.1999143758458 9061.250467377115
707.178532303169 9065.039583063917
708.1569035374378 9075.567072231808
709.1350281538107 9066.607674949266
710.1129062274158 9083.52765622281
711.0905378333373 9223.744106854692
712.0679230466376 9091.316234382193
713.0450619423427 9196.160167886552
714.0219545954424 9265.38551960912
714.9986010808989 9132.311108751348
715.9750014736292 9242.41723453937
716.9511558485392 9370.79449430707
717.9270642804786 9366.44108360888
718.9027268442787 9425.673460965096
719.8781436147328 9355.813271316667
720.8533146666014 9308.715613074606
721.828240074612 9293.942436399982
722.8029199134635 9279.978724433942
723.7773542578125 9359.37749928306
724.751543182294 9154.935062861248
725.7254867615029 9297.055750757958
726.6991850700015 9128.489393627235
727.6726381823228 9095.926949462975
728.6458461729599 9102.526762986907
729.6188091163858 9035.609651356017
730.5915270870246 9017.44757581382
731.5640001592856 8898.399498708774
732.536228407529 8985.769234098567
733.5082119060917 8932.785792441935
734.4799507292755 8905.902133172296
735.4514449513481 8897.498257911491
736.4226946465496 8983.219024429285
737.3936998890786 8943.705742334514
738.3644607531078 8860.414989921019
739.3349773127793 8836.566130319505
740.3052496421951 8861.23788315103
741.27527781543 8810.981875876598
742.2450619065221 8798.776774321077
743.2146019894826 8789.927051472358
744.183898138288 8783.845075683917
745.1529504268801 8754.776898316839
746.1217589291682 8652.899933463206
747.0903237190341 8643.529025546006
748.058644870318 8725.646903811064
749.0267224568397 8666.8614573109
749.994556552374 8574.855100110715
750.9621472306771 8639.607123693391
751.9294945654583 8698.50960539648
752.8965986304011 8695.858642646843
753.8634594991636 8736.19280398552
754.8300772453586 8717.305375562068
755.7964519425768 8761.95553653837
756.762583664371 8782.81640761744
757.7284724842611 8779.282571657954
758.6941184757416 8735.164891655659
759.6595217122667 8700.565308639738
760.6246822672638 8772.748572256445
761.5896002141235 8674.281744062242
762.5542756262093 8653.301469799826
763.5187085768503 8748.223055839779
764.4828991393406 8666.85765933145
765.4468473869474 8705.010871797138
766.4105533929032 8628.510610206255
767.3740172304078 8522.267362160299
768.3372389726283 8656.368254005607
769.3002186926988 8442.704159765763
770.2629564637282 8372.338080507807
771.2254523587872 8485.221262896524
772.1877064509154 8288.911222050841
773.1497188131179 8284.733014025252
774.1114895183728 8167.967688037694
775.0730186396268 8255.879812133326
776.0343062497905 8213.6424451074
776.9953524217381 8113.473433252846
777.9561572283274 8198.622106443607
778.9167207423689 8169.026418814434
779.8770430366476 8085.625131876426
780.8371241839159 8096.021484444196
781.7969642568951 8090.691735873724
782.7565633282757 8202.875841007353
783.7159214707099 7973.491674883604
784.6750387568281 8013.784656137893
785.6339152592227 8036.073692523797
786.5925510504512 8052.188793044571
787.5509462030477 8070.753603860455
788.5091007895098 8080.663906976949
789.4670148823006 8051.539338716619
790.4246885538596 8064.245204572348
791.3821218765861 8059.053327789469
792.3393149228505 7978.074388708931
793.2962677649975 8101.338542308369
794.2529804753303 8175.847138560271
795.20945312613 8296.295234626623
796.1656857896378 8163.714521658728
797.1216785380675 8297.175966058512
798.0774314435985 8471.385533586088
799.0329445783846 8650.911637144343
799.9882180145414 8578.693165135071
800.9432518241574 8703.733331884934
801.89804607929 8802.454025292634
802.852600851962 8926.150655506175
803.8069162141637 8918.79236650758
804.760992237856 9071.892843758042
805.714828994971 9086.234353728247
806.6684265574077 9200.0588636952
807.6217849970271 9027.984440078459
808.574904385674 9057.572674302019
809.527784795142 8965.756531214687
810.4804262972102 9080.668464294791
811.4328289636178 8823.623702116703
812.3849928660748 8639.962887493426
813.3369180762638 8631.899883995578
814.2886046658241 8588.279328047545
815.2400527063783 8391.140596623469
816.1912622695108 8244.272293977801
817.1422334267718 8250.874338633974
818.0929662496856 8079.54248045794
819.0434608097457 7922.321601376565
819.9937171784059 7804.887921872342
820.9437354271013 7693.122829281319
821.8935156272255 7745.678539389928
822.8430578501484 7632.829544635514
823.7923621672016 7455.647226675208
824.7414286496896 7529.429177358591
825.6902573688876 7555.033731565102
826.6388483960363 7493.88751120308
827.5872018023492 7409.337445689326
828.5353176590033 7478.195177038021
829.4831960371503 7463.482697348966
830.4308370079016 7318.642317257957
831.3782406423525 7438.475765518172
832.3254070115545 7368.041822464111
833.2723361865319 7313.782813650893
834.2190282382799 7314.277527876441
835.1654832377644 7364.219356637312
836.1117012559116 7230.3539664065565
837.0576823636256 7361.181703671539
838.003426631778 7227.3575922424625
838.9489341312074 7156.371886731237
839.8942049327197 7332.064494748454
840.8392391070975 7326.661218734007
841.7840367250865 7253.746898259566
842.7285978573982 7218.177666969001
843.672922574724 7271.021642388053
844.6170109477152 7274.517125626316
845.560863046996 7246.815299103575
846.5044789431595 7146.074640368744
847.4478587067697 7185.859787409837
848.3910024083561 7325.026800105709
849.333910118421 7248.399093013494
850.2765819074339 7187.731152035963
851.2190178458332 7290.206305106907
852.161218004032 7305.304480072287
853.1031824524016 7271.107794461137
854.0449112612987 7229.961840955238
854.9864045010327 7311.881547256997
855.9276622418947 7226.105330477685
856.8686845541379 7271.790575522247
857.8094715079915 7192.05271513765
858.7500231736467 7303.446633503688
859.690339621271 7217.966951997829
860.6304209209939 7294.736762057325
861.5702671429244 7146.58101149774
862.5098783571284 7347.410186707025
863.4492546336569 7321.660730348917
864.3883960425155 7290.984819934267
865.3273026536863 7255.025114057382
866.2659745371238 7283.822975358029
867.2044117627465 7539.683209773214
868.1426144004472 7429.764216338653
869.0805825200823 7572.619371504879
870.0183161914847 7590.770317778598
870.9558154844526 7727.119404782362
871.8930804687552 7711.51288642402
872.8301112141307 7699.78604885887
873.7669077902865 7919.401225967313
874.7034702669062 7942.97764098684
875.6397987136315 7964.637417493241
876.5758932000863 7961.006285294221
877.5117537958522 8074.515282607053
878.4473805704911 8132.143603267017
879.3827735935283 8068.245208045681
880.3179329344603 8176.148545190612
881.2528586627541 8150.5266096192845
882.1875508478479 8238.394345209726
883.1220095591489 8222.412511106642
884.0562348660296 8153.26166042378
884.9902268378391 8266.167783377161
885.9239855438955 8211.601718032263
886.8575110534839 8106.872385422115
887.7908034358588 8095.149098317233
888.7238627602474 8051.972486049548
889.6566890958475 8010.0123257049
890.5892825118208 7794.712002763122
891.5216430773125 7788.619329886851
892.4537708614189 7770.676040801291
893.3856659332196 7677.723936844804
894.3173283617652 7448.465343113838
895.2487582160684 7528.447847861481
896.179955565116 7367.764470334335
897.110920477864 7252.366534036109
898.0416530232451 7288.618424746007
898.9721532701478 7152.854245483259
899.9024212874428 7229.03062009907
900.8324571439662 7109.808585029108
901.7622609085302 7022.135232627882
902.6918326499072 6897.502410109143
903.6211724368477 6907.664166943182
904.5502803380696 6955.861183446366
905.4791564222614 7043.749415715831
906.4078007580792 6837.087941199728
907.3362134141571 6814.731494138189
908.2643944590909 6862.507144489304
909.1923439614493 6744.606358674429
910.1200619897754 6785.604130223177
911.0475486125779 6910.485275948336
911.9748038983344 6750.107361564638
912.9018279155007 6705.144102642318
913.8286207324982 6689.935926789025
914.7551824177117 6703.312283851052
915.6815130395116 6719.128897914544
916.6076126662283 6621.392955757583
917.533481366163 6701.5501822861315
918.4591192075914 6676.516133650203
919.3845262587565 6697.469232271556
920.3097025878706 6631.83972016679
921.2346482631237 6640.716597413967
922.1593633526682 6612.936035337638
923.0838479246304 6741.482285337578
924.0081020471061 6666.769942767554
924.9321257881656 6567.500005597353
925.8559192158464 6598.16818097739
926.7794823981512 6590.607956471658
927.7028154030686 6534.089301957558
928.6259182985414 6508.281312546625
929.5487911524906 6646.063719041473
930.4714340328119 6606.0226761232625
931.3938470073608 6493.640282408643
932.3160301439748 6554.830416716026
933.2379835104548 6545.391174782176
934.1597071745709 6606.360606624519
935.0812012040769 6578.445004725322
936.002465666681 6499.520578050639
936.9235006300696 6547.831003247718
937.8443061619055 6539.395682031298
938.7648823298077 6420.079172950341
939.6852292013809 6424.161926930376
940.6053468441951 6610.188605626451
941.5252353257874 6365.19716730624
942.4448947136698 6403.229745830913
943.364325075323 6455.920868058996
944.2835264782043 6418.5092252229915
945.2024989897309 6394.306547481233
946.1212426773054 6370.739282260112
947.0397576082851 6388.995236291766
947.9580438500125 6421.927863138652
948.8761014697939 6456.923008795094
949.7939305349064 6479.628664676247
950.7115311125999 6414.036754282228
951.6289032700952 6394.45815045017
952.5460470745875 6440.240159444785
953.4629625932339 6374.421667389721
954.3796498931715 6497.285514604994
955.2961090415029 6450.137724132387
956.2123401053068 6426.9390623053005
957.1283431516276 6468.041976182035
958.0441182474842 6380.038592822379
958.9596654598663 6453.765196304672
959.8749848557309 6411.516196460854
960.7900765020167 6355.5347343419135
961.7049404656209 6313.583400614029
962.6195768134185 6376.172832811842
963.5339856122537 6362.649295567962
964.4481669289453 6391.7947146531305
965.3621208302793 6347.037506349787
966.2758473830145 6380.618554825006
967.1893466538822 6467.973572047999
968.1026187095813 6319.524011538506
969.0156636167867 6379.824982510059
969.9284814421426 6420.895356463725
970.8410722522622 6373.760326884507
971.753436113735 6377.007143758693
972.6655730931161 6284.008746162327
973.5774832569368 6445.347873571331
974.4891666716958 6295.406848514393
975.4006234038698 6348.752426081904
976.3118535198955 6243.436919272891
977.2228570861935 6436.604402622993
978.1336341691494 6418.5119044094545
979.0441848351202 6362.572742200466
979.9545091504333 6410.047131172007
980.864607181391 6450.26977920257
981.7744789942699 6396.773667640572
982.6841246553086 6402.308093800645
983.5935442307236 6421.248251344134
984.5027377867027 6478.624416000037
985.4117053894024 6457.529749302392
986.3204471049557 6415.2797348707
987.2289629994648 6503.252999790891
988.1372531390007 6574.167228934942
989.0453175896091 6445.2356779527445
989.9531564173067 6455.666915097734
990.860769688079 6445.0544219357025
991.7681574678918 6552.291574244949
992.6753198226706 6667.337149585428
993.582256818323 6630.728006441513
994.4889685207218 6673.037605065474
995.3954549957143 6810.82408220635
996.301716309119 6812.0747667067
997.2077525267232 6851.784045069833
998.1135637142943 6798.723842610563
999.0191499375615 6877.667817319272
999.924511262232 6879.887826225468
1000.8296477539861 6942.993606943621
1001.7345594784656 6875.587521217082
1002.6392465012996 6900.006699373347
1003.5437088880753 6935.798343869738
1004.4479467043584 6883.153348194183
1005.3519600156869 6750.3927118329375
1006.2557488875718 6801.599267646065
1007.1593133854858 6856.042343339844
1008.0626535748888 6815.19877958562
1008.9657695212009 6749.919649646987
1009.8686612898182 6882.9825108764435
1010.7713289461135 6756.056653406073
1011.6737725554212 6786.784919448597
1012.5759921830577 6750.853429598823
1013.4779878943027 6697.0900501370825
1014.379759754418 6670.193959678644
1015.2813078286254 6612.264470716754
1016.18263218213 6573.563372812321
1017.0837328801026 6531.886157672638
1017.9846099876886 6742.91130353253
1018.8852635700023 6466.6835888957
1019.7856936921362 6352.806889644381
1020.6859004191447 6544.343030901469
1021.5858838160675 6443.869350626765
1022.4856439479063 6320.89072847602
1023.3851808796389 6269.478958238689
1024.2844946762143 6429.756628459282
1025.183585402554 6322.811753401799
1026.082453123554 6154.190947067634
1026.9810979040776 6220.839822356352
1027.8795198089647 6162.593256487746
1028.777718903024 6266.474281365992
1029.6756952510368 6155.07391126758
1030.5734489177648 6160.556974803453
1031.4709799679313 6100.217786021825
1032.3682884662358 6203.972960242763
1033.2653744773506 6047.171752581487
1034.1622380659192 6071.977061869329
1035.058879296559 6113.841093770413
1035.9552982338591 6245.486162049764
1036.8514949423825 6165.996716575922
1037.7474694866614 6236.519655332285
1038.6432219312028 6299.708890135149
1039.5387523404825 6383.353507268328
1040.4340607789582 6401.0206439959
1041.3291473110476 6444.407441508186
1042.2240120011465 6636.124975979338
1043.1186549136273 6651.783010340533
1044.0130761128294 6627.463333853533
1044.9072756630649 6778.986133441991
1045.8012536286205 6888.710052838085
1046.6950100737577 6852.92298203772
1047.588545062701 7002.600944096394
1048.481858659663 6947.465115065405
1049.3749509288118 7058.600271774585
1050.2678219343034 6955.978870946274
1051.1604717402515 6928.928929123467
1052.0529004107575 6890.591897041918
1052.9451080098825 6945.676893880265
1053.8370946016694 6816.753748537402
1054.7288602501267 6866.591348534285
1055.6204050192446 6705.901462311949
1056.511728972977 6761.087495557098
1057.402832175254 6702.4029366251725
1058.2937146899785 6579.313691163408
1059.1843765810263 6588.423350689026
1060.0748179122456 6706.105444073735
1060.9650387474576 6581.569466284227
1061.855039150456 6546.426197368315
1062.7448191850071 6545.173632207639
1063.6343789148505 6486.97845944729
1064.5237184037014 6521.824879917722
1065.412837715241 6386.107768347583
1066.3017369131267 6408.3042608976275
1067.190416060992 6367.354936215113
1068.0788752224398 6289.186639373182
1068.9671144610438 6276.595372532803
1069.8551338403558 6382.911316171014
1070.7429334239023 6365.645985112898
1071.6305132751695 6294.678785169122
1072.517873457633 6276.383799330962
1073.4050140347335 6247.550507768128
1074.2919350698776 6220.585937449919
1075.1786366264623 6167.064122775954
1076.0651187678395 6063.180554507397
1076.95138155735 5998.231716332083
1077.8374250582929 5977.316468991405
1078.7232493339507 6019.585392797277
1079.608854447577 6010.291895586155
1080.4942404623907 5963.392185892832
1081.3794074415982 5954.9021835616195
1082.2643554483657 5952.465598571396
1083.149084545841 5983.412281907526
1084.033594797138 5762.437851576132
1084.9178862653516 5809.89879641102
1085.8019590135427 5830.795707615173
1086.6858131047484 5774.108564910077
1087.5694486019802 5795.656520632254
1088.4528655682225 5717.086143204376
1089.3360640664287 5970.021278476231
1090.2190441595321 5750.987188964513
1091.1018059104317 5800.853201001069
1091.98434938201 5795.662723470038
1092.866674637111 5853.853874559871
1093.748781738559 5812.918088997076
1094.6306707491512 5781.957267271515
1095.5123417316554 5875.0653155590835
1096.3937947488157 5842.3155286179945
1097.2750298633455 5702.042410772749
1098.156047137938 5644.6010648048
1099.0368466352556 5826.9936258685575
1099.9174284179317 5775.072903583623
1100.7977925485757 5693.926353018702
1101.6779390897755 5628.606460967263
1102.5578681040806 5755.673619142043
1103.4375796540226 5679.897832619228
1104.3170738021054 5595.886890167762
1105.1963506108077 5627.7378322780005
1106.0754101425773 5601.649632743268
1106.9542524598382 5694.247988444396
1107.8328776249855 5604.409041372235
1108.7112857003904 5667.089777312851
1109.5894767483987 5650.458446445913
1110.4674508313292 5830.285594146916
1111.3452080114657 5772.489919601515
1112.2227483510815 5820.20661685664
1113.1000719124077 5963.763082480836
1113.9771787576592 5991.997826111669
1114.854068949022 5942.8824151272465
1115.7307425486542 6056.4375016107415
1116.6071996186893 6268.417472622576
1117.483440221229 6373.054234435715
1118.3594644183577 6268.758631488633
1119.235272272128 6447.699305608001
1120.1108638445658 6627.928716336221
1120.9862391976712 6867.380248955395
1121.8613983934229 6860.006016945187
1122.7363414937627 6897.959745492156
1123.6110685606182 7063.640164606482
1124.485579655884 7252.073969132618
1125.359874841426 7276.114451416966
1126.2339541790916 7310.936446140193
1127.1078177306936 7481.617065026332
1127.9814655580267 7394.056065352143
1128.854897722851 7589.941862334132
1129.7281142869106 7607.222482037721
1130.6011153119125 7672.14043512296
1131.473900859548 7703.424144836247
1132.3464709914697 7495.828572936366
1133.2188257693178 7484.00553521341
1134.0909652546961 7512.7552469777565
1134.96288950919 7322.648117869469
1135.8345985943506 7339.23708080723
1136.7060925717087 7085.315097247153
1137.57737150277 7137.163043581216
1138.4484354490069 7000.981062955308
1139.3192844718778 6833.283623650603
1140.1899186327992 6687.66080275264
1141.060337993178 6788.9325986000495
1141.930542614382 6537.291691746478
1142.8005325577597 6501.611030983083
1143.670307884635 6207.216178361727
1144.5398686563003 6290.3820001618815
1145.409214934025 6110.616803976256
1146.2783467790541 5901.534264776174
1147.1472642526023 5869.584085490428
1148.0159674158622 5887.4859065850615
1148.8844563300026 5809.65060103469
1149.7527310561618 5645.494108778554
1150.6207916554504 5520.030940540217
1151.4886381889592 5504.090620492587
1152.3562707177498 5591.579944027465
1153.2236893028585 5503.285780441422
1154.090894005296 5366.207316921886
1154.9578848860474 5427.449517128323
1155.8246620060709 5347.1551438424
1156.6912254262988 5272.664896936268
1157.5575752076438 5241.893958436991
1158.42371141098 5368.606291623657
1159.2896340971656 5318.505089567308
1160.1553433270346 5209.795147330127
1161.0208391613887 5189.4424313036625
1161.8861216610057 5258.117539307286
1162.75119088664 5277.703951051542
1163.6160468990201 5054.512790022434
1164.4806897588442 5178.4848357275305
1165.3451195267917 5185.5919430164595
1166.2093362635114 5272.9686929247855
1167.0733400296285 5149.056010063466
1167.9371308857444 5009.350191035497
1168.8007088924278 5097.408920253969
1169.6640741102328 5225.81196394184
1170.5272265996773 5114.801270173799
1171.390166421259 4887.489699672189
1172.252893635452 5134.884035402565
1173.1154083026995 5258.4347883791215
1173.977710483421 5118.064731140903
1174.8398002380145 5105.70884971952
1175.7016776268483 5119.621587921014
1176.563342710264 5168.068861414864
1177.4247955485826 5093.65894782541
1178.2860362020947 5199.222725541296
1179.147064731069 5129.8013504997925
1180.0078811957483 5173.9544599459205
1180.8684856563486 5089.107831329873
1181.7288781730604 5234.806265796
1182.589058806052 5305.200705425018
1183.4490276154593 5447.256182623662
1184.3087846614017 5333.197948626091
1185.1683300039676 5312.978156658942
1186.027663703222 5494.89745914525
1186.8867858192025 5532.974586271808
1187.7456964119228 5539.385065548263
1188.6043955413716 5605.626739326706
1189.4628832675116 5712.857656886358
1190.3211596502842 5706.093741216823
1191.179224749596 5812.394256349502
1192.0370786253388 5700.891637849139
1192.8947213373758 5905.1357399115195
1193.7521529455407 5994.332180541557
1194.6093735096438 5906.304965817677
1195.466383089477 5910.9993181588125
1196.3231817447977 6127.277891735464
1197.1797695353398 6150.734343260052
1198.0361465208189 6043.578712404694
1198.8923127609214 5997.268799105172
1199.7482683153048 6108.2845460874705
1200.6040132436028 6131.575418456583
1201.459547605431 6097.454583557961
1202.3148714603722 6041.692684717802
1203.1699848679855 6073.4106786205575
1204.0248878878065 6140.887747685147
1204.8795805793507 5981.01593372055
1205.7340630020935 5973.8820262530135
1206.5883352155033 6087.864451765456
1207.4423972790064 5972.884464479563
1208.2962492520237 5889.385724943265
1209.1498911939307 5898.4460460987975
1210.0033231640937 5864.278993471818
1210.8565452218427 5747.377017934827
1211.7095574264913 5628.211384296078
1212.5623598373222 5534.3593856797615
1213.4149525135963 5428.6240912689445
1214.2673355145507 5569.815952970781
1215.1195088993936 5423.761232673034
1215.9714727273113 5386.787531313592
1216.8232270574663 5426.426050798274
1217.6747719489904 5207.593598756559
1218.5261074609934 5274.39585854969
1219.3772336525653 5266.032796088394
1220.2281505827668 5253.51465645364
1221.0788583106296 5342.760923180473
1221.9293568951707 5201.900344806233
1222.7796463953746 5111.703538234688
1223.629726870202 5151.80460286607
1224.4795983785934 5236.554275159259
1225.3292609794553 5115.407816910496
1226.1787147316809 5035.632830693586
1227.0279596941327 5184.453731349731
1227.8769959256424 5213.834269810364
1228.7258234850306 5205.787267870164
1229.5744424310833 5021.13077037679
1230.422852822563 5113.825902981991
1231.2710547182105 5211.602767881309
1232.119048176739 5108.095896542771
1232.9668332568417 5022.378964229896
1233.8144100171812 5111.132586042369
1234.6617785163999 5102.072692288421
1235.508938813111 4971.4409745387875
1236.3558909659114 5007.9027661514
1237.2026350333617 5117.615479801099
1238.049171074008 5104.420956993787
1238.8954991463652 5024.434248930775
1239.741619308932 4907.152755922021
1240.587531620169 4989.510477322242
1241.4332361385277 5070.755270361059
1242.2787329224248 4972.602787421012
1243.1240220302534 4985.1185257692705
1243.9691035203869 4887.55788762513
1244.813977451171 5123.5926358490915
1245.6586438809263 5082.391481725313
1246.5031028679496 4862.215758544385
1247.3473544705157 5055.647877688551
1248.1913987468706 4978.311758682476
1249.0352357552383 4859.750976323455
1249.8788655538228 4993.31027538739
1250.7222882007918 4994.255201806371
1251.565503754302 5000.767799258687
1252.4085122724755 4923.860436588895
1253.2513138134182 4940.086993025084
1254.0939084352049 4939.28563257676
1254.9362961958905 4945.183522556226
1255.7784771535007 4906.550728531776
1256.6204513660432 4982.0812647848215
1257.4622188915 5071.008245448299
1258.3037797878242 4907.598565155396
1259.1451341129468 4890.624090222043
1259.9862819247755 4980.0843728872005
1260.8272232811978 4906.518545461142
1261.6679582400666 5080.89141072493
1262.5084868592203 4794.236672843911
1263.34880919647 4818.150796521823
1264.1889253095997 4910.037724288766
1265.0288352563712 4926.218425647479
1265.8685390945266 4897.213131477901
1266.7080368817751 4940.811704353922
1267.5473286758115 4991.039057777714
1268.386414534294 4982.124184496355
1269.2252945148703 4742.478757029514
1270.0639686751547 4796.899794547712
1270.9024370727402 4821.913622997006
1271.7406997651997 4726.362337989526
1272.5787568100714 4711.332391048764
1273.4166082648808 4758.293898555034
1274.2542541871244 4781.720852410703
1275.091694634275 4939.441637334296
1275.9289296637817 4715.688020458052
1276.7659593330663 4738.34658660667
1277.6027836995308 4785.404921954596
1278.4394028205552 4772.296354456496
1279.2758167534867 4747.83435736135
1280.112025555658 4777.512024588403
1280.9480292843746 4767.866561540817
1281.7838279969128 4659.067603119844
1282.6194217505326 4674.037218818854
1283.4548106024686 4569.809663698826
1284.289994609926 4588.1599599586525
1285.1249738300921 4879.131265904629
1285.959748320127 4513.877574370909
1286.7943181371702 4656.013911839364
1287.6286833383328 4664.5205815376985
1288.4628439807038 4766.557667522267
1289.2968001213521 4538.087517960251
1290.1305518173194 4686.247798380797
1290.9640991256183 4772.284331018459
1291.7974421032523 4692.824631190737
1292.630580807183 4627.405694676581
1293.463515294361 4748.872679295669
1294.29624562171 4818.791247529222
1295.12877184613 4612.645254933732
1295.961094024493 4600.602734801438
1296.79321221365 4820.258447086902
1297.6251264704333 4727.267895870564
1298.4568368516466 4938.525332825264
1299.2883434140658 4745.896210316857
1300.1196462144526 4688.807043692456
1300.9507453095375 4770.140684802083
1301.7816407560313 4776.140521139517
1302.6123326106172 4837.878900406993
1303.4428209299622 4681.212583210023
1304.2731057707024 4901.937655630898
1305.1031871894502 4736.018654944105
1305.933065242798 4847.302687121425
1306.7627399873181 4903.750696948533
1307.5922114795467 5089.751172961978
1308.4214797760123 5086.759989953889
1309.2505449332057 4891.237992499091
1310.0794070076026 4998.125918498838
1310.9080660556538 5154.732135083258
1311.736522133786 5077.398665950316
1312.5647752983987 5005.844876262341
1313.3928256058734 4902.898605213391
1314.2206731125661 5074.066130876877
1315.048317874809 5049.002649040225
1315.8757599489109 4938.733300103625
1316.7029993911547 5126.437937991826
1317.5300362578055 5163.5204040088565
1318.356870605101 4953.684265423994
1319.183502489257 5028.245923017408
1320.0099319664623 5184.481270082341
1320.836159092889 5154.768797888196
1321.66218392468 5312.674013279075
1322.4880065179532 5065.732067130164
1323.3136269288134 5173.37463555336
1324.1390452133292 5226.958573893613
1324.9642614275563 5226.792974841477
1325.7892756275214 5269.900326144459
1326.6140878692295 5158.606822038751
1327.4386982086617 5451.957775290694
1328.2631067017755 5299.435550026328
1329.0873134045069 5262.3861969833915
1329.911318372764 5189.711464725455
1330.735121662441 5180.110682367035
1331.558723329399 5216.853216531147
1332.3821234294774 5182.225860121498
1333.2053220185007 5151.536956969628
1334.0283191522612 5285.927987230674
1334.851114886529 5289.09879391276
1335.6737092770582 5272.826832330992
1336.4961023795695 5284.394373976717
1337.3182942497697 5229.279231264435
1338.1402849433325 5279.213758087523
1338.962074515921 5105.358620078927
1339.7836630231632 5068.966811489639
1340.6050505206676 5534.444784189982
1341.426237064028 5462.337084102339
1342.2472227088037 5523.925893478564
1343.0680075105338 5158.603591582393
1343.888591524741 5200.899606370144
1344.7089748069138 5431.71272577063
1345.5291574125276 5244.19565370138
1346.3491393970307 5203.64770766121
1347.168920815846 5315.592920721068
1347.9885017243778 5413.642764754074
1348.8078821780036 5323.110087667904
1349.6270622320844 5332.74847368698
1350.4460419419447 5259.053551537051
1351.2648213629054 5437.827711741581
1352.0834005502438 5228.512209872134
1352.90177955923 5363.742350967694
1353.7199584451064 5729.462412309857
1354.5379372630887 5414.117504731831
1355.355716068374 5322.214365877413
1356.1732949161305 5412.438063351383
1356.9906738615155 5434.389089467215
1357.8078529596478 5401.5278327548185
1358.6248322656375 5430.173482046673
1359.441611834567 5316.177010136
1360.2581917214866 5577.938677882199
1361.0745719814367 5239.329718119728
1361.890752669433 5207.652265162686
1362.7067338404577 5262.8239450754945
1363.5225155494845 5342.250680010855
1364.3380978514506 5365.667706952734
1365.1534808012839 5179.593264411864
1365.9686644538815 5063.425979484975
1366.783648864117 5307.595042304811
1367.5984340868417 5259.964281033463
1368.413020176893 5208.910573828278
1369.2274071890715 5006.292819396659
1370.0415951781652 5229.752516957573
1370.8555841989346 5209.292666067619
1371.6693743061223 4963.595721086246
1372.48296555444 5092.112770528387
1373.2963579985844 5192.444530567452
1374.1095516932255 5081.84537761377
1374.9225466930166 4991.372590809372
1375.7353430525782 5020.325480670066
1376.5479408265164 4999.727329994965
1377.36034006941 5079.550589545599
1378.1725408358216 5021.112506900424
1378.9845431802805 5038.010555916733
1379.796347157304 5153.369182292569
1380.6079528213813 5088.997034938992
1381.4193602269788 4849.3878498510785
1382.230569428546 4948.195118586903
1383.0415804805016 5105.569853749079
1383.852393437246 5134.329563159881
1384.6630083531563 5052.530424270198
1385.4734252825892 4920.634080957638
1386.2836442798798 5026.115262756195
1387.0936653993322 5006.3169707404895
1387.9034886952395 4937.4365200835955
1388.713114221864 5061.107223072732
1389.5225420334482 4989.286635906825
1390.331772184214 4927.00093213337
1391.1408047283585 4869.436151699297
1391.9496397200564 4836.00587897056
1392.758277213461 5043.150174107741
1393.5667172627054 4963.185684429738
1394.3749599218918 4788.550811065243
1395.1830052451114 4677.982827133144
1395.9908532864265 4812.636227478337
1396.7985040998774 5050.059803562588
1397.6059577394808 4719.223601629499
1398.4132142592352 4854.557577703222
1399.2202737131156 4644.787001043469
1400.027136155073 4748.5655001771465
1400.8338016390353 4720.570539832162
1401.6402702189134 4685.379870564837
1402.446541948586 4743.937837085041
1403.2526168819204 4569.124018739354
1404.058495072757 4657.442359091132
1404.8641765749107 4568.93999879893
1405.6696614421799 4664.987478917602
1406.4749497283356 4809.732056331441
1407.280041487129 4452.265709085677
1408.084936772295 4413.387772509419
1408.8896356375335 4617.52292129451
1409.6941381365323 4623.383426143223
1410.498444322955 4331.94682387512
1411.3025542504402 4401.749309980966
1412.106467972606 4426.803746595387
1412.9101855430508 4453.116555810528
1413.7137070153458 4299.27245083676
1414.5170324430437 4277.729443107222
1415.320161879672 4312.809203818248
1416.1230953787435 4510.460464516025
1416.925832993742 4194.041206927839
1417.7283747781275 4144.724465614805
1418.5307207853439 4267.106707758992
1419.3328710688093 4383.563882449916
1420.134825681922 3990.3339312697144
1420.9365846780584 4106.429266084328
1421.7381481105713 4267.893542078764
1422.539516032788 4302.225388910536
1423.3406884980232 4070.017040967624
1424.1416655595604 3997.7132383813514
1424.942447270665 4031.1508754959345
1425.7430336845828 4077.464978943351
1426.5434248545298 3798.283996380445
1427.3436208337116 4025.938642146598
1428.143621675301 4157.2048497158075
1428.9434274324558 4172.759171853461
1429.7430381583108 3836.7769742932637
1430.5424539059713 3931.1965767574816
1431.3416747285337 4264.675299646785
1432.1407006790632 4109.5209437631065
1432.9395318106053 4054.8293780725508
1433.7381681761835 3935.715720958363
1434.5366098288014 3974.2531829406093
1435.3348568214424 3991.273464817641
1436.1329092070573 4000.8479449543265
1436.9307670385879 3971.303831869039
1437.7284303689503 4106.531023241196
1438.5258992510335 4230.153997140364
1439.3231737377118 3994.8439353756794
1440.1202538818306 3981.3776412601865
1440.9171397362225 4033.4676498453023
1441.7138313536925 3967.3541414446904
1442.5103287870243 3902.3146789019665
1443.3066320889775 3844.5529143221456
1444.1027413122956 4084.8748493699177
1444.8986565096966 3845.09042906451
1445.694377733882 3894.379720817183
1446.4899050375207 3768.742846761123
1447.2852384732687 3791.832902728377
1448.0803780937622 4045.6277348346944
1448.8753239516063 3851.357888239368
1449.6700760993954 3727.3609093397217
1450.464634589689 3757.3329809100733
1451.2589994750397 3997.549217936379
1452.0531708079689 3779.6978192236434
1452.8471486409799 3756.4904212161296
1453.6409330265524 3922.0086147967036
1454.4345240171442 3743.3559829556916
1455.2279216651987 3850.0667938827382
1456.0211260231263 3838.9120937519133
1456.8141371433194 3802.3095356708336
1457.6069550781594 3830.5981304327966
1458.3995798799897 3751.122191994077
1459.1920116011424 3801.550255435567
1459.98425029393 3714.9902322455864
1460.7762960106338 3757.862837735315
1461.5681488035225 3735.0124080359155
1462.3598087248392 3781.3011453364256
1463.1512758268036 3841.561265257797
1463.942550161617 3711.846062813575
1464.7336317814625 3723.073004837353
1465.524520738496 3743.070002336721
1466.3152170848552 3698.8597182480858
1467.1057208726506 3874.3028606728412
1467.8960321539817 3657.5345915952503
1468.6861509809169 3564.4084158997684
1469.4760774055085 3629.660891930499
1470.265811479785 3835.3684364661945
1471.055353255755 3548.245828339772
1471.844702785409 3738.006410763793
1472.6338601207044 3662.8117824958513
1473.4228253135934 4187.978419534431
1474.2115984159936 3677.617610289595
1475.0001794798063 3492.989082696104
1475.7885685569145 3810.995020468096
1476.576765699172 3754.8846963905025
1477.3647709584238 3617.5226383408544
1478.1525843864802 3854.0173944861476
1478.9402060351367 3756.4166975881585
1479.7276359561693 3843.7061595351706
1480.514874201328 3710.132065224227
1481.3019208223468 3717.371070759963
1482.0887758709323 3664.2538629646356
1482.8754393987747 3814.9797246348294
1483.6619114575406 3558.4072871829376
1484.4481920988783 3825.9246122502313
1485.2342813744108 3868.86327433683
1486.0201793357446 3925.5929167630684
1486.8058860344572 3675.4656399346486
1487.591401522117 3836.1643731474987
1488.3767258502594 3756.7766459963073
1489.1618590704056 3774.727200736743
1489.9468012340494 3686.941244132156
1490.7315523926754 3874.9519454718793
1491.5161125977356 3916.7657620049163
1492.3004819006637 3836.4801394172196
1493.084660352877 3736.942906574579
1493.8686480057622 3845.2970479949354
1494.6524449106964 4005.033703978677
1495.4360511190262 3898.1142784819
1496.219466682087 3766.586734046575
1497.0026916511779 3850.623801744559
1497.7857260775945 3797.232901676717
1498.5685700125996 3903.507850789175
1499.3512235074395 3690.2612697429804
1500.133686613337 3748.7223038711454
1500.9159593814966 3747.9915044115014
1501.698041863101 4089.7996721994446
1502.4799341093094 3565.6870986353592
1503.2616361712662 3634.9594211341655
1504.043148100087 3821.7744127382284
1504.8244699468742 3870.1670636135364
1505.6056017626997 3784.62367341226
1506.3865435986281 3600.891319030611
1507.1672955056893 3833.833305308611
1507.9478575348967 3663.313458901813
1508.7282297372512 3822.5289077665793
1509.5084121637192 3725.350741896279
1510.2884048652577 3734.985370334397
1511.0682078927948 3729.121936134177
1511.8478212972423 3672.4863790357545
1512.6272451294917 3550.9879358817043
1513.4064794404076 3693.8233709918845
1514.1855242808433 3693.6700436791316
1514.9643797016215 3805.1856991910363
1515.743045753552 3718.4588776459614
1516.5215224874191 3817.3207902274235
1517.2998099539836 3416.0614868717553
1518.077908203999 3597.524635264663
1518.8558172881785 3705.7264854019545
1519.633537257234 3763.7122719945937
1520.4110681618404 3673.086321677701
1521.1884100526604 3776.6957721852655
1521.9655629803365 3802.301668428626
1522.7425269954856 3849.9717386403877
1523.5193021487103 3897.6694577408925
1524.2958884905856 3553.265207868552
1525.0722860716687 3609.859215980853
1525.848494942502 3711.266531395654
1526.624515153595 3724.335725081886
1527.4003467554485 3779.781385606749
1528.175989798534 3913.980724157032
1528.9514443333064 3789.299272952247
1529.726710410203 3946.3869973274714
1530.5017880796331 3700.1068458913383
1531.276677391992 3830.1098384441275
1532.0513783976457 3902.21876396651
1532.825891146953 3808.2737524562726
1533.6002156902414 3893.2467843012737
1534.3743520778207 3837.3829058853125
1535.1483003599806 3792.6020050695683
1535.9220605869923 3825.8220336534478
1536.6956328091019 3962.0205445410975
1537.4690170765407 3900.3873435416076
1538.242213439511 4019.3187606494707
1539.015221948208 3949.3644992694017
1539.78804265279 3857.658033728708
1540.560675603405 3729.7435141005385
1541.3331208501804 4005.197952306251
1542.1053784432224 3998.2366893562867
1542.8774484326168 3996.6562773229425
1543.649330868422 3951.2794278350693
1544.4210258006842 3997.4850915493794
1545.1925332794308 3933.996808918792
1545.9638533546604 3902.499736154486
1546.7349860763552 3872.4894695580892
1547.5059314944829 4103.005568705577
1548.27668965898 3987.848981740489
1549.0472606197673 4122.081646531155
1549.817644426752 3879.485396868823
1550.5878411298072 4094.2424292838405
1551.3578507787988 3980.5168223194187
1552.1276734235635 3872.199515965715
1552.8973091139233 3956.396469934254
1553.6667578996767 4106.320466680425
1554.436019830604 4123.998494461467
1555.20509495646 4098.671971893311
1555.9739833269869 3942.271014669943
1556.7426849919011 3773.3444179764847
1557.511200000903 4208.454674502604
1558.2795284036674 3985.06777425416
1559.0476702498509 4034.4355982592706
1559.8156255890954 4150.448469593513
1560.5833944710157 4208.993613716608
1561.3509769452048 3971.2924484818323
1562.1183730612447 4064.745735680916
1562.8855828686865 4072.1956865873217
1563.6526064170703 4273.571722976221
1564.4194437559127 4174.720761890576
1565.1860949347047 3926.4622259102
1565.9525600029283 4261.590666037356
1566.7188390100328 4264.134469236445
1567.4849320054564 3961.1254038085017
1568.250839038612 3928.3246859962333
1569.0165601588997 4011.2925178436117
1569.7820954156887 4242.409938706565
1570.5474448583373 3918.679549649473
1571.31260853618 3822.522326234287
1572.0775864985299 3831.6819848990076
1572.8423787946813 4039.820701175116
1573.6069854739108 3807.174687074074
1574.371406585471 4030.297794103518
1575.1356421785986 4023.814570941151
1575.899692302506 3889.8366690946705
1576.6635570063845 3942.9159107597006
1577.4272363394157 3944.6621061576325
1578.190730350747 3957.6738655927984
1578.9540390895163 3851.9390461563235
1579.7171626048384 3712.6302071717387
1580.480100945806 3820.7074410965133
1581.2428541614918 3824.971720001915
1582.0054223009538 3815.0243992274927
1582.767805413223 3848.9652188879954
1583.5300035473156 3923.695692539163
1584.292016752228 4001.4670072687454
1585.0538450769309 3996.032234605935
1585.8154885703807 3743.7127661772442
1586.5769472815136 3773.4148962700515
1587.3382212592405 3835.9920141630646
1588.099310552463 4073.8369913791403
1588.8602152100484 3658.42597534118
1589.6209352808564 4002.939825519782
1590.3814708137234 3876.7888710428074
1591.14182185746 3841.861239984609
1591.9019884608679 4007.544931958829
1592.6619706727215 3659.1958012335876
1593.4217685417734 3874.3173879353535
1594.1813821167616 4081.752534053393
1594.9408114464022 3715.5208311348447
1595.7000565793933 3985.104205971843
1596.459117564409 4018.588268611106
1597.2179944501113 3842.00325608808
1597.9766872851324 3895.441814779523
1598.735196118092 3830.6657420371653
1599.4935209975883 4036.8633791430884
1600.2516619721973 4063.335689545682
1601.0096190904787 3869.802644855954
1601.7673924009723 3990.0609642289405
1602.524981952196 3812.1410847656202
1603.2823877926476 3899.156786995918
1604.0396099708087 3819.0422973917894
1604.7966485351371 3859.1547240915957
1605.5535035340745 3898.4644968614616
1606.3101750160404 4009.7027460757067
1607.0666630294363 3922.760653648279
1607.822967622642 3678.67822569009
1608.5790888440224 3849.801048082917
1609.3350267419137 4061.7180413310825
1610.0907813646445 3851.5792144696425
1610.8463527605145 3946.798696721294
1611.601740977805 4062.650451899442
1612.356946064785 3948.1262369813294
1613.1119680696902 3762.5183100340196
1613.8668070407512 3803.2788353348224
1614.6214630261748 3863.565509342761
1615.375936074137 3868.9329460790505
1616.1302262328118 3970.830074207531
1616.8843335503425 3829.150165457087
1617.638258074854 3813.4117985254115
1618.391999854457 3843.8872702969725
1619.1455589372363 4024.140281860472
1619.8989353712623 4036.7962758770045
1620.65212920458 3614.481175013003
1621.4051404852235 3754.229909841325
1622.1579692611976 3815.3162103966592
1622.9106155804966 3699.280533123435
1623.663079491087 3766.0558088150756
1624.4153610409248 3856.795381196064
1625.1674602779385 3712.979875503412
1625.9193772500403 3638.9931967159696
1626.6711120051277 3856.1171719029126
1627.4226645910676 3891.6696681845706
1628.174035055721 3593.446561149336
1628.9252234469168 3716.168415906016
1629.676229812474 3585.828219910941
1630.4270542001905 4081.703398865366
1631.1776966578382 3773.6483973350114
1631.9281572331747 3746.063822796077
1632.678435973945 3792.7992951346196
1633.4285329278573 3787.38771608354
1634.1784481426203 3579.847292416868
1634.9281816659113 3802.629296422297
1635.677733545388 3905.0175977538397
1636.4271038286934 3756.4302303383083
1637.176292563452 3744.2816643369506
1637.9252997972635 3862.1531675098727
1638.674125577716 3954.4658316891064
1639.4227699523672 4153.35768453282
1640.171232968767 3674.9814965361084
1640.9195146744423 4022.478094439853
1641.6676151168977 3927.6291046556407
1642.4155343436178 3995.3057652443035
1643.1632724020765 4051.7423410288766
1643.9108293397167 4027.2633290882027
1644.658205203974 3924.435072133404
1645.4054000422566 4395.325752038636
1646.1524139019566 4013.1578213177854
1646.8992468304423 4047.8683838940174
1647.6458988750728 3958.986301919352
1648.3923700831765 4171.871407381066
1649.1386605020743 4102.628399780899
1649.8847701790564 4223.721931381802
1650.6306991614038 4108.1195231940965
1651.3764474963682 4219.066092278547
1652.1220152311944 3906.594008494766
1652.867402413096 4173.441396939897
1653.6126090892776 4068.9968060915453
1654.3576353069184 4271.474251647733
1655.1024811131829 4208.859134959708
1655.8471465552066 4199.859431181116
1656.5916316801213 4359.6469070448275
1657.3359365350298 4166.441196265621
1658.0800611670165 4098.088919587171
1658.824005623148 4114.456959651069
1659.5677699504722 3981.956055313254
1660.3113541960192 4072.1588420735725
1661.054758406799 4094.5272848272625
1661.7979826297997 3951.673080697522
1662.5410269119966 3926.5449078210086
1663.283891300338 4155.557745150689
1664.0265758417645 3900.18387878324
1664.7690805831826 3874.9641723550767
1665.5114055714948 4110.3874069645335
1666.2535508535748 4160.555293947889
1666.9955164762814 3649.364424460291
1667.7373024864555 3838.2805007216057
1668.478908930916 3961.1919211013965
1669.220335856462 3716.8390372584604
1669.9615833098778 3746.9859238880663
1670.7026513379296 3627.043679345725
1671.44353998736 3679.169368700152
1672.1842493048916 3729.3756905173445
1672.9247793372379 3643.808628157177
1673.6651301310812 3656.8526431376085
1674.4053017330934 3582.449008490779
1675.1452941899242 3762.5248417425346
1675.885107548207 3197.7803196929694
1676.6247418545518 3347.1579210308746
1677.3641971555535 3478.8106502112482
1678.1034734977893 3512.925065159351
1678.8425709278108 3444.1593986066136
1679.5814894921605 3526.648427214065
1680.320229237359 3406.2435091015213
1681.0587902098978 3532.3170054233306
1681.7971724562685 3391.2979049915025
1682.5353760229264 3350.173814672978
1683.2734009563173 3257.793542985047
1684.0112473028657 3194.159178014277
1684.7489151089794 3356.4520948117547
1685.4864044210462 3352.1851566133614
1686.2237152854377 3132.6563372735613
1686.960847748498 3369.441325056545
1687.6978018565642 3045.679056728371
1688.434577655944 3065.7190341437636
1689.1711751929379 3273.0301076414667
1689.9075945138156 3176.597295578162
1690.6438356648396 3117.7569161835463
1691.3798986922448 2791.0894251129876
1692.1157836422499 3010.3786203093523
1692.851490561059 3036.0490176173234
1693.587019494853 2972.580507586136
1694.3223704897991 2780.42342833764
1695.0575435920364 2726.524106145497
1695.792538847696 3114.946276719259
1696.527356302886 2852.716594134952
1697.2619960036936 2704.226168803494
1697.9964579961907 2789.6410458435394
1698.730742326432 2346.9452226299422
1699.4648490404488 2578.0550157140415
1700.1987781842563 2682.7548295401834
1700.9325298038548 2929.8089379046924
1701.6661039452174 2954.283417685487
1702.3995006543082 2779.2989232187624
1703.1327199770658 2864.1273061420497
1703.865761959416 2323.175155031957
1704.598626647261 2864.709348430255
1705.3313140864866 2563.855396352022
1706.0638243229587 2532.916203224721
1706.7961574025303 2732.7241307585027
1707.528313371029 2552.1075358264297
1708.260292274268 2334.1582915963622
1708.9920941580403 2557.66974164154
1709.7237190681226 2581.636140881525
1710.4551670502697 2641.717923494532
1711.18643815022 2221.919407087345
1711.9175324136959 2702.5140914735857
1712.6484498863938 2312.6757097380605
1713.379190614005 2403.904094044554
1714.109754642188 2459.0519078989355
1714.8401420165883 2459.503486051256
1715.570352782839 2404.3572365720433
1716.3003869865497 2598.5186996817783
1717.0302446733076 2421.384114349635
1717.7599258886876 2380.3322399024396
1718.4894306782444 2681.6684352732273
1719.2187590875183 2327.735634881489
1719.9479111620203 2482.2058030400613
1720.6768869472544 2473.838642808944
1721.4056864887025 2643.6834316479762
1722.1343098318284 2592.762480912476
1722.8627570220742 2435.2541989032097
1723.591028104871 2331.4988018667636
1724.3191231256242 2305.6340426141733
1725.0470421297232 2293.882003282685
1725.7747851625427 2479.840991223773
1726.5023522694337 2406.841648647554
1727.2297434957363 2467.676764896484
1727.9569588867635 2280.486920176022
1728.6839984878152 2511.6167828631815
1729.4108623441734 2038.40696656085
1730.1375505011038 2467.7815327025924
1730.8640630038426 2298.9313870269884
1731.5903998976264 2310.868814419775
1732.316561227657 2462.4230739371465
1733.0425470391274 2329.575459674833
1733.7683573772065 2352.095958501674
1734.4939922870508 2266.8066742289934
1735.2194518137949 2305.989201050272
1735.9447360025606 2358.0808724989474
1736.669844898439 2326.2600733125823
1737.3947785465189 2237.730342103417
1738.1195369918605 2193.8961709434157
1738.8441202795093 2156.6861343088317
1739.5685284544943 2338.0051708957544
1740.292761561821 2278.334022973902
1741.0168196464838 2504.1433552904873
1741.7407027534518 2360.8089760362614
1742.464410927687 2343.067652135323
1743.187944214118 2165.778401462996
1743.9113026576688 2176.4806970643426
1744.634486303241 2288.765664905435
1745.3574951957125 2186.0653441910904
1746.0803293799509 2220.338635484147
1746.8029889008048 2093.0056893888327
1747.5254738031017 2073.4712632667492
1748.2477841316504 2053.932630571045
1748.969919931249 2221.3621496443043
1749.6918812466665 2154.7472078360743
1750.4136681226646 2461.985484611427
1751.1352806039777 2187.7998909959892
1751.856718735331 2086.910027839276
1752.5779825614281 2189.38539870873
1753.2990721269507 2294.4973629628257
1754.0199874765676 2415.4423257324174
1754.7407286549314 2136.02260641819
1755.4612957066693 2307.6125876480332
1756.1816886763954 2113.854020300677
1756.9019076087097 2236.063335654673
1757.6219525481865 2349.6025465563753
1758.3418235393856 2322.913406831908
1759.061520626854 2356.285252929622
1759.7810438551096 2259.467032374533
1760.5003932686614 2171.904970044702
1761.2195689119999 2434.824564075309
1761.938570829594 2123.736682977851
1762.657399065898 2174.3603706733097
1763.376053665348 2165.4912303553997
1764.0945346723602 2113.5484994382755
1764.812842131334 2390.5276661690796
1765.5309760866512 2055.55471295134
1766.2489365826787 2137.793634898308
1766.9667236637597 2233.698366034199
1767.684337374223 1931.927755485085
1768.401777758383 1989.2623461983453
1769.1190448605284 2104.5573475711058
1769.836138724937 2178.1863084419165
1770.5530593958665 2235.3756015727045
1771.2698069175603 2344.3028784687162
1771.9863813342326 2251.543558282209
1772.702782690094 2156.880501187924
1773.4190110293293 2212.4157059159484
1774.1350663961111 2386.652781891738
1774.8509488345844 2085.442494161087
1775.5666583888924 2128.542464939114
1776.2821951031437 2432.8869247128337
1776.9975590214362 2125.904946548707
1777.7127501878585 2316.223888840467
1778.4277686464684 2247.4566788113034
1779.1426144413108 2284.4990809219753
1779.8572876164162 2280.8416038488413
1780.571788215797 2150.4773454791757
1781.2861162834415 2183.899387100608
1782.0002718633277 2080.69923176017
1782.7142549994132 2114.970395032296
1783.4280657356376 2125.053392290086
1784.141704115922 2061.6170402636594
1784.855170184177 2045.5580992112998
1785.5684639842839 2181.2337965648703
1786.2815855601148 2005.7342788203605
1786.9945349555237 2238.569938033418
1787.707312214343 2050.774038576917
1788.4199173803918 2242.890026010231
1789.132350497468 2013.7533382146794
1789.8446116093583 2040.1166990051286
1790.556700759822 2066.682050797591
1791.2686179926077 1791.5094887423952
1791.9803633514493 2118.564334630512
1792.6919368800554 2068.742580199879
1793.4033386221236 2033.4631013841258
1794.1145686213295 2114.1130227320723
1794.8256269213307 2378.984724719135
1795.536513565774 2268.4555133438557
1796.247228598284 1905.162987705956
1796.9577720624693 2018.7616565627413
1797.6681440019165 2051.230666998926
1798.3783444602013 2041.760791325536
1799.0883734808776 2149.9014960943678
1799.7982311074884 2195.504865998233
1800.5079173835475 2075.306579427316
1801.2174323525633 2201.5347367984823
1801.9267760580187 2007.3967880760513
1802.635948543386 2065.772418408465
1803.3449498521113 2019.9606956070634
1804.0537800276325 2117.197088379701
1804.7624391133668 2015.0079263516768
1805.47092715271 1883.7162800878245
1806.1792441890484 1992.716539272726
1806.8873902657433 2207.2719055093485
1807.5953654261448 2040.3028454188564
1808.3031697135812 1994.4169102818244
1809.0108031713662 2048.2220983235397
1809.71826584279 2052.973418017709
1810.425557771141 1972.7414624500707
1811.1326789996747 2396.2597041197246
1811.839629571632 2078.3685861662275
1812.5464095302468 1937.6454613167857
1813.2530189187182 2133.7366553222196
1813.959457780249 1969.394781987307
1814.6657261580076 2130.516952986442
1815.371824095153 1869.9645596883427
1816.0777516348262 2189.1743330410786
1816.78350882015 1869.1595974334286
1817.4890956942272 1791.4781421171654
1818.1945123001533 1958.991357310064
1818.8997586809928 2018.7017827090683
1819.6048348798067 1962.8603705354974
1820.3097409396287 1914.4653458497025
1821.0144769034796 2270.223925668583
1821.7190428143622 2079.9369967075336
1822.423438715261 2241.0996395317025
1823.1276646491478 2050.4010608634426
1823.8317206589727 1995.5592712030477
1824.5356067876692 2048.9975319671894
1825.2393230781581 1872.9841464533288
1825.942869573335 1880.111066466033
1826.646246316086 1901.534208611809
1827.3494533492758 2085.2831738096247
1828.052490715756 2142.9821922876763
1828.7553584583547 2019.0271484533555
1829.458056619891 2007.8373306627686
1830.1605852431585 1934.4150413337604
1830.8629443709433 1878.7107075751348
1831.5651340460063 1920.791142491178
1832.2671543110919 2041.4120942280758
1832.9690052089318 1980.101042862978
1833.6706867822395 1857.261162067435
1834.3721990737104 2058.7388698420464
1835.0735421260233 2119.6415189455065
1835.774715981841 2142.9493742627446
1836.4757206838058 2233.710132143965
1837.1765562745459 1693.2313740195411
1837.8772227966747 1788.938170583134
1838.5777202927839 2028.627770300697
1839.2780488054523 1943.73748734968
1839.9782083772352 1815.0702275214953
1840.6781990506806 2084.796676080484
1841.378020868313 1968.566671628918
1842.0776738726418 1936.6523832558753
1842.777158106157 1941.052282126921
1843.4764736113375 1895.332082524807
1844.1756204306403 2039.0454595581336
1844.8745986065078 1921.3608197860053
1845.5734081813607 1763.83349121018
1846.2720491976124 1845.5363119429362
1846.970521697649 1892.0516002295522
1847.6688257238511 1818.8465988757398
1848.3669613185684 1952.0472686373646
1849.0649285241452 1867.4905893385567
1849.7627273829057 1889.2541383769099
1850.460357937156 2024.969806774033
1851.1578202291857 1663.85743581233
1851.8551143012664 1963.8143029798823
1852.5522401956569 2010.0668598698644
1853.2491979545957 2022.299331476273
1853.9459876203055 1835.9707040749604
1854.6426092349902 1729.0856032116608
1855.3390628408451 1789.5815972460873
1856.0353484800362 1950.4050023722289
1856.7314661947203 1931.1372505791703
1857.4274160270397 1860.057184334471
1858.123198019115 1941.0871651028324
1858.8188122130487 1818.0043283667933
1859.5142586509319 1925.0985112027295
1860.209537374838 1913.5969939687832
1860.9046484268183 1834.394721132957
1861.599591848917 1807.134624602088
1862.294367683151 1779.8121816541636
1862.988975971528 1862.828562062245
1863.6834167560355 2019.8927243568698
1864.3776900786452 2068.336627071408
1865.0717959813119 1878.1283269051848
1865.7657345059724 1880.3540409309303
1866.4595056945564 1878.2666494093519
1867.1531095889586 1878.8600574060754
1867.846546231076 1952.9292768953233
1868.5398156627743 2068.2902889466977
1869.2329179259123 1849.4698363255452
1869.9258530623283 1778.7796908221858
1870.618621113843 1707.931962791355
1871.3112221222636 1786.547045775015
1872.0036561293764 1780.9151868345339
1872.695923176956 1888.6190254917747
1873.3880233067594 2015.817926886069
1874.0799565605212 1688.112294078504
1874.7717229799673 1780.1494078982646
1875.4633226068036 1957.0021006519935
1876.1547554827175 1975.3497274172744
1876.8460216493859 1762.3698847953663
1877.5371211484617 1866.3273696081949
1878.2280540215852 2119.9220656452144
1878.9188203103804 1780.7944221000203
1879.6094200564548 1903.558933816036
1880.299853301396 1737.4584414504352
1880.9901200867826 1936.634907208825
1881.6802204541673 1946.072978166556
1882.3701544450942 1961.7137384823022
1883.059922101087 1800.3932647333709
1883.7495234636517 2076.613193372167
1884.4389585742792 1963.1660981510588
1885.1282274744517 1874.4882168199506
1885.8173302056166 2146.7932413666285
1886.506266809225 1833.26931759811
1887.195037326701 1643.4485856782517
1887.8836417994517 1999.2996338759779
1888.5720802688702 2060.647767506249
1889.260352776333 1902.9152298344645
1889.9484593632042 1991.240588698193
1890.63640007082 1871.8358990739875
1891.3241749405151 1756.7579814028395
1892.0117840135954 1845.280996920071
1892.6992273313572 1868.3815568985724
1893.3865049350788 1802.4932870553507
1894.0736168660223 2055.9102059003226
1894.7605631654333 1727.8960877901523
1895.4473438745408 1657.9549569186197
1896.133959034556 1982.824085420057
1896.820408686679 1726.8876684057936
1897.506692872088 2100.815578355824
1898.192811631945 1841.8331594733584
1898.8787650073991 1940.5394794495878
1899.5645530395832 1972.4936252436898
1900.2501757696118 1981.0616755027731
1900.9356332385796 1756.0838983328806
1901.620925487574 2005.9226281083684
1902.3060525576602 1934.2349968253143
1902.9910144898859 2015.1345739014585
1903.6758113252872 1698.0918261858212
1904.3604431048789 1819.150500484182
1905.0449098696663 1964.2076121353984
1905.7292116606295 1851.4522147148448
1906.4133485187394 1973.1279556981385
1907.0973204849488 1471.56307142592
1907.7811276001976 1657.0840435288865
1908.4647699053967 1840.1905095069221
1909.1482474414588 1694.383189925904
1909.8315602492694 1648.2599343117497
1910.5147083696957 1871.1404697850917
1911.1976918436012 1818.459719161117
1911.880510711815 1864.9839370432014
1912.5631650151681 1804.677444442889
1913.2456547944657 1868.6429943252115
1913.927980090495 1769.4430053902179
1914.6101409440362 1780.8476172946048
1915.2921373958416 1835.6912814003947
1915.9739694866603 1819.4814070296393
1916.655637257214 2056.698693295802
1917.3371407482136 1736.1510330215601
1918.0184800003572 1774.0444271693711
1918.6996550543154 1811.948514259308
1919.3806659507554 1876.2648690967476
1920.0615127303208 1953.5621845741402
1920.7421954336423 2028.068771572629
1921.4227141013343 1890.716184433239
1922.103068773993 1846.157141780491
1922.783259492202 1982.9682110718593
1923.4632862965227 1837.0500979425985
1924.1431492275078 1803.738746911077
1924.8228483256917 1744.3824677771222
1925.5023836315922 1851.040589270299
1926.1817551857057 1916.3979252162112
1926.8609630285227 1981.9357211246854
1927.5400072005123 1807.8584239965562
1928.218887742125 1723.404323130943
1928.8976046938005 1533.9927184739072
1929.5761580959588 1771.8704021266499
1930.2545479890086 1953.1173505209167
1930.9327744133352 1635.8553330893903
1931.6108374093164 1877.714670428189
1932.2887370173066 2047.6146128138294
1932.9664732776473 1985.3938915298609
1933.6440462306673 1922.9579638154642
1934.3214559166754 1685.9222262761516
1934.9987023759659 1811.6567934546983
1935.675785648813 1922.467363596184
1936.3527057754836 1585.977316693457
1937.029462796223 1920.798122656432
1937.70605675126 1761.3377300545526
1938.3824876808085 1720.4769770635692
1939.058755625072 1642.4230668021366
1939.7348606242267 1842.6058087435813
1940.4108027184448 1730.192210778645
1941.0865819478713 1643.7953295009252
1941.7621983526478 1557.1900413277954
1942.4376519728921 1697.8407426798658
1943.1129428487038 1819.6036081252757
1943.7880710201734 1752.4955430899245
1944.4630365273733 1850.4715126035983
1945.1378394103576 1410.871507316935
1945.8124797091714 1505.6971083529345
1946.4869574638324 1600.658316851293
1947.161272714353 1716.0145759839102
1947.8354255007234 1780.364453296069
1948.5094158629272 1752.9807860991557
1949.1832438409183 1870.6416703881928
1949.8569094746435 1908.1433131231374
1950.530412804037 1991.2554192796197
1951.2037538690092 1891.1828063307807
1951.8769327094578 1728.7737066489983
1952.5499493652678 1671.9496578151236
1953.222803876306 1917.394985541877
1953.895496282421 1747.5825684334845
1954.5680266234522 1740.0671614316386
1955.2403949392155 1724.6695973362057
1955.9126012695142 1542.4434478816129
1956.5846456541403 1831.281978719667
1957.2565281328643 1721.1545059303317
1957.9282487454457 1845.4370275861038
1958.5998075316202 2011.0380341038501
1959.27120453112 1834.4782487466896
1959.9424397836501 1772.2816013691765
1960.613513328908 1832.52295057546
1961.2844252065697 2027.2303397648138
1961.9551754563017 1829.522668404848
1962.6257641177453 1696.2762766618907
1963.29619123054 1729.8771004308371
1963.966456834296 1454.5601604274352
1964.6365609686181 1524.3237311218072
1965.306503673086 1906.2991208543026
1965.976284987275 1671.822394342012
1966.645904950734 1665.7682291970414
1967.315363603002 1425.8972239023772
1967.9846609836077 1746.201190538592
1968.6537971320486 1761.665474213542
1969.3227720878222 1719.7936187357373
1969.9915858904042 1503.0344536548605
1970.660238579252 1829.5980116511168
1971.3287301938108 1799.6812531764251
1971.997060773514 1531.5756836108105
1972.665230357772 1810.5795897013572
1973.3332389859843 1516.7998564519307
1974.0010866975335 1641.9280667821054
1974.6687735317864 1779.2517031270982
1975.3362995280932 1864.194610516094
1976.003664725793 1662.0418044949802
1976.6708691642052 1413.7117371381062
1977.3379128826364 1627.611351299255
1978.004795920373 1744.105029315493
1978.6715183166925 1974.2365542220937
1979.3380801108524 1872.1922288860674
1980.0044813420973 1770.0815803084474
1980.6707220496555 1643.4919797201026
1981.3368022727373 1624.7205256735097
1982.0027220505417 1802.9754209480911
1982.66848142225 1508.4432884610555
1983.3340804270283 1498.8746203495393
1983.999519104027 1703.870302212713
1984.6647974923835 1814.9746161814287
1985.329915631215 1785.657136891392
1985.99487355963 1731.090250401697
1986.6596713167146 1808.1804286391584
1987.3243089415428 1711.073470061965
1987.9887864731754 1962.5700309488413
1988.6531039506553 1565.6781413161898
1989.3172614130071 1898.253171257037
1989.9812588992481 1768.5095435100943
1990.645096448372 1543.4731229867716
1991.3087740993633 1774.7248956864416
1991.9722918911848 1697.3066702932283
1992.635649862792 1587.3023792579065
1993.2988480531185 1850.7936620970863
1993.9618865010852 2019.3163125218525
1994.6247652455968 1630.6978281006268
1995.287484325545 1471.5361227578503
1995.9500437798033 1762.8136340045833
1996.6124436472292 1517.8253822937488
1997.2746839666706 1710.7946527764502
1997.936764776954 1716.9635386036673
1998.598686116895 1645.2548533240606
1999.2604480252903 1666.1743476986132
1999.9220505409212 1687.0775605861495
2000.5834937025593 1503.8493503680136
2001.2447775489582 1545.5227886326672
2001.9059021188514 1798.3356544459098
2002.5668674509616 1676.1504375234679
2003.2276735839987 1584.579505585043
2003.8883205566508 1777.7605925707553
2004.5488084075987 1583.6795190051846
2005.2091371755014 1534.1013919206005
2005.8693068990033 1777.3458329787063
2006.5293176167397 1749.7828622624195
2007.1891693673224 1537.8365050254017
2007.848862189354 1415.892459817277
2008.5083961214223 1670.8407035257928
2009.1677712020955 1538.6242846529112
2009.8269874699254 1457.2101355411558
2010.4860449634598 1835.3871996116693
2011.1449437212177 1772.086576106361
2011.8036837817108 1708.7078767749251
2012.4622651834325 1924.728681953859
2013.1206879648653 1791.3158966321457
2013.7789521644736 1673.820017392933
2014.4370578207036 1555.9765747021938
2015.0950049719922 1703.6722206668667
2015.7527936567585 1756.8452771189507
2016.4104239134067 1779.485297584505
2017.067895780323 1775.6837715358433
2017.725209295886 1908.4627938363296
2018.3823644984514 1578.5622043306307
2019.0393614263648 1741.6313947732517
2019.6962001179545 1417.4609294986826
2020.3528806115355 1715.4553948885703
2021.0094029454067 1454.3641189575258
2021.6657671578487 1643.2583130095518
2022.321973287133 1647.7195192721497
2022.9780213715148 1597.6455034786034
2023.6339114492293 1595.2450461489282
2024.2896435585026 1592.9322725260329
2024.9452177375442 1671.9394473538862
2025.600634024544 1674.2113898392963
2026.2558924576842 1676.5282084414043
2026.9109930751292 1717.2722146251945
2027.565935915025 1532.7911137976375
2028.2207210155066 1917.4539274295519
2028.8753484146964 1888.0822530528324
2029.529818150695 1841.6574797813923
2030.1841302615903 1794.963485166692
2030.8382847854573 1471.0624871298312
2031.4922817603601 1520.166319546037
2032.1461212243357 1710.5139610558385
2032.7998032154192 1365.9891235870675
2033.4533277716218 1593.5349833739178
2034.1066949309443 1503.8205639009175
2034.7599047313688 1629.3435216351866
2035.4129572108704 1967.3676067020301
2036.0658524074006 1836.6917229888713
2036.7185903589016 1753.2298092302092
2037.3711711032956 1761.2710927849694
2038.023594678496 1657.9522415752404
2038.675861122394 1479.4552253114591
2039.3279704728757 1415.2443168694113
2039.9799227678031 1351.0172154282202
2040.6317180450278 1542.3578750585853
2041.2833563423865 1632.068044339317
2041.9348376977014 1629.7061364699948
2042.5861621487784 1688.5001413218295
2043.2373297334088 1818.6493812579952
2043.8883404893695 1752.5561394189244
2044.5391944544208 1902.830870495803
2045.1898916663158 1818.441958648619
2045.8404321627804 1831.0688482219157
2046.4908159815368 1496.4923199705856
2047.1410431602853 1419.0056252090774
2047.7911137367173 1302.102213498922
2048.441027748504 1402.002120857176
2049.090785233302 1501.9464776236105
2049.7403862287592 1477.92409514784
2050.389830772503 1401.6757219365518
2051.0391189021466 1325.3951557142086
2051.688250655294 1566.6604657644798
2052.337226069527 1588.97106433852
2052.986045182417 1700.3552033618812
2053.634708031521 1420.0530639466833
2054.283214654375 1668.1191129543258
2054.931565088511 1405.5472813940316
2055.579759371436 1369.5070744571426
2056.2277975406523 1628.3294520898623
2056.8756796336384 1714.35660808666
2057.5234056878617 1469.8079877375592
2058.1709757407752 1467.0969679524796
2058.8183898298194 1559.321543085403
2059.465647992416 1752.2488102229813
2060.1127502659747 1784.2170943322574
2060.759696687888 1492.0449151824023
2061.4064872955405 1737.0057095186366
2062.053122126292 1795.0779774494852
2062.699601217497 1682.6556468184972
2063.345924606485 1570.2867087540758
2063.992092330587 1755.722746497521
2064.638104427102 1527.1526635916273
2065.283960933324 1913.7723906544136
2065.92966188653 1788.5042670205207
2066.5752073239855 1726.775729742305
2067.2205972829397 1428.5608628559253
2067.86583180062 1633.8981795134682
2068.5109109142522 1591.404699410268
2069.15583466104 1606.9419512027157
2069.8006030781708 1622.4952985921095
2070.445216202821 1773.6389941715465
2071.089674072153 1902.108290914372
2071.7339767233116 1606.470481522435
2072.3781241934303 1418.9616882317064
2073.0221165196253 1802.0393234352257
2073.6659537390024 1661.358023799698
2074.3096358886505 1757.1271120991598
2074.953163005637 1370.570815152375
2075.596535127028 1506.4277715793073
2076.2397522898664 1307.0485154061626
2076.882814531182 1594.28107170078
2077.5257218879924 1748.9092359281353
2078.1684743973 1497.6746053924949
2078.8110720960885 1311.5225191463744
2079.453515021336 1726.888347263476
2080.095803209997 1627.9042712879923
2080.7379366990135 1477.019793785927
2081.37991552532 1518.0361525389856
2082.0217397258275 1712.139243792239
2082.6634093374414 1693.4425036889606
2083.3049243970418 1674.795150329452
2083.9462849415067 1523.6664549003003
2084.587491007689 1505.1241742325717
2085.2285426324324 1717.5732389200275
2085.869439852564 1664.7038165580987
2086.510182704902 1589.2440612907312
2087.1507712262483 1513.6586733023198
2087.791205453381 1481.3566021175006
2088.4314854230743 1659.9860954352357
2089.0716111720867 1491.9278866998989
2089.7115827371617 1377.0289285968306
2090.351400155023 1371.2431227820484
2090.991063462385 1365.5166808565082
2091.6305726959527 1373.8323155385183
2092.2699278924047 1434.1080407207824
2092.9091290884153 1494.5650386350653
2093.548176320641 1521.8911074451007
2094.187069625721 1706.0077371318002
2094.8258090402887 1465.5199974807126
2095.464394600951 1669.9064211001937
2096.102826344313 1503.952024964442
2096.741104306955 1415.7576326545045
2097.379228525453 1327.3698906933996
2098.017199036358 1398.3085909970473
2098.6550158762147 1675.6479651553868
2099.2926790815527 1650.3425467549755
2099.9301886888825 1702.9126518160815
2100.5675447347076 1491.8878949230084
2101.2047472555114 1524.837267123472
2101.841796287761 1557.8595964121719
2102.47869186792 1662.725285498714
2103.1154340324265 1523.209895681911
2103.752022817709 1442.8427009688453
2104.388458260184 1608.6601707681373
2105.024740396251 1586.6171704735275
2105.660869262292 1595.557640568361
2106.296844894685 1692.9108349255087
2106.93266732978 1678.151537952041
2107.5683366039284 1317.4819252514258
2108.2038527534532 1446.120469877459
2108.8392158146726 1786.28590683598
2109.4744258238843 1584.3011272234535
2110.1094828173755 1564.672424378276
2110.744386831422 1895.5297221511014
2111.3791379022787 1619.4148994439888
2112.01373606619 1766.4836829471667
2112.648181359389 1528.17319587183
2113.28247381809 1662.1502529793172
2113.916613478492 1524.8333961220578
2114.550600376786 1586.1724647523458
2115.1844345491445 1677.9500738899908
2115.818116031729 1572.7421943648799
2116.451644860679 1450.1630856797212
2117.085021072133 1441.852622461403
2117.718244702204 1357.7960086505755
2118.3513157869984 1525.1163063083477
2118.984234362604 1253.8166912237095
2119.617000465092 1526.4247728281173
2120.249614130529 1832.4904753851224
2120.8820753949585 1597.4515958030988
2121.5143842944162 1441.7977005092152
2122.14654086492 1489.7250052858105
2122.7785451424734 1547.7169825822157
2123.4103971630702 1645.3687228551257
2124.042096962681 1743.4285261810473
2124.6736445772767 1559.5128353039904
2125.305040042802 1367.7746403429194
2125.936283395191 1539.0315234015645
2126.567374670365 1541.0487363188652
2127.198313904233 1519.378094796892
2127.8291011326855 1715.887825334982
2128.4597363916037 1392.1269140119662
2129.0902197168507 1540.0514836304608
2129.720551144279 1326.0010662796344
2130.3507307097225 1671.8405376323437
2130.980758449008 1811.2119106286973
2131.6106343979427 1400.8791843404877
2132.2403585923203 1623.6568987765208
2132.8699310679276 1726.8029971575984
2133.499351860526 1470.4346568258543
2134.1286210058715 1702.2451096321213
2134.7577385397053 1321.9276442345522
2135.3867044977487 1575.271378330033
2136.0155189157176 1701.379536525404
2136.644181829308 1597.3690737353368
2137.2726932742025 1334.1644536594983
2137.901053286074 1720.2425454004199
2138.5292619005777 1578.6114789927362
2139.1573191533535 1532.2594006877794
2139.7852250800315 1674.467793688539
2140.4129797162295 1630.7030765624268
2141.0405830975433 1234.15953401849
2141.6680352595613 1666.5705958256065
2142.2953362378576 1300.8934132333409
2142.9224860679915 1365.3289637641149
2143.549484785508 1345.1664632821507
2144.1763324259373 1647.7445131309985
2144.803029024799 1478.2523085195542
2145.429574617594 1527.767551946737
2146.0559692398165 1395.7654392917211
2146.682212926942 1586.6984669804067
2147.308305714432 1468.9188515194087
2147.9342476377333 1637.6908267945441
2148.5600387322847 1811.7124031526641
2149.185679033506 1686.7512431062528
2149.8111685768017 1513.3167105346847
2150.4365073975678 1404.8023481887535
2151.061695531187 1494.0783615383855
2151.686733013021 1531.285391032769
2152.311619878423 1376.852356207503
2152.9363561627342 1476.8574639821015
2153.560941901278 1347.642185396505
2154.1853771293663 1625.9164039611424
2154.809661882293 1779.9647282643778
2155.433796195348 1612.8884804029465
2156.0577801037944 1507.0942641435436
2156.681613642895 1695.4718119499626
2157.3052968478896 1539.199475315075
2157.928829754006 1546.1978223028082
2158.552212396462 1558.4009989244491
2159.1754448104566 1542.3943026790052
2159.7985270311783 1347.416850095926
2160.4214590938027 1200.0431426934442
2161.0442410334927 1180.3233626763645
2161.6668728853874 1231.0536462011883
2162.289354684628 1281.9284177257737
2162.911686466332 1501.7579784449777
2163.533868265602 1462.9599459608776
2164.1559001175337 1554.9466527467569
2164.7777820572046 1647.0214652592197
2165.399514119681 1460.0772843924606
2166.021096340013 1592.4270305222035
2166.6425287532384 1725.0170830351612
2167.263811394385 1368.6219457776072
2167.8849442984574 1686.425780330014
2168.505927500455 1420.8789416882637
2169.126761035366 1628.770808932569
2169.7474449381552 1464.813790096001
2170.367979243778 1528.9227817472677
2170.9883639871823 1593.2701133751511
2171.608599203293 1500.9789270136484
2172.2286849270276 1869.6837673085931
2172.8486211932886 1961.6557753651286
2173.4684080369625 1350.1792781501351
2174.0880454929265 1251.615505028076
2174.7075335960417 1339.0342841649176
2175.3268723811543 1547.0271219620251
2175.9460618831 1624.464154439097
2176.565102136701 1385.231675206699
2177.1839931767627 1414.9314210155467
2177.802735038078 1444.7299801122185
2178.421327755432 1418.6930618199997
2179.0397713635866 1281.9233780160964
2179.658065897298 1144.7527029115286
2180.276211391305 1076.670062559377
2180.8942078803357 1386.9895020605393
2181.5120553991 1389.9050103505783
2182.129753982299 1237.2497208016066
2182.7473036646206 1358.1083573047767
2183.3647044807367 1523.6251543295327
2183.9819564653044 1284.5816355813781
2184.599059652968 1649.8879786439927
2185.216014078367 1635.7400296001686
2185.832819776113 1622.1954474056736
2186.4494767808137 1608.5258964718137
2187.065985127063 1326.0189374102372
2187.682344849436 1319.186262106669
2188.298555982501 1408.5021475124513
2188.9146185608097 1497.882104631349
2189.530532618901 1451.548534439881
2190.1462981912937 1368.4431301610675
2190.761915312507 1587.2696159448421
2191.377384017036 1487.9087567197291
2191.9927043393654 1380.2588195224737
2192.6078763139667 1056.9047659715734
2193.2228999753006 1146.7286164752263
2193.837775357808 1236.7540659571896
2194.452502495922 1232.5433281801627
2195.0670814240602 1365.3003643210145
2195.6815121766285 1394.1032856129552
2196.2957947880186 1425.0170592661573
2196.9099292926057 1455.9981986403197
2197.523915724758 1504.2588513516769
2198.137754118825 1500.3486029929732
2198.7514445091456 1394.4904625715494
2199.3649869300443 1288.4525951440405
2199.9783814158327 1574.5895161912088
2200.5916280008096 1561.9901653384275
2201.2047267192593 1549.394824467202
2201.8176776054515 1606.8183487777906
2202.430480693649 1295.0639164912557
2203.0431360180955 1562.2817175054395
2203.6556436130195 1594.9646745071877
2204.268003512645 1631.969898382738
2204.8802157511727 1669.1509434158502
2205.492280362796 1563.9176231835513
2206.1041973816937 1384.2139119971093
2206.715966842032 1478.784674610633
2207.3275887779655 1242.191567129306
2207.93906322363 1399.8937538541568
2208.550390213153 1390.287121923676
2209.1615697806465 1380.4219401940286
2209.7726019602105 1119.3055235335787
2210.3834867859277 1101.73594451881
2210.9942242918787 1595.1364184915078
2211.6048145121167 1252.5977504423934
2212.2152574806914 1838.1966899545562
2212.825553231638 1215.4808941354333
2213.435701798975 1294.5869781099564
2214.045703216707 1373.9209149745075
2214.655557518832 1183.71817238741
2215.2652647393297 1206.0408029959983
2215.874824912169 1093.7599844355836
2216.4842380713 1343.6690290150925
2217.09350425067 1331.1041648692562
2217.7026234842033 1265.849172181688
2218.311595805819 1360.8555748484523
2218.9204212494133 1456.0255415430724
2219.52909984888 1692.1263287766592
2220.137631638092 1696.7918544973163
2220.7460166509154 1701.35946876787
2221.354254921198 1649.9355604854106
2221.9623464827764 1500.7797062681807
2222.5702913694713 1328.3521288045558
2223.178089615096 1430.237818470169
2223.7857412534486 1304.9212028566897
2224.39324631831 1437.2171627470827
2225.000604843457 1575.4868263486562
2225.607816862641 1339.4567071259032
2226.214882409611 1517.4478732937412
2226.8218015180973 1414.5025807485358
2227.4285742218217 1387.954201979935
2228.0352005544864 1458.241834682321
2228.6416805497847 1343.2119783147257
2229.248014241399 1456.912474958222
2229.8542016629945 1542.4721420541614
2230.460242848223 1628.151718446366
2231.0661378307304 1830.7867938703107
2231.671886644139 1380.3479421652694
2232.277489322065 1231.5705701960383
2232.8829458981127 1448.9692263183701
2233.48825640587 1666.6551462073744
2234.0934208789095 1733.247757298088
2234.6984393507955 1731.4960494397396
2235.3033118550793 1633.5822419850138
2235.9080384252975 1529.7495506974672
2236.5126190949723 1221.442012737975
2237.1170538976166 1358.2903228271434
2237.721342866729 1421.5426255271946
2238.32548603579 1484.90059985379
2238.9294834382763 1515.3916046026711
2239.533335107646 1286.475907715318
2240.1370410773434 1613.1324910780231
2240.740601380803 1413.2736929836726
2241.3440160514474 1461.4073290172016
2241.9472851226783 1434.6549963223429
2242.550408627896 1573.4385560496178
2243.1533866004793 1712.4809145441632
2243.756219073799 1512.006183004229
2244.3589060812064 1359.8899077155174
2244.961447656049 1306.4676233630075
2245.5638438316564 1312.1016640919208
2246.166094641343 1408.0299064167853
2246.7682001184166 1259.8257137668136
2247.3701602961664 1483.4292229994094
2247.971975207871 1438.898526833051
2248.5736448867974 1651.2079564155363
2249.175169366197 1575.437230403532
2249.7765486793123 1456.288067000246
2250.3777828593684 1390.4497528202985
2250.9788719395783 1753.6170875892399
2251.579815953146 1469.9787136761781
2252.1806149332606 1170.9757356548037
2252.781268913097 1279.2016167693316
2253.381777925817 1344.2183647339473
2253.9821420045737 1452.671973253505
2254.5823611825035 1603.1705355071008
2255.1824354927303 1435.0590285848689
2255.782364968365 1342.4111376300575
2256.38214964251 1249.6768449522867
2256.9817895482483 1298.6064313888182
2257.5812847186553 1496.2758306707442
2258.180635186791 1463.6853484408607
2258.779840985704 1431.0898548860628
2259.37890214843 1313.4415410335298
2259.97781870799 1319.881759273808
2260.5765906973957 1326.3443176870392
2261.175218149645 1310.931180952019
2261.773701097718 1358.1500248641755
2262.3720395745895 1405.4148792194358
2262.970233613216 1149.369261412068
2263.568283246548 1312.275057417077
2264.1661885075137 1326.8834384778627
2264.763949429038 1365.7320580811318
2265.3615660440246 1630.6971321980361
2265.959038385374 1399.5196195028543
2266.5563664859637 1490.1840134242261
2267.153550378669 1336.2259860254173
2267.7505900963424 1460.6254863717927
2268.3474856718312 1404.0685473021863
2268.9442371379664 1326.150729021993
2269.5408445275643 1211.5109502572025
2270.1373078734377 1391.5766688047077
2270.7336272083758 1538.3770708137058
2271.32980256516 1336.346232877142
2271.925833976562 1423.5679761335496
2272.5217214753357 1679.7195890620183
2273.117465094223 1328.123254006136
2273.7130648659586 1066.5252228904062
2274.308520823257 1416.9065344928053
2274.903832998827 1669.3797318404438
2275.4990014253563 1152.906271806905
2276.094026135528 1717.340354768357
2276.6889071620117 1091.7213068692563
2277.2836445374614 1553.4271358432575
2277.878238294519 1495.8950048480167
2278.472688465812 1363.8689053601263
2279.066995083962 1231.5974435374337
2279.6611581815705 1387.5864581938304
2280.255177791232 1534.5200360047327
2280.8490539455233 1681.7453820614307
2281.442786677013 1731.3749110618305
2282.0363760182554 1594.4851983806739
2282.6298220017943 1596.8473757126317
2283.223124660155 1599.314015291978
2283.816284025859 1348.2146827637011
2284.4093001314086 1223.9675601232448
2285.002173009292 1492.9561669449643
2285.5949026919952 1341.9840190283562
2286.1874892119777 1185.1402237994685
2286.7799326016993 1470.6316254983853
2287.3722328936 1299.2955420073479
2287.964390120109 1174.716083366905
2288.556404313642 1485.989687420736
2289.1482755066027 1603.8723087803314
2289.7400037313873 1261.32566648785
2290.3315890203703 1483.3038075419802
2290.9230314059205 1422.8725710363296
2291.5143309203904 1362.3876030750594
2292.1054875961236 1099.3145553476197
2292.6965014654506 1607.1910072644564
2293.287372560684 1577.08317623746
2293.878100914131 1458.9103867408671
2294.468686558086 1340.5322066414635
2295.059129524827 1168.6332384223042
2295.649429846617 1606.2203730380174
2296.239587555716 1577.648553430974
2296.8296026843636 1375.004495710892
2297.419475264791 1401.8819115085194
2298.0092053292137 1428.7223917951028
2298.598792909839 1354.7187016928951
2299.1882380388597 1411.8075092672834
2299.777540748455 1570.6352842297688
2300.3667010707904 1729.5764758332978
2300.9557190380256 1586.2002258785965
2301.544594682302 1449.0180756685543
2302.1333280357503 1311.6658284042874
2302.721919130485 1468.2571438816522
2303.3103679986198 1523.8196584065602
2303.898674672242 1600.5173360714575
2304.486839183437 1540.6414719145962
2305.0748615642697 1480.8431316408262
2305.6627418468015 1264.5547509321245
2306.2504800630704 1351.5740932675537
2306.8380762451143 1556.8860378900777
2307.425530424949 1589.438965210551
2308.012842634582 1622.0542286121133
2308.6000129060103 1651.4844655603315
2309.187041271214 1594.069854386257
2309.773927762164 1536.5511272020622
2310.3606724108213 1484.636741054375
2310.9472752491274 1533.718792468443
2311.5337363090184 1582.9534439187853
2312.120055622414 1475.4158873567646
2312.706233221221 1271.0610305136838
2313.2922691373424 1095.6762941277761
2313.8781634026564 1147.0575796157323
2314.463916049037 1198.5467951181959
2315.049527108342 1583.1496032073733
2315.6349966124235 1668.9873093995204
2316.2203245931123 1624.7742295517967
2316.8055110822315 1271.8272581531398
2317.3905561115935 1349.2471710020277
2317.9754597129977 1236.6304367785951
2318.560221918229 1459.8912991901402
2319.1448427590603 1476.4832867038986
2319.729322267256 1099.8395219324896
2320.313660474563 1536.5623541361126
2320.8978574127195 1936.2110980678808
2321.481913113452 1538.9622244055759
2322.0658276084705 1030.5727160739675
2322.6496009294806 1138.960585140986
2323.233233108165 1332.1558249435689
2323.8167241762058 1525.8734590841352
2324.4000741652617 1467.559415812163
2324.983283106987 1650.9010530400178
2325.5663510330232 1736.9909599117661
2326.1492779749933 1487.995387098124
2326.7320639645204 1206.2758631991423
2327.3147090332004 1084.143486642092
2327.897213212629 1219.9772977069042
2328.4795765343843 1355.9053245564096
2329.0617990300307 1426.0390790153297
2329.643880731124 1496.2775523607422
2330.22582166921 1385.5938697406903
2330.807621875816 1253.6796342199164
2331.3892813824623 1121.6618056218172
2331.9708002206517 1100.6298509839971
2332.5521784218818 1253.7113918873897
2333.133416017634 1407.1580443781506
2333.7145130393765 1483.5267774537633
2334.295469518571 1575.4231542037035
2334.876285486658 1602.7264424701707
2335.456960975076 1259.5956964559318
2336.037496015242 1408.0209854492077
2336.6178906385667 1512.3162334894905
2337.198144876451 1418.1357953813622
2337.778258760278 1179.6531762097484
2338.3582323214214 1372.5235066623554
2338.938065591243 1179.815988178862
2339.517758601087 1436.7445191103368
2340.0973113822965 1372.8184345314698
2340.676723966193 1442.3893738994923
2341.255996384094 1512.070444914641
2341.835128667295 1441.0140625209267
2342.4141208470883 1593.0063726864607
2342.992972954751 1430.0952896628887
2343.5716850215467 1467.9505957181868
2344.1502570787306 947.0292467860654
2344.7286891575386 1220.6307791732384
2345.3069812892045 1339.0444381261211
2345.885133504944 1457.5562979717683
2346.4631458359618 1441.1989113342188
2347.04101831345 1316.7042458812732
2347.6187509685915 1371.5719445133618
2348.196343832553 1400.3133921869583
2348.7737969364935 1226.608358579008
2349.351110311558 1581.949840827586
2349.9282839888765 1125.0668647770392
2350.5053179995757 1486.1611866591736
2351.0822123747585 1594.9312219141896
2351.658967145526 1703.9586157101865
2352.2355823429643 1268.8691089582676
2352.812057998144 1464.8397784068109
2353.3883941421263 1229.1270381785282
2353.9645908059647 1395.6793569309186
2354.540648020693 1513.3464477067282
2355.116565817336 1277.095432796777
2355.6923442269126 1370.2421232948511
2356.2679832804224 1092.7009372398095
2356.8434830088518 1309.5703620061943
2357.41884344318 1420.6530095998291
2357.994064614377 1313.9913801384903
