#exp_cfg={"servo_angle": 0.0, "laser_lim": 100.0, "servo_angle_to": 18.0, "laser_wup": 0.0, "bt_dev": "EnSpectr-25AE3", "laser_wdn_max": 0.0, "frames": 10.0, "servo_used": 0, "servo_calib_use": 0, "laser_wdn_min": 0.0, "servo_pix_from": 90.0, "cooler_tout": 300.0, "servo_angle_from": 0.0, "servo_calib": "[-1.9174921013161362e-09, 3.9322238269163779e-05, -0.27385609119055809, 653.59552119713567]", "laser_autoctl": 0, "servo_pix_to": 3682.0, "laser_pw": 100.0, "cooler_on": 0, "laser_volt": 4.0, "cooler_autoctl": 0, "cooler_curr": 70.0, "cooler_startup": 10.0, "laser_fixed_pw": 0, "gain": 1.3, "offset": 2.53059635486, "servo_calib_degree": 3.0, "laser_curr": 55.0, "shutter": 8200.0, "servo_calib_step": 1.0, "laser_fixed_curr": 0, "exp": 2000.0, "ccd_volt": 4.7, "bt_addr": "00:06:66:62:5A:E3", "servo_delay": 500.0, "laser_autooff": 1}
#proc_cfg={"flat_auto_wnd": 200.0, "flat_auto_fr": 200.0, "flat_auto_shift": 5.0, "yconv": 1, "flatten": 1, "flatten_strength": 100.0, "xfrom": 300.0, "auto_max_frame": 2000.0, "auto_signal": 48000.0, "flat_auto_tol": 0.1, "autoclip": 1, "xrel_range": 0.0, "flat_auto_to": 4000.0, "intensity_adj": 1.0, "xrel": 7852.0, "rmhot": 1, "flat_auto_slit": 4.999999999999997, "auto_ini_exp": 300.0, "auto_off": 0, "xto": 2860.0, "flat_auto_ref": "", "flat_auto_rank": 1, "autobackg": 0, "xrel_adj": 0.0, "auto_black_lvl": 1, "base_wnd": 100.0, "sub_baseline": 0, "xconv": 2, "auto_max_exp": 1000.0, "auto_total_exp": 10000.0, "auto_exp": 0, "rmripple": 0, "black_lvl": 8273.8, "shutter_clip_adj": 0.0, "auto_bckg": 0, "flat_auto_thr": 0.9, "subbackg": 1}
316.8218498245369 12546.153538886045
317.89969571804795 12512.572959625006
318.977263876126 12446.067804595134
320.05455438786703 12382.634275308954
321.1315673423287 12363.955902242798
322.2083028285215 12489.905056336722
323.2847609354267 12282.881856827536
324.3609417519747 12271.62694054959
325.43684536705587 12222.64176268017
326.5124718695279 12195.09006871912
327.58782134820103 12212.56336236945
328.66289389184385 12182.792082087455
329.7376895891921 11973.48489784705
330.8122085289342 12161.162215563709
331.88645079971866 12040.27236633064
332.9604164901575 11996.417416085205
334.03410568881554 12004.453791588861
335.1075184842266 12173.124305632897
336.18065496487543 11923.482056858975
337.2535152192122 11968.690538401494
338.32609933564163 11966.632698292029
339.39840740253203 11914.036168608098
340.4704395082099 11842.114483393427
341.5421957409617 11873.026559640803
342.6136761890357 11984.27269651575
343.6848809406365 11796.871110680675
344.75581008392874 11809.522689368936
345.82646370703696 11754.28748293535
346.8968418980512 11726.556502152167
347.96694474501055 11743.257469680717
349.0367723359268 11698.218580001349
350.106324758759 11699.0056069029
351.1756021014353 11543.911737463044
352.2446044518383 11582.71171481482
353.31333189781435 11636.078607153262
354.38178452716966 11520.371254114772
355.449962427665 11623.921916652484
356.51786568702846 11563.843167643357
357.58549439294256 11609.595872286425
358.6528486330535 11698.32370362156
359.71992849496564 11614.782490440433
360.7867340662433 11598.6389040497
361.8532654344144 11564.345862031612
362.9195226869597 11670.090130767618
363.9855059113288 11461.283480469103
365.05121519492604 11457.414467201224
366.11665062511565 11597.658593152155
367.1818122892273 11603.964572253546
368.2467002745434 11515.69745161832
369.31131466831175 11464.805026580989
370.375655557742 11526.333512573798
371.4397230299983 11504.942661990788
372.5035171722102 11462.411450313362
373.5670380714637 11546.943818292468
374.6302858148101 11602.26820348661
375.6932604892554 11598.714935757733
376.7559621817709 11576.925698218382
377.81839097928605 11415.62265394494
378.8805469686886 11484.89075764047
379.94243023683157 11444.345732006726
381.0040408705263 11444.182788476512
382.0653789565458 11364.387251956148
383.1264445816196 11347.223975724623
384.1872378324406 11351.277056965666
385.2477587956637 11390.849195968776
386.3080075579037 11292.553658779474
387.3679842057336 11235.225345938688
388.4276888256918 11284.180857349396
389.48712150426945 11222.558556889539
390.54628232792857 11265.944217533324
391.6051713830857 11183.284497868364
392.66378875611736 11234.524914789772
393.7221345333637 11219.01394002906
394.7802088011249 11105.96497041009
395.838011645661 11125.92248596617
396.89554315319765 11068.56015875412
397.9528034099112 11017.022219350893
399.00979250194723 10969.760251170006
400.06651051541485 11006.232476325615
401.1229575363741 11014.27473071359
402.17913365085224 10960.046347348169
403.23503894483656 11016.406539360934
404.2906735042761 10903.358594626181
405.3460374150818 10879.021390917387
406.401130763119 10916.349811643917
407.455953634224 10891.232977222804
408.5105061141876 10840.5815399592
409.56478828876243 10745.252129663802
410.6188002436629 10812.503307898105
411.6725420645689 10740.964067223513
412.72601383711117 10813.549390714803
413.77921564689314 10857.811909219468
414.8321475794728 10779.080149922342
415.88480972036814 10757.16714929933
416.93720215506437 10826.285128245418
417.9893249690049 10749.820228432316
419.04117824759123 10627.015666034698
420.09276207619223 10643.347654689504
421.144076540133 10691.577401611763
422.1951217247042 10636.664217396206
423.24589771515275 10593.547857606574
424.2964045966928 10600.920791077588
425.34664245449494 10558.640919320813
426.3966113736933 10589.250901956999
427.4463114393875 10524.801383352393
428.49574273662984 10530.135801284912
429.5449053504417 10403.424841196434
430.5937993658026 10525.777198146858
431.6424248676558 10417.61445203584
432.6907819409007 10415.605923721861
433.73887067040596 10525.446912155327
434.7866911409965 10530.77884894307
435.8342434374608 10415.298235462553
436.88152764455117 10416.194248390544
437.9285438469724 10411.8963366284
438.9752921294057 10374.597684245948
440.02177257648145 10302.116208254
441.06798527279716 10294.492871369312
442.1139303029122 10391.118938230802
443.1596077513459 10418.825832521637
444.2050177025794 10321.508640854101
445.25016024105753 10396.077633661773
446.2950354511886 10332.57492830091
447.33964341733736 10396.040271676804
448.383984223834 10337.4329247916
449.4280579549686 10274.293622480662
450.471864694995 10304.215775093124
451.5154045281306 10375.018285595801
452.5586775385509 10286.177972108331
453.60168381039693 10281.119239291553
454.64442342776783 10395.900828687258
455.6868964747264 10288.128851994128
456.7291030353008 10249.848860961243
457.77104319347563 10322.88982047962
458.8127170332027 10288.737413349496
459.854124638392 10284.895751582617
460.895266092919 10359.14849015673
461.93614148061897 10393.239865545751
462.97675088529104 10477.616736508424
464.01709439069236 10421.765108862257
465.0571720805492 10328.539912847371
466.0969840385442 10384.58569155246
467.1365303483253 10549.664402649378
468.17581109350067 10397.786154191146
469.2148263576437 10379.403722736966
470.2535762242878 10398.280155203272
471.29206077693016 10420.757598622484
472.33028009902773 10497.71167121124
473.3682342740012 10571.435251251281
474.40592338523857 10518.900257127363
475.4433475160804 10527.223751393618
476.4805067498364 10608.069992514993
477.51740116978 10549.789517619243
478.5540308591426 10623.152712690307
479.59039590112116 10866.15558704428
480.6264963788726 10777.29259011669
481.6623323755193 10891.22429256818
482.6979039741436 10906.406378277963
483.7332112577915 11058.34229804364
484.76825430947247 11197.630082690324
485.80303321215797 11264.910151201802
486.837548048783 11274.676883551332
487.8717989022425 11511.767099542249
488.90578585539697 11487.280431993715
489.9395089910686 11620.219678688944
490.97296839203955 11491.334942187532
492.00616414106116 11292.223124245855
493.0390963208429 11382.65440047313
494.0717650140559 11418.3754416342
495.10417030333883 11259.365368492356
496.1363122712901 11272.204904345792
497.16819100046814 11142.929092742861
498.1998065734024 10955.394594461553
499.2311590725767 10910.656453295782
500.26224858044407 10774.741608328633
501.2930751794156 10748.77294335768
502.3236389518679 10716.092694939172
503.35393998014115 10532.572650364047
504.38397834653733 10542.096705215054
505.4137541333221 10556.1024953009
506.4432674227228 10429.60797896748
507.4725182969323 10404.095491440092
508.5015068381035 10395.965762680185
509.53023312835467 10437.774493372508
510.55869724976765 10365.842502746844
511.58689928438434 10304.460575375973
512.6148393142121 10282.686418012974
513.6425174212218 10258.591190966757
514.6699336873462 10293.763494852456
515.6970881944835 10329.096737044743
516.7239810244901 10291.617653506193
517.7506122591931 10265.340210854678
518.7769819803761 10330.84702710435
519.8030902697901 10397.30100300835
520.8289372091476 10374.378507571822
521.8545228801249 10558.855566238013
522.8798473643619 10368.670089753472
523.9049107434621 10431.597585661792
524.9297130989908 10475.356243500562
525.9542545124805 10433.036060556375
526.9785350654201 10410.517335281078
528.0025548392696 10483.574091801362
529.0263139154504 10337.104543359696
530.0498123753423 10482.745612883173
531.073050300296 10365.752174958563
532.0960277716204 10361.979669193981
533.1187448705896 10300.173651454685
534.1412016784416 10345.00626840638
535.1633982763833 10363.027073708303
536.1853347455726 10259.89164682121
537.2070111671401 10172.243818230305
538.2284276221817 10203.66236150391
539.2495841917516 10145.606139196787
540.2704809568677 10019.552514128776
541.2911179985167 10119.657895693683
542.3114953976419 9993.719927158172
543.3316132351592 9962.85920975683
544.3514715919409 9957.752228126734
545.3710705488247 9982.39037384478
546.3904101866156 9973.54977928023
547.4094905860784 9993.762840105348
548.4283118279418 9852.168494356789
549.4468739929034 10001.869434836128
550.4651771616191 9984.804010762395
551.4832214147063 9825.33880564147
552.501006832761 9910.056458790003
553.5185334963226 9867.509521998809
554.5358014859103 9895.519146690942
555.5528108820035 9900.636623647497
556.5695617650363 9797.338007545026
557.5860542154242 9853.919363893558
558.6022883135283 9813.477557040802
559.6182641396881 9784.160109763681
560.6339817741991 9932.069195211869
561.6494412973225 9959.158914234988
562.6646427892883 9948.423599437772
563.6795863302796 9827.090955188305
564.694272000459 9894.986725523271
565.7086998799423 9930.867992632315
566.7228700488104 9847.227607113407
567.7367825871115 9853.752481284679
568.7504375748576 9975.943571497726
569.7638350920224 9872.648066604892
570.7769752185486 9806.017552438221
571.7898580343353 9801.211654970157
572.802483619258 9709.039275067467
573.8148520531431 9897.433962288518
574.8269634157932 9912.75076332511
575.8388177869692 9832.078223517925
576.8504152463938 9913.934397135767
577.8617558737587 10059.978257896055
578.8728397487175 9937.502841792088
579.883666950891 10000.346396913206
580.8942375598654 10076.973662285722
581.9045516551851 10149.915377088244
582.9146093163617 10305.751328182781
583.924410622878 10244.147102746949
584.9339556541727 10199.619096661327
585.9432444896538 10481.56277916641
586.9522772086875 10296.05862997402
587.9610538906127 10399.176215367901
588.9695746147318 10232.116377653616
589.9778394603054 10268.381428018223
590.985848506567 10237.587323748507
591.9936018327098 10204.77567254822
593.0010995178891 10025.357647627556
594.0083416412344 10109.5360998299
595.0153282818283 9942.198629158034
596.0220595187293 9926.362974539818
597.0285354309508 9934.802460420298
598.0347560974806 9830.742814177836
599.0407215972609 9771.299888301906
600.0464320092051 9801.944586225767
601.0518874121954 9819.06847103987
602.0570878850685 9696.916197008894
603.062033506636 9763.429202488089
604.0667243556636 9791.07011100168
605.0711605108936 9731.034605272012
606.0753420510264 9951.422065990166
607.0792690547278 9797.004987855564
608.082941600629 9838.988104639695
609.0863597673306 9738.121244012742
610.0895236333909 9861.691797714315
611.0924332773357 10010.525434267043
612.0950887776617 9972.932222487714
613.0974902128219 10080.857281346218
614.0996376612384 10276.612397199435
615.1015312013005 10344.53052108076
616.1031709113595 10408.287970716865
617.1045568697336 10246.182675103344
618.1056891547069 10532.949222532092
619.1065678445229 10634.05957334939
620.1071930173985 10918.410901039006
621.1075647515099 10891.227646210787
622.1076831250048 11014.549644952407
623.1075482159849 11119.173386936885
624.1071601025305 11133.757259349233
625.1065188626781 11301.949077780167
626.105624574433 11432.468254239897
627.1044773157682 11553.460801329747
628.1030771646128 11553.601795749815
629.1014241988742 11650.320403733891
630.0995184964158 11861.5499228899
631.0973601350688 11813.023482452343
632.0949491926294 11981.586265707598
633.0922857468631 11764.5687948381
634.089369875499 11814.71890588568
635.0862016562278 11901.312776319142
636.0827811667077 11677.169811073414
637.0791084845641 11672.101638126323
638.0751836873878 11473.0092006084
639.0710068527369 11588.607958810153
640.0665780581294 11332.393463203227
641.0618973810506 11317.900928711395
642.0569648989604 11183.428736083291
643.0517806892676 10967.351547821445
644.0463448293649 10983.107095827303
645.040657396592 10796.914400495954
646.0347184682723 10662.796910483983
647.0285281216875 10582.797253051536
648.0220864340772 10547.826206569642
649.0153934826558 10372.891954754901
650.0084493446047 10255.581648880801
651.0012540970674 10282.304704670347
651.9938078171526 10074.11775592706
652.9861105819346 10017.675498826387
653.9781624684565 10147.957549469753
654.9699635537254 9935.519340728952
655.9615139147136 9959.678537594158
656.9528136283589 9830.933610714641
657.9438627715699 9887.80963097652
658.9346614212154 9776.313468661077
659.925209654135 9591.944437205211
660.9155075471263 9659.48265258131
661.9055551769616 9646.617258831233
662.895352620375 9748.134944464684
663.8848999540678 9535.396209587081
664.8741972547068 9414.677173984082
665.863244598926 9364.508551200159
666.8520420633213 9411.483722082427
667.8405897244611 9366.97029480229
668.8288876588758 9188.853484143949
669.8169359430613 9377.27411720126
670.8047346534822 9285.974049011062
671.7922838665672 9245.570014768438
672.7795836587156 9364.334126614523
673.766634106285 9457.870927274444
674.7534352856092 9292.708478957084
675.7399872729766 9257.454066442713
676.7262901446538 9281.288219637041
677.712343976862 9220.05814679912
678.6981488457986 9296.436706162856
679.6837048276229 9230.483038861432
680.6690119984596 9363.926057504514
681.6540704344043 9236.46998822688
682.6388802115107 9191.267678498618
683.6234414058108 9288.011036389265
684.6077540932874 9175.777087835273
685.591818349907 9150.95682126749
686.575634251587 9154.728392097637
687.5592018742263 9162.901213978228
688.5425212936734 9137.16817776905
689.5255925857564 9137.306350353649
690.5084158262707 9159.788903365114
691.4909910909646 9102.574945551667
692.4733184555644 9104.161552217616
693.4553979957618 9147.46652753262
694.4372297872123 9145.243702842887
695.4188139055404 9085.769660505235
696.4001504263324 9031.473781472943
697.3812394251509 9209.882053947838
698.3620809775111 9158.528137414987
699.3426751589104 9188.802773571852
700.3230220448004 9034.108715871393
701.3031217106054 9166.644579440968
702.2829742317172 9359.617144588
703.2625796834873 9128.860467987042
704.2419381412474 9218.373490392367
705.22104968028 9247.273033432593
706.1999143758458 9227.412575228167
707.178532303169 9368.243065726792
708.1569035374378 9437.719600360026
709.1350281538107 9412.81779204789
710.1129062274158 9485.158351265334
711.0905378333373 9746.427749611037
712.0679230466376 9778.187629790798
713.0450619423427 9968.359588645313
714.0219545954424 10219.72786660608
714.9986010808989 10094.506775241003
715.9750014736292 10427.420669707386
716.9511558485392 10561.608017397222
717.9270642804786 10775.229035002969
718.9027268442787 10846.377462393168
719.8781436147328 10869.29756491812
720.8533146666014 10778.932898467214
721.828240074612 10934.425754487256
722.8029199134635 10849.954701616565
723.7773542578125 10804.414046044732
724.751543182294 10631.720479387319
725.7254867615029 10594.231265427314
726.6991850700015 10317.430338450682
727.6726381823228 10334.81104974532
728.6458461729599 10247.370061960317
729.6188091163858 10299.386808160229
730.5915270870246 10186.772142800908
731.5640001592856 10099.074602833065
732.536228407529 10273.888927293701
733.5082119060917 10223.41964501543
734.4799507292755 10135.22307388213
735.4514449513481 10157.330043393458
736.4226946465496 10323.54461237737
737.3936998890786 10329.669034282026
738.3644607531078 10075.221895244835
739.3349773127793 10043.83327327653
740.3052496421951 9994.965786062443
741.27527781543 9807.044019054552
742.2450619065221 9738.221468881076
743.2146019894826 9666.716890195876
744.183898138288 9543.42155150182
745.1529504268801 9410.690240159585
746.1217589291682 9239.578228588547
747.0903237190341 9150.292343168567
748.058644870318 9189.858628092434
749.0267224568397 8976.4936890754
749.994556552374 8806.189870869923
750.9621472306771 8922.13290215573
751.9294945654583 8839.481970991097
752.8965986304011 8889.168628015337
753.8634594991636 8772.77410125157
754.8300772453586 8903.95082441561
755.7964519425768 8831.080820390447
756.762583664371 8894.575804644428
757.7284724842611 8817.392467082977
758.6941184757416 8730.941840654155
759.6595217122667 8724.883349686528
760.6246822672638 8778.617828577226
761.5896002141235 8605.671978053604
762.5542756262093 8737.756423199242
763.5187085768503 8800.070467388341
764.4828991393406 8754.329576201091
765.4468473869474 8722.48295517714
766.4105533929032 8772.922458898913
767.3740172304078 8614.01774516613
768.3372389726283 8752.554104905594
769.3002186926988 8595.633128324482
770.2629564637282 8534.12849368969
771.2254523587872 8627.946207500543
772.1877064509154 8516.542198980427
773.1497188131179 8435.879869225917
774.1114895183728 8350.773726133417
775.0730186396268 8440.316062607599
776.0343062497905 8303.219683307327
776.9953524217381 8243.819502326092
777.9561572283274 8320.30452827645
778.9167207423689 8330.41567629425
779.8770430366476 8268.891810277106
780.8371241839159 8242.443011409512
781.7969642568951 8261.954671035897
782.7565633282757 8569.751068069776
783.7159214707099 8213.413132827784
784.6750387568281 8302.559976139648
785.6339152592227 8330.389763574825
786.5925510504512 8220.624410893066
787.5509462030477 8227.785758246264
788.5091007895098 8217.401638823947
789.4670148823006 8274.203974001535
790.4246885538596 8264.5633077021
791.3821218765861 8221.879326888635
792.3393149228505 8191.453377980208
793.2962677649975 8325.573133888109
794.2529804753303 8352.4275401034
795.20945312613 8384.41011528183
796.1656857896378 8305.464775769797
797.1216785380675 8307.999860615588
798.0774314435985 8452.412123266493
799.0329445783846 8499.17944453285
799.9882180145414 8494.906669876747
800.9432518241574 8453.166438291457
801.89804607929 8623.755155904702
802.852600851962 8642.895077671094
803.8069162141637 8552.103419152121
804.760992237856 8722.047860813636
805.714828994971 8648.644572711044
806.6684265574077 8698.3411763528
807.6217849970271 8681.165651895526
808.574904385674 8616.907909240172
809.527784795142 8640.533597752154
810.4804262972102 8724.93470323569
811.4328289636178 8457.488099968556
812.3849928660748 8400.892185782737
813.3369180762638 8470.055729668344
814.2886046658241 8481.758661552747
815.2400527063783 8298.718243830232
816.1912622695108 8352.945676457352
817.1422334267718 8317.973210701868
818.0929662496856 8233.65332510655
819.0434608097457 8133.637396478947
819.9937171784059 8079.519054717617
820.9437354271013 8064.410487986223
821.8935156272255 8103.545010108748
822.8430578501484 8026.61724941262
823.7923621672016 7852.974586754266
824.7414286496896 7983.966259890161
825.6902573688876 8053.818032128297
826.6388483960363 7983.877625934916
827.5872018023492 7907.250905467564
828.5353176590033 7982.545939411243
829.4831960371503 7872.400157298641
830.4308370079016 7824.9882235193945
831.3782406423525 7930.3009159188205
832.3254070115545 7916.0685807835125
833.2723361865319 7823.8173031966
834.2190282382799 7856.210194638319
835.1654832377644 7848.247351148379
836.1117012559116 7729.522013122551
837.0576823636256 7973.245994123923
838.003426631778 7720.1669231581745
838.9489341312074 7715.072521501485
839.8942049327197 7855.4127012823765
840.8392391070975 7899.164683316686
841.7840367250865 7783.1344595116025
842.7285978573982 7751.509019510726
843.672922574724 7847.485148255563
844.6170109477152 7729.8847665087305
845.560863046996 7770.675179232523
846.5044789431595 7797.999071736053
847.4478587067697 7706.1755374681015
848.3910024083561 7812.08928267348
849.333910118421 7710.521460979666
850.2765819074339 7691.995818620124
851.2190178458332 7841.364008892866
852.161218004032 7883.202602885211
853.1031824524016 7812.189788475349
854.0449112612987 7823.105895817916
854.9864045010327 7872.525739903164
855.9276622418947 7705.081802399461
856.8686845541379 7743.142815742178
857.8094715079915 7727.559047251418
858.7500231736467 7859.957897855679
859.690339621271 7822.564718244255
860.6304209209939 7877.714117809844
861.5702671429244 7751.037233514563
862.5098783571284 7799.347647065622
863.4492546336569 7784.548066351567
864.3883960425155 7814.142230657257
865.3273026536863 7802.194533072185
866.2659745371238 7841.747815875111
867.2044117627465 7945.702170552659
868.1426144004472 7846.082571403431
869.0805825200823 7897.23717714269
870.0183161914847 7931.9849558592105
870.9558154844526 7969.650058433785
871.8930804687552 7982.69758904069
872.8301112141307 8000.318211306677
873.7669077902865 8059.1729016991685
874.7034702669062 8084.808226168532
875.6397987136315 8054.087754773094
876.5758932000863 8130.024244369354
877.5117537958522 8166.0507656934615
878.4473805704911 8112.02691509204
879.3827735935283 8031.402415527499
880.3179329344603 8233.503092832118
881.2528586627541 8093.991002141028
882.1875508478479 8284.244036600548
883.1220095591489 8125.173566780742
884.0562348660296 8139.178771789935
884.9902268378391 8264.341874305755
885.9239855438955 8206.221281053655
886.8575110534839 8094.377469147755
887.7908034358588 8153.152758562459
888.7238627602474 8111.949200314239
889.6566890958475 8077.141622102286
890.5892825118208 7891.023554375982
891.5216430773125 8038.244405995688
892.4537708614189 7955.24241810087
893.3856659332196 7886.036495571246
894.3173283617652 7728.883380289534
895.2487582160684 7867.726888576612
896.179955565116 7807.20074264681
897.110920477864 7723.522831902822
898.0416530232451 7664.785588832584
898.9721532701478 7571.833988444863
899.9024212874428 7709.110187417369
900.8324571439662 7536.462729837612
901.7622609085302 7602.844704239884
902.6918326499072 7485.428032943171
903.6211724368477 7649.280002986656
904.5502803380696 7542.8721526626905
905.4791564222614 7726.788507585533
906.4078007580792 7491.737453424399
907.3362134141571 7484.099017211275
908.2643944590909 7660.094760739038
909.1923439614493 7482.349212061015
910.1200619897754 7489.627600182032
911.0475486125779 7717.3456537400225
911.9748038983344 7494.744739063634
912.9018279155007 7554.067190803284
913.8286207324982 7406.123345852291
914.7551824177117 7440.261907958123
915.6815130395116 7527.493231532409
916.6076126662283 7367.561597848906
917.533481366163 7436.459872662413
918.4591192075914 7476.888058694075
919.3845262587565 7438.901155739771
920.3097025878706 7417.127532853396
921.2346482631237 7400.959080871323
922.1593633526682 7438.6052065638405
923.0838479246304 7438.601761494903
924.0081020471061 7518.4027843366075
924.9321257881656 7309.271847236274
925.8559192158464 7363.84155213819
926.7794823981512 7295.292755120832
927.7028154030686 7353.759226236149
928.6259182985414 7273.598349252272
929.5487911524906 7393.222273571044
930.4714340328119 7375.996028357074
931.3938470073608 7158.042853216632
932.3160301439748 7315.188803527965
933.2379835104548 7260.483833190881
934.1597071745709 7383.233613821025
935.0812012040769 7282.841611764353
936.002465666681 7320.562883691714
936.9235006300696 7315.780949079012
937.8443061619055 7366.158482526385
938.7648823298077 7258.634863695384
939.6852292013809 7246.534838809673
940.6053468441951 7372.432895905658
941.5252353257874 7160.130382340309
942.4448947136698 7295.913061474246
943.364325075323 7314.761751521657
944.2835264782043 7302.126241230416
945.2024989897309 7318.731781082664
946.1212426773054 7330.971612199336
947.0397576082851 7366.392385470921
947.9580438500125 7394.7078453701515
948.8761014697939 7452.713018262696
949.7939305349064 7543.240686017149
950.7115311125999 7403.287235185878
951.6289032700952 7342.387506236133
952.5460470745875 7471.567218402501
953.4629625932339 7401.082774890109
954.3796498931715 7576.291703887853
955.2961090415029 7435.666302334471
956.2123401053068 7469.587545139509
957.1283431516276 7527.856454497663
958.0441182474842 7328.621809379669
958.9596654598663 7445.910102076885
959.8749848557309 7424.432318260528
960.7900765020167 7417.923353252932
961.7049404656209 7288.126339771002
962.6195768134185 7342.394232830005
963.5339856122537 7285.890716512588
964.4481669289453 7395.101672048977
965.3621208302793 7284.427938069102
966.2758473830145 7265.531323467212
967.1893466538822 7391.011887309347
968.1026187095813 7260.5464972415375
969.0156636167867 7367.012069350065
969.9284814421426 7282.300584415747
970.8410722522622 7256.913436232191
971.753436113735 7177.795077037571
972.6655730931161 7274.741377759658
973.5774832569368 7296.786832897285
974.4891666716958 7174.67693934457
975.4006234038698 7107.7014028297435
976.3118535198955 7097.715504833703
977.2228570861935 7321.601479467929
978.1336341691494 7211.326473825031
979.0441848351202 7131.43051382058
979.9545091504333 7276.641403479279
980.864607181391 7258.881330214562
981.7744789942699 7314.899823901321
982.6841246553086 7307.76734383682
983.5935442307236 7283.0619566905425
984.5027377867027 7332.646089657706
985.4117053894024 7340.399812052936
986.3204471049557 7326.342528523976
987.2289629994648 7436.912874855528
988.1372531390007 7514.580522434097
989.0453175896091 7290.618797131267
989.9531564173067 7401.8991511587055
990.860769688079 7310.669008419152
991.7681574678918 7429.681732834596
992.6753198226706 7504.747684168478
993.582256818323 7413.893552137053
994.4889685207218 7485.397161529261
995.3954549957143 7629.6669684207955
996.301716309119 7603.217893081577
997.2077525267232 7601.265203536078
998.1135637142943 7587.101110187791
999.0191499375615 7680.364228013369
999.924511262232 7536.405905325186
1000.8296477539861 7692.106825496974
1001.7345594784656 7500.415529345654
1002.6392465012996 7518.644565297187
1003.5437088880753 7599.577705181771
1004.4479467043584 7537.935718757921
1005.3519600156869 7368.481837512741
1006.2557488875718 7421.827778815804
1007.1593133854858 7431.928516399574
1008.0626535748888 7457.11164026907
1008.9657695212009 7292.156665011552
1009.8686612898182 7433.1461600854045
1010.7713289461135 7446.798444666174
1011.6737725554212 7389.1892155234455
1012.5759921830577 7380.951778174758
1013.4779878943027 7327.680869206108
1014.379759754418 7377.057914413039
1015.2813078286254 7318.278721777633
1016.18263218213 7189.959264164032
1017.0837328801026 7308.271588445084
1017.9846099876886 7357.371158454791
1018.8852635700023 7265.437289004297
1019.7856936921362 7039.546248336383
1020.6859004191447 7300.122140199999
1021.5858838160675 7194.461070896214
1022.4856439479063 7082.872773296568
1023.3851808796389 7096.807428128365
1024.2844946762143 7126.514327548568
1025.183585402554 7102.37589851565
1026.082453123554 7018.6136482487
1026.9810979040776 7150.637214597543
1027.8795198089647 6904.283530711912
1028.777718903024 7182.628112007328
1029.6756952510368 6966.4978333132585
1030.5734489177648 6950.600651368967
1031.4709799679313 7034.40187603066
1032.3682884662358 7125.096348430023
1033.2653744773506 6904.239412003088
1034.1622380659192 6860.708429233496
1035.058879296559 7085.0053340417535
1035.9552982338591 7112.213311273088
1036.8514949423825 7075.67615054759
1037.7474694866614 7079.539278283832
1038.6432219312028 7010.182986123186
1039.5387523404825 7128.051002419583
1040.4340607789582 7154.626178069078
1041.3291473110476 7152.297683465209
1042.2240120011465 7285.60935305446
1043.1186549136273 7307.643352724261
1044.0130761128294 7125.004528410772
1044.9072756630649 7283.838225940162
1045.8012536286205 7366.5859664400905
1046.6950100737577 7336.564514119777
1047.588545062701 7366.073319762179
1048.481858659663 7332.660440406662
1049.3749509288118 7526.738081476539
1050.2678219343034 7365.224801055427
1051.1604717402515 7400.9816905067955
1052.0529004107575 7212.773028850928
1052.9451080098825 7380.568259306083
1053.8370946016694 7343.800839759913
1054.7288602501267 7361.403011201626
1055.6204050192446 7273.811994660908
1056.511728972977 7385.638737102965
1057.402832175254 7340.50344531291
1058.2937146899785 7185.846892067222
1059.1843765810263 7191.090854273229
1060.0748179122456 7282.104612192149
1060.9650387474576 7211.949735463498
1061.855039150456 7289.193239469057
1062.7448191850071 7208.301595634863
1063.6343789148505 7156.629569322198
1064.5237184037014 7268.030040439905
1065.412837715241 7064.506012416998
1066.3017369131267 7112.910381953085
1067.190416060992 7155.479947965765
1068.0788752224398 6984.126865046805
1068.9671144610438 7074.7863330518685
1069.8551338403558 7193.667610197939
1070.7429334239023 7281.654753325551
1071.6305132751695 7053.833163010422
1072.517873457633 7149.438580117445
1073.4050140347335 7129.063521670754
1074.2919350698776 7061.302231835451
1075.1786366264623 6959.993089436211
1076.0651187678395 7068.293201930095
1076.95138155735 6933.480748677168
1077.8374250582929 6944.18748544522
1078.7232493339507 7003.734974101981
1079.608854447577 6919.07538608255
1080.4942404623907 6931.59265252041
1081.3794074415982 7061.413839621726
1082.2643554483657 7064.050085978827
1083.149084545841 7035.672700629712
1084.033594797138 6933.139815468395
1084.9178862653516 6951.3839666714575
1085.8019590135427 7152.828059857084
1086.6858131047484 6956.11815101922
1087.5694486019802 7131.8298401464535
1088.4528655682225 7071.883776251362
1089.3360640664287 7244.508003536716
1090.2190441595321 7094.709574761911
1091.1018059104317 7217.81509041938
1091.98434938201 7265.100636359619
1092.866674637111 7168.780548768448
1093.748781738559 7211.853213581126
1094.6306707491512 7107.775609238041
1095.5123417316554 7225.944536430985
1096.3937947488157 7109.009173802844
1097.2750298633455 7167.036604394683
1098.156047137938 7053.6423116390015
1099.0368466352556 7171.756322677291
1099.9174284179317 7158.163167608056
1100.7977925485757 7029.379410912516
1101.6779390897755 7012.087068771076
1102.5578681040806 6985.642970972954
1103.4375796540226 7055.439612113939
1104.3170738021054 7052.332767368811
1105.1963506108077 6831.9912247741695
1106.0754101425773 6773.283735392251
1106.9542524598382 6916.778347332595
1107.8328776249855 6809.06369583824
1108.7112857003904 6759.218577005045
1109.5894767483987 6760.244626650895
1110.4674508313292 6854.5211378404465
1111.3452080114657 6815.17300987182
1112.2227483510815 6848.385213050101
1113.1000719124077 6907.6892399691915
1113.9771787576592 6901.146277246909
1114.854068949022 6883.0705471753845
1115.7307425486542 6957.351461509755
1116.6071996186893 7108.0894427212315
1117.483440221229 7364.729687361049
1118.3594644183577 7091.912094867325
1119.235272272128 7260.93477985908
1120.1108638445658 7320.849375535241
1120.9862391976712 7551.415902906911
1121.8613983934229 7373.839245553825
1122.7363414937627 7328.642612224527
1123.6110685606182 7432.648943098318
1124.485579655884 7642.862766805835
1125.359874841426 7559.031029465817
1126.2339541790916 7571.585253051382
1127.1078177306936 7810.0203924122425
1127.9814655580267 7651.980846767959
1128.854897722851 7764.449343852141
1129.7281142869106 7716.706749739092
1130.6011153119125 7773.466902592128
1131.473900859548 7880.074853415019
1132.3464709914697 7669.323460309531
1133.2188257693178 7663.031548628407
1134.0909652546961 7626.03847309199
1134.96288950919 7542.216668852649
1135.8345985943506 7644.52912463093
1136.7060925717087 7415.834698559927
1137.57737150277 7408.537075660073
1138.4484354490069 7455.065338259032
1139.3192844718778 7307.08311092472
1140.1899186327992 7070.201985376606
1141.060337993178 7284.817032365083
1141.930542614382 7100.774988495103
1142.8005325577597 7189.434609987928
1143.670307884635 6769.60433359693
1144.5398686563003 7014.350574574998
1145.409214934025 6900.207462336535
1146.2783467790541 6700.862032140588
1147.1472642526023 6707.716915089576
1148.0159674158622 6807.082310147847
1148.8844563300026 6735.220671036554
1149.7527310561618 6478.911582779978
1150.6207916554504 6470.526815256753
1151.4886381889592 6496.417974866203
1152.3562707177498 6571.492475117266
1153.2236893028585 6476.642352011177
1154.090894005296 6404.231820320366
1154.9578848860474 6452.058837489255
1155.8246620060709 6376.147305028835
1156.6912254262988 6317.083742025367
1157.5575752076438 6276.6661738930525
1158.42371141098 6528.616640922379
1159.2896340971656 6454.921938517256
1160.1553433270346 6451.717667141844
1161.0208391613887 6323.075406739984
1161.8861216610057 6375.097159551921
1162.75119088664 6363.985746239719
1163.6160468990201 6201.557370802863
1164.4806897588442 6165.339608827667
1165.3451195267917 6394.727017422809
1166.2093362635114 6293.881093810933
1167.0733400296285 6283.791099125519
1167.9371308857444 6147.761718119184
1168.8007088924278 6202.932584325069
1169.6640741102328 6344.790109279912
1170.5272265996773 6253.226549298526
1171.390166421259 6087.999465117146
1172.252893635452 6344.082031230172
1173.1154083026995 6373.643565478733
1173.977710483421 6293.354781129876
1174.8398002380145 6197.742361339682
1175.7016776268483 6317.392906576168
1176.563342710264 6248.80540516435
1177.4247955485826 6218.872154271994
1178.2860362020947 6325.608752372957
1179.147064731069 6183.046144272987
1180.0078811957483 6409.56968862494
1180.8684856563486 6273.641140275451
1181.7288781730604 6285.7769868917585
1182.589058806052 6381.50369968678
1183.4490276154593 6568.130972801012
1184.3087846614017 6426.221621489334
1185.1683300039676 6411.7740629339305
1186.027663703222 6535.593747213375
1186.8867858192025 6417.353262828434
1187.7456964119228 6533.212027851921
1188.6043955413716 6616.0332875155345
1189.4628832675116 6731.899376915821
1190.3211596502842 6682.760238854624
1191.179224749596 6762.838642006658
1192.0370786253388 6581.066377547703
1192.8947213373758 6879.5239433446495
1193.7521529455407 6935.810128022318
1194.6093735096438 6729.841831705072
1195.466383089477 6775.183606645465
1196.3231817447977 6817.369594069783
1197.1797695353398 6884.592999523404
1198.0361465208189 6814.657019948636
1198.8923127609214 6705.259885973655
1199.7482683153048 6814.581195383868
1200.6040132436028 6939.311795743891
1201.459547605431 6765.271070912071
1202.3148714603722 6681.093044627208
1203.1699848679855 6746.42985169842
1204.0248878878065 6761.887693380598
1204.8795805793507 6585.010956741084
1205.7340630020935 6778.9806853236105
1206.5883352155033 6808.958335018391
1207.4423972790064 6578.344530090011
1208.2962492520237 6599.414100768969
1209.1498911939307 6622.837491805619
1210.0033231640937 6589.737993009874
1210.8565452218427 6509.194764624386
1211.7095574264913 6424.247228417661
1212.5623598373222 6408.49787880641
1213.4149525135963 6289.270787735279
1214.2673355145507 6336.756064024599
1215.1195088993936 6266.705755733148
1215.9714727273113 6265.468403619927
1216.8232270574663 6459.890010286422
1217.6747719489904 6124.167825574354
1218.5261074609934 6217.812306248223
1219.3772336525653 6265.579705524078
1220.2281505827668 6374.14149226148
1221.0788583106296 6285.249252694173
1221.9293568951707 6132.907800562779
1222.7796463953746 6073.630157481772
1223.629726870202 6169.967115590633
1224.4795983785934 6274.371597645893
1225.3292609794553 6244.810100783201
1226.1787147316809 6050.728224584779
1227.0279596941327 6169.798965145126
1227.8769959256424 6164.868596297505
1228.7258234850306 6225.90294882287
1229.5744424310833 6006.1156043240535
1230.422852822563 6255.868290546134
1231.2710547182105 6197.456293527611
1232.119048176739 6149.74520672752
1232.9668332568417 5977.989460568698
1233.8144100171812 6094.366220762842
1234.6617785163999 6256.437073356949
1235.508938813111 5882.022905131657
1236.3558909659114 5982.471389089013
1237.2026350333617 6140.7716983996625
1238.049171074008 6158.706499014126
1238.8954991463652 6053.816866628212
1239.741619308932 5982.54626122419
1240.587531620169 6229.145357035225
1241.4332361385277 6104.948262384067
1242.2787329224248 5938.433229112381
1243.1240220302534 6008.252285071476
1243.9691035203869 5970.308611345901
1244.813977451171 6030.648654468482
1245.6586438809263 6096.916949955781
1246.5031028679496 5796.673952066815
1247.3473544705157 6107.854842371586
1248.1913987468706 5944.717970924546
1249.0352357552383 5798.986456973934
1249.8788655538228 5867.5921136078405
1250.7222882007918 6015.773450981065
1251.565503754302 6000.362909796244
1252.4085122724755 5891.82693200249
1253.2513138134182 6060.13798530079
1254.0939084352049 6020.106218104775
1254.9362961958905 6055.174962927788
1255.7784771535007 5997.139396339734
1256.6204513660432 6056.094019310596
1257.4622188915 6210.146555718036
1258.3037797878242 6096.018740818336
1259.1451341129468 5943.884262372522
1259.9862819247755 6076.018263900716
1260.8272232811978 5991.911515587946
1261.6679582400666 6269.1157700129825
1262.5084868592203 5877.473487049107
1263.34880919647 6038.631697970536
1264.1889253095997 6051.926258830458
1265.0288352563712 6092.33888753301
1265.8685390945266 6097.116614173289
1266.7080368817751 6143.613347839151
1267.5473286758115 6216.245818682703
1268.386414534294 6190.168006627999
1269.2252945148703 5804.837102481697
1270.0639686751547 6022.624175992679
1270.9024370727402 5995.5153143965
1271.7406997651997 5929.724549304321
1272.5787568100714 5927.7644333969265
1273.4166082648808 5947.4674976324
1274.2542541871244 5889.650210901268
1275.091694634275 6083.44007711495
1275.9289296637817 5912.177639560821
1276.7659593330663 6000.4035689353495
1277.6027836995308 5813.842801481299
1278.4394028205552 5989.526852695606
1279.2758167534867 5922.159105164223
1280.112025555658 6002.395450723566
1280.9480292843746 5896.826534697713
1281.7838279969128 5689.001989574559
1282.6194217505326 5857.0921879393245
1283.4548106024686 5688.742202513963
1284.289994609926 5798.237004772474
1285.1249738300921 5943.105835351758
1285.959748320127 5738.931417067852
1286.7943181371702 5913.5205878938295
1287.6286833383328 5924.246202925
1288.4628439807038 5903.706199899615
1289.2968001213521 5792.479875867387
1290.1305518173194 5833.003626492084
1290.9640991256183 5945.188666084943
1291.7974421032523 5873.729387584608
1292.630580807183 5887.622315707331
1293.463515294361 6014.199812577111
1294.29624562171 6049.809903406809
1295.12877184613 5865.513477920127
1295.961094024493 5935.582088244435
1296.79321221365 6053.693074359869
1297.6251264704333 6063.715182278099
1298.4568368516466 6262.835850824238
1299.2883434140658 6173.000935157657
1300.1196462144526 6011.604808741166
1300.9507453095375 6190.97358652234
1301.7816407560313 6099.93883064154
1302.6123326106172 6190.29021292622
1303.4428209299622 6016.995131915055
1304.2731057707024 6258.927301255323
1305.1031871894502 5987.064800409236
1305.933065242798 6268.760875168075
1306.7627399873181 6122.651805102805
1307.5922114795467 6492.80886922587
1308.4214797760123 6321.365897511618
1309.2505449332057 6186.026963732668
1310.0794070076026 6340.130480225526
1310.9080660556538 6346.770165290072
1311.736522133786 6441.628649955161
1312.5647752983987 6269.578806895915
1313.3928256058734 6200.7596100689425
1314.2206731125661 6332.096975951863
1315.048317874809 6307.434194214612
1315.8757599489109 6314.010950420734
1316.7029993911547 6417.968662923857
1317.5300362578055 6609.461029763428
1318.356870605101 6226.9215864686985
1319.183502489257 6357.56239516465
1320.0099319664623 6423.2594565634845
1320.836159092889 6450.255549794065
1321.66218392468 6534.752243001707
1322.4880065179532 6340.619872518509
1323.3136269288134 6458.553348757188
1324.1390452133292 6565.163509890311
1324.9642614275563 6538.790375720191
1325.7892756275214 6455.849651478582
1326.6140878692295 6285.52448560727
1327.4386982086617 6685.475804274043
1328.2631067017755 6530.957160238433
1329.0873134045069 6477.543873839415
1329.911318372764 6388.4132875073365
1330.735121662441 6291.6585938579965
1331.558723329399 6287.15788455957
1332.3821234294774 6280.359069876953
1333.2053220185007 6223.166096266693
1334.0283191522612 6215.079706254153
1334.851114886529 6303.497483295868
1335.6737092770582 6164.587293667038
1336.4961023795695 6154.622375012061
1337.3182942497697 6120.141033593407
1338.1402849433325 6228.328356785177
1338.962074515921 5959.3724484501
1339.7836630231632 5792.714953356508
1340.6050505206676 6268.0297931884215
1341.426237064028 6049.385106674267
1342.2472227088037 6217.325299830059
1343.0680075105338 5789.474113819231
1343.888591524741 5763.45135101485
1344.7089748069138 6031.979659777272
1345.5291574125276 5839.745530415983
1346.3491393970307 5594.305550642329
1347.168920815846 5828.507624644883
1347.9885017243778 5726.475339221925
1348.8078821780036 5775.469967545179
1349.6270622320844 5858.779684522939
1350.4460419419447 5664.707841414625
1351.2648213629054 5839.604885748018
1352.0834005502438 5537.793124965145
1352.90177955923 5631.516649127213
1353.7199584451064 6024.057324947584
1354.5379372630887 5700.0561641316835
1355.355716068374 5617.790827289102
1356.1732949161305 5583.72369973223
1356.9906738615155 5514.1731213389485
1357.8078529596478 5617.146340877025
1358.6248322656375 5632.351591645582
1359.441611834567 5398.284628937519
1360.2581917214866 5827.822051036565
1361.0745719814367 5483.1464362244005
1361.890752669433 5432.221564690981
1362.7067338404577 5480.230988134815
1363.5225155494845 5687.052463646918
1364.3380978514506 5693.884042207355
1365.1534808012839 5328.341896874315
1365.9686644538815 5326.073885441927
1366.783648864117 5566.226817174967
1367.5984340868417 5630.644771857194
1368.413020176893 5625.500088948162
1369.2274071890715 5331.886613491075
1370.0415951781652 5635.259808257059
1370.8555841989346 5500.247784434325
1371.6693743061223 5368.559587719729
1372.48296555444 5304.118857039894
1373.2963579985844 5477.525789941859
1374.1095516932255 5411.30911605592
1374.9225466930166 5243.717985962647
1375.7353430525782 5452.573430078982
1376.5479408265164 5319.075153008589
1377.36034006941 5375.5877014191265
1378.1725408358216 5479.232697415426
1378.9845431802805 5219.981205144874
1379.796347157304 5531.788763508228
1380.6079528213813 5487.984158433532
1381.4193602269788 5259.324936473792
1382.230569428546 5295.133944673953
1383.0415804805016 5575.517731839377
1383.852393437246 5510.1167072509725
1384.6630083531563 5458.605268766114
1385.4734252825892 5431.700260185586
1386.2836442798798 5372.457769094354
1387.0936653993322 5307.675644167231
1387.9034886952395 5294.381117353269
1388.713114221864 5564.134905053474
1389.5225420334482 5446.779374687221
1390.331772184214 5255.915060051286
1391.1408047283585 5221.685957932469
1391.9496397200564 5227.248661646854
1392.758277213461 5486.905231434035
1393.5667172627054 5409.824062923433
1394.3749599218918 5248.867492229516
1395.1830052451114 5128.2081894444
1395.9908532864265 5166.823338314949
1396.7985040998774 5420.591537328385
1397.6059577394808 5178.043227961318
1398.4132142592352 5261.602812758868
1399.2202737131156 5123.973134793007
1400.027136155073 5266.400696287053
1400.8338016390353 5188.821016582028
1401.6402702189134 5111.623012458314
1402.446541948586 5175.35670131891
1403.2526168819204 5033.459235790697
1404.058495072757 5039.0614474088825
1404.8641765749107 5061.878524350793
1405.6696614421799 5197.074574226833
1406.4749497283356 5315.105384489202
1407.280041487129 5082.513744520249
1408.084936772295 4824.73507097232
1408.8896356375335 5126.536085753331
1409.6941381365323 5126.297287860101
1410.498444322955 4881.861759907471
1411.3025542504402 5019.586460638083
1412.106467972606 5076.500181339611
1412.9101855430508 5044.147336961125
1413.7137070153458 4884.848630582923
1414.5170324430437 4954.678466098753
1415.320161879672 5053.765771150681
1416.1230953787435 5312.220182018727
1416.925832993742 4884.528279665812
1417.7283747781275 4775.622185338683
1418.5307207853439 5072.661168913953
1419.3328710688093 4955.785207884519
1420.134825681922 4813.3188379992625
1420.9365846780584 4899.120327584961
1421.7381481105713 5055.7944812844125
1422.539516032788 5051.50305817045
1423.3406884980232 4910.148730581836
1424.1416655595604 4904.995552123583
1424.942447270665 5025.800586317741
1425.7430336845828 5018.004823814292
1426.5434248545298 4818.579957261558
1427.3436208337116 5082.543061069571
1428.143621675301 5138.827698282669
1428.9434274324558 5175.013948873338
1429.7430381583108 4857.463223237997
1430.5424539059713 5055.678575995348
1431.3416747285337 5452.73093464075
1432.1407006790632 5145.855174253215
1432.9395318106053 5093.971517423362
1433.7381681761835 4950.60293015979
1434.5366098288014 5044.939296458985
1435.3348568214424 5118.967863388843
1436.1329092070573 5017.1284363103005
1436.9307670385879 5023.652609862515
1437.7284303689503 5148.554960699636
1438.5258992510335 5323.087687839483
1439.3231737377118 5217.724030136995
1440.1202538818306 5113.475393718405
1440.9171397362225 5084.308606294019
1441.7138313536925 5150.916227550977
1442.5103287870243 4993.723842990326
1443.3066320889775 4985.7229893904805
1444.1027413122956 5217.044014994805
1444.8986565096966 5027.696015607925
1445.694377733882 5043.872449586919
1446.4899050375207 4899.90040636778
1447.2852384732687 4883.902151406031
1448.0803780937622 5147.292992012837
1448.8753239516063 4871.770825262147
1449.6700760993954 4811.879205757501
1450.464634589689 4844.426436102339
1451.2589994750397 5026.127524716163
1452.0531708079689 4864.965170603936
1452.8471486409799 4760.619238178331
1453.6409330265524 4982.286956819503
1454.4345240171442 4842.518843300657
1455.2279216651987 4787.528881643907
1456.0211260231263 4805.391332052108
1456.8141371433194 4882.397091468324
1457.6069550781594 4965.947633156864
1458.3995798799897 4748.148701274686
1459.1920116011424 4750.004151410592
1459.98425029393 4620.023918599594
1460.7762960106338 4678.101290144229
1461.5681488035225 4705.941692395694
1462.3598087248392 4681.907588562837
1463.1512758268036 4769.578720901027
1463.942550161617 4608.4328685757555
1464.7336317814625 4512.363716392858
1465.524520738496 4639.688085809755
1466.3152170848552 4424.383975132524
1467.1057208726506 4559.403634972886
1467.8960321539817 4427.28700091607
1468.6861509809169 4348.677190110373
1469.4760774055085 4442.476749775488
1470.265811479785 4545.508292249144
1471.055353255755 4271.6099588766865
1471.844702785409 4324.497230232037
1472.6338601207044 4331.676969517133
1473.4228253135934 4876.523006247305
1474.2115984159936 4306.637307271752
1475.0001794798063 4051.298213470015
1475.7885685569145 4335.578288006794
1476.576765699172 4393.382298015689
1477.3647709584238 4275.916339512871
1478.1525843864802 4459.272724322997
1478.9402060351367 4467.023155548883
1479.7276359561693 4331.76803204842
1480.514874201328 4265.759584026814
1481.3019208223468 4187.656191415355
1482.0887758709323 4066.2325071909095
1482.8754393987747 4312.3235419022585
1483.6619114575406 4020.5107408571357
1484.4481920988783 4259.863172082404
1485.2342813744108 4403.6868755967125
1486.0201793357446 4378.974929992894
1486.8058860344572 4212.70073149445
1487.591401522117 4207.6652804488995
1488.3767258502594 4231.199517467568
1489.1618590704056 4273.817285454021
1489.9468012340494 3977.170269749684
1490.7315523926754 4227.2245279417275
1491.5161125977356 4341.871101635712
1492.3004819006637 4216.00354619482
1493.084660352877 4117.890640197619
1493.8686480057622 4223.4912225196795
1494.6524449106964 4430.576166622576
1495.4360511190262 4343.002839275611
1496.219466682087 4193.218151281564
1497.0026916511779 4264.951695930533
1497.7857260775945 4205.820001338245
1498.5685700125996 4241.135512380108
1499.3512235074395 4113.086656610254
1500.133686613337 4094.5289908795835
1500.9159593814966 4197.690178009518
1501.698041863101 4470.217824318312
1502.4799341093094 4018.9779157207136
1503.2616361712662 4047.7446822021593
1504.043148100087 4319.033226702577
1504.8244699468742 4258.370883005475
1505.6056017626997 4126.823610016154
1506.3865435986281 3945.2342439449594
1507.1672955056893 4270.834552828279
1507.9478575348967 4062.1206700405373
1508.7282297372512 4302.766851419628
1509.5084121637192 4161.293325381874
1510.2884048652577 4179.221513746859
1511.0682078927948 4120.388671914419
1511.8478212972423 4067.0833903613398
1512.6272451294917 4035.695223009833
1513.4064794404076 4357.993058815266
1514.1855242808433 4090.733899541619
1514.9643797016215 4102.698427035675
1515.743045753552 4186.386913839072
1516.5215224874191 4228.242965864344
1517.2998099539836 3946.4822450442416
1518.077908203999 4212.882552158562
1518.8558172881785 4114.859485984691
1519.633537257234 4346.313042482617
1520.4110681618404 4203.628295694903
1521.1884100526604 4306.425839661025
1521.9655629803365 4216.928041133581
1522.7425269954856 4371.365786616994
1523.5193021487103 4376.617082588638
1524.2958884905856 4066.887649380858
1525.0722860716687 4061.938248291672
1525.848494942502 4236.688234704137
1526.624515153595 4274.689901882926
1527.4003467554485 4293.040347015577
1528.175989798534 4403.00134693054
1528.9514443333064 4218.973087461002
1529.726710410203 4517.9585089254015
1530.5017880796331 4104.47948171539
1531.276677391992 4192.2052146695405
1532.0513783976457 4337.95022031121
1532.825891146953 4174.517538182831
1533.6002156902414 4335.052132543703
1534.3743520778207 4157.083545795793
1535.1483003599806 4155.151094354031
1535.9220605869923 4166.316588820739
1536.6956328091019 4325.022692967048
1537.4690170765407 4308.871664749696
1538.242213439511 4263.8144905877225
1539.015221948208 4298.3046460474225
1539.78804265279 4086.4107924757313
1540.560675603405 4033.895650893364
1541.3331208501804 4359.980518804946
1542.1053784432224 4429.854400097957
1542.8774484326168 4288.410579526953
1543.649330868422 4194.603211698033
1544.4210258006842 4345.133170737511
1545.1925332794308 4169.525768307221
1545.9638533546604 4093.851082341823
1546.7349860763552 4138.384244429541
1547.5059314944829 4467.364796869156
1548.27668965898 4265.498219981084
1549.0472606197673 4313.491119226593
1549.817644426752 4117.513733142604
1550.5878411298072 4246.452776142021
1551.3578507787988 4179.390899901919
1552.1276734235635 4157.464731667208
1552.8973091139233 4255.781572522226
1553.6667578996767 4356.810969796892
1554.436019830604 4314.776004694512
1555.20509495646 4304.779393999396
1555.9739833269869 4142.86659253171
1556.7426849919011 4115.172507341952
1557.511200000903 4478.992748855462
1558.2795284036674 4323.566669558351
1559.0476702498509 4200.095253969068
1559.8156255890954 4433.549138849522
1560.5833944710157 4447.215894919589
1561.3509769452048 4268.1174644976345
1562.1183730612447 4270.912440989422
1562.8855828686865 4211.108312212854
1563.6526064170703 4589.657917725892
1564.4194437559127 4451.6097636228715
1565.1860949347047 4280.2270265716015
1565.9525600029283 4489.241510400295
1566.7188390100328 4590.509884388778
1567.4849320054564 4312.153614804746
1568.250839038612 4280.964325337559
1569.0165601588997 4286.641057580727
1569.7820954156887 4369.716034058667
1570.5474448583373 4254.840219746309
1571.31260853618 4240.561271822635
1572.0775864985299 4236.5108069134985
1572.8423787946813 4426.920103646018
1573.6069854739108 4240.314906112142
1574.371406585471 4399.975573495422
1575.1356421785986 4406.107258254297
1575.899692302506 4456.022043578142
1576.6635570063845 4291.135647483353
1577.4272363394157 4315.342248661074
1578.190730350747 4383.968923176116
1578.9540390895163 4285.299818545515
1579.7171626048384 4144.607600776726
1580.480100945806 4221.966305574912
1581.2428541614918 4198.652852422436
1582.0054223009538 4215.168066124688
1582.767805413223 4349.351816298225
1583.5300035473156 4194.443263778253
1584.292016752228 4356.741118581242
1585.0538450769309 4246.839117419959
1585.8154885703807 4117.084688326884
1586.5769472815136 4130.629664187427
1587.3382212592405 4290.424954168008
1588.099310552463 4419.030345887886
1588.8602152100484 3904.090877668446
1589.6209352808564 4313.119565155701
1590.3814708137234 4325.167814894429
1591.14182185746 3815.1277798555484
1591.9019884608679 4201.2164636945445
1592.6619706727215 4005.082510359367
1593.4217685417734 4145.318356555671
1594.1813821167616 4325.89401007633
1594.9408114464022 4075.9075831146642
1595.7000565793933 4158.920682869487
1596.459117564409 4228.8355777821125
1597.2179944501113 4105.249925489063
1597.9766872851324 4152.909538392409
1598.735196118092 4152.503000184495
1599.4935209975883 4211.924333063865
1600.2516619721973 4406.223165953766
1601.0096190904787 4055.106072097803
1601.7673924009723 4188.142254774665
1602.524981952196 4084.82179251129
1603.2823877926476 4062.9946761516176
1604.0396099708087 4154.070274528162
1604.7966485351371 4053.2172407392814
1605.5535035340745 4141.318535384466
1606.3101750160404 4284.061963365913
1607.0666630294363 4117.8699566279165
1607.822967622642 3778.409067741576
1608.5790888440224 4088.567661605005
1609.3350267419137 4189.634818283699
1610.0907813646445 3985.574630885366
1610.8463527605145 4230.725404672345
1611.601740977805 4069.5738614544744
1612.356946064785 4149.890365258577
1613.1119680696902 3834.41296446055
1613.8668070407512 3922.7656210365576
1614.6214630261748 4081.614360068311
1615.375936074137 3940.2304689410657
1616.1302262328118 4141.4104580511685
1616.8843335503425 3968.9225900756937
1617.638258074854 3848.5373839094036
1618.391999854457 3862.2409880038226
1619.1455589372363 4136.493982277122
1619.8989353712623 4013.521091921573
1620.65212920458 3721.5400537928567
1621.4051404852235 3902.3525724397236
1622.1579692611976 3987.0842185464994
1622.9106155804966 3694.1260023075906
1623.663079491087 3952.2753952986996
1624.4153610409248 3945.391441060395
1625.1674602779385 4153.472690008728
1625.9193772500403 3816.9944892087965
1626.6711120051277 4116.8203381683425
1627.4226645910676 3967.058581841611
1628.174035055721 3813.8784654386486
1628.9252234469168 3992.9937221985056
1629.676229812474 3953.685365973464
1630.4270542001905 4432.783693083005
1631.1776966578382 4010.171796362225
1631.9281572331747 3863.155851932124
1632.678435973945 4018.070350662828
1633.4285329278573 3937.9821668666264
1634.1784481426203 3814.9837881448557
1634.9281816659113 4054.2960367491214
1635.677733545388 4111.18467827993
1636.4271038286934 3958.656326059287
1637.176292563452 4096.223418242447
1637.9252997972635 4026.4237644285
1638.674125577716 4228.333153029067
1639.4227699523672 4506.912785685746
1640.171232968767 3898.6617740151423
1640.9195146744423 4184.636664789221
1641.6676151168977 4127.038400422303
1642.4155343436178 4156.40741054281
1643.1632724020765 4125.6005756329205
1643.9108293397167 4157.640461363496
1644.658205203974 4044.5608427523316
1645.4054000422566 4587.21226687601
1646.1524139019566 4174.784636260238
1646.8992468304423 4124.002622744787
1647.6458988750728 4166.294240667854
1648.3923700831765 4244.612581430611
1649.1386605020743 4114.609965420906
1649.8847701790564 4322.110022960073
1650.6306991614038 4297.174223788765
1651.3764474963682 4350.81018234234
1652.1220152311944 4039.829557364444
1652.867402413096 4240.236218252024
1653.6126090892776 4149.731170889168
1654.3576353069184 4488.42265690723
1655.1024811131829 4265.413673262969
1655.8471465552066 4202.186518310695
1656.5916316801213 4318.085301995308
1657.3359365350298 4152.034211325211
1658.0800611670165 4122.769300783257
1658.824005623148 4210.484734722913
1659.5677699504722 3994.098399738859
1660.3113541960192 4176.154398436052
1661.054758406799 4138.2922733656505
1661.7979826297997 3990.57595447029
1662.5410269119966 3929.6022365694967
1663.283891300338 4258.689934592038
1664.0265758417645 3911.7155455221014
1664.7690805831826 4059.5708936528
1665.5114055714948 4243.572563944398
1666.2535508535748 4226.629034822552
1666.9955164762814 3793.4370741893217
1667.7373024864555 3938.5108194727136
1668.478908930916 4087.0482438089616
1669.220335856462 3776.7377619399003
1669.9615833098778 3933.4174970614586
1670.7026513379296 3760.2613843660356
1671.44353998736 3995.33834507575
1672.1842493048916 3862.05710348495
1672.9247793372379 3805.0916140910645
1673.6651301310812 3879.6024864712185
1674.4053017330934 3761.14930150111
1675.1452941899242 3796.353569121891
1675.885107548207 3534.9205245819444
1676.6247418545518 3539.296092023632
1677.3641971555535 3636.021619631071
1678.1034734977893 3675.3054693659383
1678.8425709278108 3727.3086153604186
1679.5814894921605 3770.49897638974
1680.320229237359 3532.336171980625
1681.0587902098978 3703.829859189847
1681.7971724562685 3657.2498455603054
1682.5353760229264 3614.129427628182
1683.2734009563173 3599.054336116335
1684.0112473028657 3500.2821147672903
1684.7489151089794 3581.921722829965
1685.4864044210462 3665.930861175703
1686.2237152854377 3418.4341277951476
1686.960847748498 3660.5018803872836
1687.6978018565642 3402.138974038583
1688.434577655944 3410.8947787005077
1689.1711751929379 3418.337943646698
1689.9075945138156 3391.0058444935808
1690.6438356648396 3476.9622959625567
1691.3798986922448 3201.526038224797
1692.1157836422499 3381.129974805619
1692.851490561059 3365.5681212153845
1693.587019494853 3310.350707461062
1694.3223704897991 3187.7038467374578
1695.0575435920364 3110.6790763009535
1695.792538847696 3456.214909662513
1696.527356302886 3221.9130362760907
1697.2619960036936 3163.501833456755
1697.9964579961907 3132.865812413055
1698.730742326432 2907.647610870691
1699.4648490404488 2978.0047545187617
1700.1987781842563 3156.903159999031
1700.9325298038548 3279.641314515435
1701.6661039452174 3302.857168283065
1702.3995006543082 3264.5724284522166
1703.1327199770658 3261.613955778924
1703.865761959416 3022.943998461861
1704.598626647261 3280.4354635206123
1705.3313140864866 2996.1150892473897
1706.0638243229587 2997.9580390708024
1706.7961574025303 3201.123983242399
1707.528313371029 2993.6133656711477
1708.260292274268 2787.8470757819705
1708.9920941580403 2925.236971370191
1709.7237190681226 3165.4149039577896
1710.4551670502697 3063.0542465268823
1711.18643815022 2689.4081496360773
1711.9175324136959 3203.6043535971207
1712.6484498863938 3003.834021076129
1713.379190614005 2821.0421010581913
1714.109754642188 2999.708592323009
1714.8401420165883 2950.8121891241753
1715.570352782839 2800.1711063614657
1716.3003869865497 3088.456842745881
1717.0302446733076 2814.9368670839885
1717.7599258886876 2873.399646469713
1718.4894306782444 3162.4861978257713
1719.2187590875183 2927.7195919464807
1719.9479111620203 2948.899036673162
1720.6768869472544 2922.224746135357
1721.4056864887025 3128.3948009891383
1722.1343098318284 3020.1881364657756
1722.8627570220742 2855.5511640027426
1723.591028104871 2797.9510512820716
1724.3191231256242 2726.641736398851
1725.0470421297232 2815.9723434290445
1725.7747851625427 2893.1928915174576
1726.5023522694337 2955.9745662314444
1727.2297434957363 2893.5656757099287
1727.9569588867635 2696.037342161259
1728.6839984878152 2937.1771467289777
1729.4108623441734 2516.2582523966216
1730.1375505011038 2936.124111283348
1730.8640630038426 2789.546694047717
1731.5903998976264 2678.6652131497617
1732.316561227657 2938.8608279784503
1733.0425470391274 2777.000034152049
1733.7683573772065 2861.520525133473
1734.4939922870508 2701.632988409715
1735.2194518137949 2768.710668221114
1735.9447360025606 2825.892021174775
1736.669844898439 2799.137295717367
1737.3947785465189 2731.6708091072187
1738.1195369918605 2525.6064272888934
1738.8441202795093 2714.1386667292318
1739.5685284544943 2705.4095688310163
1740.292761561821 2873.3039070368677
1741.0168196464838 2894.23068688003
1741.7407027534518 2784.8481770980534
1742.464410927687 2752.027697327393
1743.187944214118 2672.441046437777
1743.9113026576688 2562.179455260023
1744.634486303241 2690.8907360109533
1745.3574951957125 2652.3493704352545
1746.0803293799509 2768.625333052258
1746.8029889008048 2571.7020886563055
1747.5254738031017 2898.8978366978226
1748.2477841316504 2611.5466629949196
1748.969919931249 2660.536992868126
1749.6918812466665 2588.9477754032773
1750.4136681226646 2837.0039172087363
1751.1352806039777 2757.7446938503745
1751.856718735331 2586.073117900646
1752.5779825614281 2705.4044477078696
1753.2990721269507 2864.7530712595626
1754.0199874765676 2822.0849052836897
1754.7407286549314 2543.12180959119
1755.4612957066693 2719.828633876529
1756.1816886763954 2662.363439696479
1756.9019076087097 2683.4347750682277
1757.6219525481865 2787.140959877563
1758.3418235393856 2735.681738193898
1759.061520626854 2793.555761029494
1759.7810438551096 2776.865969950526
1760.5003932686614 2629.9616573123285
1761.2195689119999 2795.8433878697874
1761.938570829594 2617.5331380574385
1762.657399065898 2615.8293330538245
1763.376053665348 2546.7465149021546
1764.0945346723602 2640.4954924873227
1764.812842131334 2763.690759437491
1765.5309760866512 2458.9520199368535
1766.2489365826787 2653.4607902511407
1766.9667236637597 2735.657763564996
1767.684337374223 2437.5460509930053
1768.401777758383 2462.207557786667
1769.1190448605284 2433.999866904089
1769.836138724937 2584.833236107691
1770.5530593958665 2661.5166512469523
1771.2698069175603 2764.576107537224
1771.9863813342326 2634.9292910141494
1772.702782690094 2525.558683060862
1773.4190110293293 2619.696431289348
1774.1350663961111 2736.1110570379606
1774.8509488345844 2532.534077137855
1775.5666583888924 2583.1588615127866
1776.2821951031437 2798.329985593896
1776.9975590214362 2574.756660611066
1777.7127501878585 2864.60812628019
1778.4277686464684 2637.69530293171
1779.1426144413108 2717.5202501315657
1779.8572876164162 2614.7773576038826
1780.571788215797 2601.9299470984033
1781.2861162834415 2581.949086524314
1782.0002718633277 2540.278257357077
1782.7142549994132 2533.1359066353834
1783.4280657356376 2702.3913191692454
1784.141704115922 2491.851112665211
1784.855170184177 2529.4318608715867
1785.5684639842839 2555.5938651102238
1786.2815855601148 2405.4282989968387
1786.9945349555237 2680.6226770971534
1787.707312214343 2442.9556481948975
1788.4199173803918 2738.3105019106915
1789.132350497468 2484.4778288339617
1789.8446116093583 2548.658408918628
1790.556700759822 2566.82690478855
1791.2686179926077 2328.012603560835
1791.9803633514493 2544.8865060632033
1792.6919368800554 2374.8444610957363
1793.4033386221236 2623.1999300719845
1794.1145686213295 2599.0529977559486
1794.8256269213307 2806.3487811176064
1795.536513565774 2705.2772648429395
1796.247228598284 2334.2432482694644
1796.9577720624693 2440.900991281313
1797.6681440019165 2490.234518015137
1798.3783444602013 2546.9935630230775
1799.0883734808776 2566.713489480114
1799.7982311074884 2652.240323371447
1800.5079173835475 2478.8258876399746
1801.2174323525633 2635.077173940913
1801.9267760580187 2436.296954836388
1802.635948543386 2647.8470965078445
1803.3449498521113 2439.5018275904667
1804.0537800276325 2427.7750084506433
1804.7624391133668 2504.616675754308
1805.47092715271 2294.098390159804
1806.1792441890484 2361.9151508053956
1806.8873902657433 2565.106995056232
1807.5953654261448 2448.199975469407
1808.3031697135812 2312.8849663647056
1809.0108031713662 2480.814628105122
1809.71826584279 2424.3032772560814
1810.425557771141 2362.6304424480822
1811.1326789996747 2896.3389525632447
1811.839629571632 2503.712889388477
1812.5464095302468 2378.210720358898
1813.2530189187182 2505.259946788525
1813.959457780249 2454.5809631052953
1814.6657261580076 2690.2132239636953
1815.371824095153 2505.0714882501784
1816.0777516348262 2613.139898043338
1816.78350882015 2286.6359395711615
1817.4890956942272 2221.7131148842595
1818.1945123001533 2380.2519800154905
1818.8997586809928 2496.3026672567976
1819.6048348798067 2344.3752933219785
1820.3097409396287 2399.3002857518686
1821.0144769034796 2591.7501931662478
1821.7190428143622 2425.9441535695
1822.423438715261 2723.236233312064
1823.1276646491478 2311.8495345771344
1823.8317206589727 2548.5593325853306
1824.5356067876692 2518.1177598503214
1825.2393230781581 2289.2670422718293
1825.942869573335 2164.513507511765
1826.646246316086 2336.492637665806
1827.3494533492758 2495.9512875218634
1828.052490715756 2394.773038453324
1828.7553584583547 2415.5994650826515
1829.458056619891 2427.2496096958
1830.1605852431585 2306.820159353513
1830.8629443709433 2220.9356973219137
1831.5651340460063 2352.4724987689674
1832.2671543110919 2502.803971463296
1832.9690052089318 2345.5920634932604
1833.6706867822395 2285.4287926707902
1834.3721990737104 2442.450540390443
1835.0735421260233 2490.1525267308757
1835.774715981841 2469.8392845489425
1836.4757206838058 2662.66444027176
1837.1765562745459 2243.3111754175984
1837.8772227966747 2214.2162167625474
1838.5777202927839 2513.5692098838263
1839.2780488054523 2313.7051315868653
1839.9782083772352 2283.5315284614694
1840.6781990506806 2665.988667823874
1841.378020868313 2431.6086243198024
1842.0776738726418 2381.739383353752
1842.777158106157 2372.2712962052656
1843.4764736113375 2295.1558234932963
1844.1756204306403 2459.148467980478
1844.8745986065078 2472.424157367819
1845.5734081813607 2144.315659127447
1846.2720491976124 2290.8328714466898
1846.970521697649 2234.989248168607
1847.6688257238511 2334.4411181586374
1848.3669613185684 2370.448200958542
1849.0649285241452 2348.5335735287563
1849.7627273829057 2369.905292871431
1850.460357937156 2471.6774917204143
1851.1578202291857 2108.606101771403
1851.8551143012664 2270.6464133745603
1852.5522401956569 2454.613941279168
1853.2491979545957 2510.798228646277
1853.9459876203055 2122.208211318101
1854.6426092349902 2298.935693468042
1855.3390628408451 2280.445191965143
1856.0353484800362 2533.9156007942097
1856.7314661947203 2380.394546954189
1857.4274160270397 2104.0181441809136
1858.123198019115 2340.030090718178
1858.8188122130487 2294.2864396668433
1859.5142586509319 2336.797012519464
1860.209537374838 2284.0107992177777
1860.9046484268183 2243.260853034574
1861.599591848917 2545.3213597730705
1862.294367683151 2297.017454390628
1862.988975971528 2163.9337512338648
1863.6834167560355 2389.0737983804106
1864.3776900786452 2458.6740349255765
1865.0717959813119 2322.7586854263836
1865.7657345059724 2347.9734021448426
1866.4595056945564 2432.613861840547
1867.1531095889586 2517.4670028268447
1867.846546231076 2245.989513788699
1868.5398156627743 2540.0279158545554
1869.2329179259123 2318.1121675524673
1869.9258530623283 2603.9840823422746
1870.618621113843 2218.5865339066418
1871.3112221222636 2275.6757491775156
1872.0036561293764 2238.8071684017405
1872.695923176956 2348.6160123357395
1873.3880233067594 2370.605400480605
1874.0799565605212 2185.7720842274325
1874.7717229799673 2151.33447600872
1875.4633226068036 2499.5201508408336
1876.1547554827175 2378.8931190398207
1876.8460216493859 2164.4758404243075
1877.5371211484617 2200.7083189877153
1878.2280540215852 2501.452478805231
1878.9188203103804 2090.924772878097
1879.6094200564548 2329.1005668023035
1880.299853301396 2319.368004375041
1880.9901200867826 2302.4928614459086
1881.6802204541673 2318.4197303928786
1882.3701544450942 2237.4779891793323
1883.059922101087 2301.32610802596
1883.7495234636517 2470.2266129264303
1884.4389585742792 2259.9902562927778
1885.1282274744517 2299.82163203159
1885.8173302056166 2713.288194287591
1886.506266809225 2393.896935166725
1887.195037326701 2171.422399808205
1887.8836417994517 2264.9645667567906
1888.5720802688702 2474.9259683159403
1889.260352776333 2330.029236045978
1889.9484593632042 2316.6009367211823
1890.63640007082 2324.710489675593
1891.3241749405151 2317.6278804248677
1892.0117840135954 2200.1572921663114
1892.6992273313572 2310.6975639749585
1893.3865049350788 2182.2361849992963
1894.0736168660223 2526.8456832696843
1894.7605631654333 2246.924851475157
1895.4473438745408 2194.4834369596697
1896.133959034556 2378.129179277759
1896.820408686679 2284.8687798756278
1897.506692872088 2528.2048371025176
1898.192811631945 2330.901360329555
1898.8787650073991 2263.5648882888113
1899.5645530395832 2430.4926108034438
1900.2501757696118 2428.5072182368176
1900.9356332385796 2055.3103929979175
1901.620925487574 2444.0971641884194
1902.3060525576602 2254.8471116851147
1902.9910144898859 2472.295958745234
1903.6758113252872 2143.9061008159524
1904.3604431048789 2276.3664185448497
1905.0449098696663 2223.292525886277
1905.7292116606295 2261.3340692869383
1906.4133485187394 2314.974139757263
1907.0973204849488 1930.7971377458289
1907.7811276001976 2264.1500657403494
1908.4647699053967 2260.9993382636953
1909.1482474414588 2038.581417356921
1909.8315602492694 2087.3274098742463
1910.5147083696957 2260.9895125734793
1911.1976918436012 2225.186229945022
1911.880510711815 2214.0582497241635
1912.5631650151681 2229.525804961628
1913.2456547944657 2226.52370125931
1913.927980090495 2257.6079453855746
1914.6101409440362 2234.289566537495
1915.2921373958416 2284.8413433034134
1915.9739694866603 2272.658589941964
1916.655637257214 2377.9562517882214
1917.3371407482136 2302.010879895662
1918.0184800003572 2404.7070679587637
1918.6996550543154 2303.560543507591
1919.3806659507554 2288.4393289190252
1920.0615127303208 2439.3240706041347
1920.7421954336423 2391.5211242476867
1921.4227141013343 2392.822197212056
1922.103068773993 2247.1880585369313
1922.783259492202 2438.1690733104488
1923.4632862965227 2218.9829309909496
1924.1431492275078 2006.1607589445189
1924.8228483256917 2115.629298734138
1925.5023836315922 2261.7287895428176
1926.1817551857057 1957.3203602693425
1926.8609630285227 2477.34302397259
1927.5400072005123 2258.811416948661
1928.218887742125 2121.4268098260923
1928.8976046938005 1858.4036464856295
1929.5761580959588 2264.4562634995686
1930.2545479890086 2284.794561234543
1930.9327744133352 2029.9407460372208
1931.6108374093164 2356.004504741837
1932.2887370173066 2455.821687950432
1932.9664732776473 1903.1977916363412
1933.6440462306673 2271.6747192080634
1934.3214559166754 2077.5520483316623
1934.9987023759659 2235.8713831135806
1935.675785648813 2301.6596622702623
1936.3527057754836 2012.0236271515519
1937.029462796223 2374.8181642494587
1937.70605675126 2194.943011239792
1938.3824876808085 2091.7802748425556
1939.058755625072 2028.4291656686175
1939.7348606242267 2122.274678068054
1940.4108027184448 2127.584758582837
1941.0865819478713 2419.5786920236023
1941.7621983526478 2077.9524909047277
1942.4376519728921 1910.7947744669007
1943.1129428487038 2063.4799021078306
1943.7880710201734 2280.7714472254315
1944.4630365273733 2312.04963131397
1945.1378394103576 1892.1691392007615
1945.8124797091714 1864.7101123350453
1946.4869574638324 1837.1313552969718
1947.161272714353 2047.2575311976848
1947.8354255007234 2296.3513307066723
1948.5094158629272 2156.3519689924806
1949.1832438409183 2224.0709191338537
1949.8569094746435 2310.302009253478
1950.530412804037 2224.17753287084
1951.2037538690092 2244.5907825292497
1951.8769327094578 2116.4716700108647
1952.5499493652678 2113.420278927025
1953.222803876306 2245.4470165259495
1953.895496282421 2163.4745262029496
1954.5680266234522 2095.8748236638803
1955.2403949392155 2289.270822206477
1955.9126012695142 2035.2439891433773
1956.5846456541403 2256.0892661926073
1957.2565281328643 1950.9509759144883
1957.9282487454457 2206.319912320837
1958.5998075316202 2346.7585042236415
1959.27120453112 2241.8886505278406
1959.9424397836501 2074.249337111566
1960.613513328908 2288.613059416589
1961.2844252065697 2200.206030324096
1961.9551754563017 2117.486471792195
1962.6257641177453 2018.8341649585268
1963.29619123054 1994.6556182670024
1963.966456834296 2021.4938763897583
1964.6365609686181 1921.3181195231743
1965.306503673086 2053.3742873161455
1965.976284987275 2043.632714202768
1966.645904950734 2133.3928295055625
1967.315363603002 1934.1808471258107
1967.9846609836077 2013.941453072855
1968.6537971320486 2197.3121852792456
1969.3227720878222 2121.025825437525
1969.9915858904042 2017.9822155237375
1970.660238579252 2247.888002518269
1971.3287301938108 2291.282663076495
1971.997060773514 1848.376683090101
1972.665230357772 2105.805135902993
1973.3332389859843 1870.6666990909016
1974.0010866975335 2164.5687806801525
1974.6687735317864 2118.8372743137556
1975.3362995280932 2189.183394105687
1976.003664725793 2157.2092571825547
1976.6708691642052 2158.346239265626
1977.3379128826364 2159.311718990251
1978.004795920373 2214.399965816642
1978.6715183166925 2066.2323756466303
1979.3380801108524 1917.8892631155231
1980.0044813420973 2084.6041364911284
1980.6707220496555 1839.4528505620576
1981.3368022727373 1987.621438217207
1982.0027220505417 2299.1189210549637
1982.66848142225 1871.9654116189363
1983.3340804270283 2004.9515495516898
1983.999519104027 1988.9111803041717
1984.6647974923835 2339.1295391575354
1985.329915631215 2292.257482004735
1985.99487355963 2123.562245206398
1986.6596713167146 2152.711063669326
1987.3243089415428 2118.361743821023
1987.9887864731754 2226.0439037437936
1988.6531039506553 2082.6361839282176
1989.3172614130071 2346.981973878857
1989.9812588992481 2177.1993209451434
1990.645096448372 2088.087009815449
1991.3087740993633 2103.143850200087
1991.9722918911848 2017.9201264725575
1992.635649862792 2109.0748772398697
1993.2988480531185 2226.844954211521
1993.9618865010852 2319.5083465865173
1994.6247652455968 2033.9645855085266
1995.287484325545 1861.9998559614833
1995.9500437798033 2156.7806605363703
1996.6124436472292 1837.7285890170865
1997.2746839666706 2224.2710205496596
1997.936764776954 1923.0189916360578
1998.598686116895 2062.6323069917316
1999.2604480252903 2267.1569544828226
1999.9220505409212 2041.7501015017049
2000.5834937025593 1853.7670599779617
2001.2447775489582 2000.7741193737093
2001.9059021188514 2191.1768268102587
2002.5668674509616 2050.7691339929834
2003.2276735839987 2038.9379491562663
2003.8883205566508 2129.185700588581
2004.5488084075987 2134.7618256093556
2005.2091371755014 2002.844273279366
2005.8693068990033 1828.4029144787723
2006.5293176167397 2196.463637321059
2007.1891693673224 1967.2977184195024
2007.848862189354 1809.4652050279324
2008.5083961214223 1996.2876325204827
2009.1677712020955 1827.011746797864
2009.8269874699254 1828.1943213746654
2010.4860449634598 1839.9151992699383
2011.1449437212177 1851.7752640473814
2011.8036837817108 2081.183687919236
2012.4622651834325 2228.656453464576
2013.1206879648653 2219.402344162569
2013.7789521644736 2357.167879319299
2014.4370578207036 1872.8535265792227
2015.0950049719922 1888.3342092147072
2015.7527936567585 1997.6832948462275
2016.4104239134067 2096.726525083502
2017.067895780323 2357.8215248334545
2017.725209295886 2418.3285009964125
2018.3823644984514 2478.9451148505095
2019.0393614263648 2162.612917341345
2019.6962001179545 1819.8667417796564
2020.3528806115355 2190.8271639178847
2021.0094029454067 1903.7194225519277
2021.6657671578487 1911.680921568623
2022.321973287133 1853.4233606822218
2022.9780213715148 1894.6865082733032
2023.6339114492293 2001.610932081277
2024.2896435585026 1945.6862035310812
2024.9452177375442 1995.1392628856943
2025.600634024544 2371.44999067997
2026.2558924576842 2031.056740056508
2026.9109930751292 2104.859639169438
2027.565935915025 1821.3670885029592
2028.2207210155066 2226.0604117122734
2028.8753484146964 2063.4894752952596
2029.529818150695 1878.5120683343503
2030.1841302615903 2092.0080002054337
2030.8382847854573 1885.4361898359543
2031.4922817603601 1914.338587244519
2032.1461212243357 2018.6662625573185
2032.7998032154192 1860.914953928065
2033.4533277716218 2012.1361393891998
2034.1066949309443 1854.689711074987
2034.7599047313688 2040.9877664478051
2035.4129572108704 2273.6849530332156
2036.0658524074006 2240.1571379701522
2036.7185903589016 2029.1518956059906
2037.3711711032956 2155.4453179167567
2038.023594678496 1894.5980172042568
2038.675861122394 1994.8306545940645
2039.3279704728757 2261.4279677110935
2039.9799227678031 1781.1703248202725
2040.6317180450278 1839.9642358951237
2041.2833563423865 2039.9939618015742
2041.9348376977014 2047.0485042572368
2042.5861621487784 1900.404134580053
2043.2373297334088 2031.91562265536
2043.8883404893695 2037.4631021683304
2044.5391944544208 2236.0448496152476
2045.1898916663158 2098.29362432083
2045.8404321627804 2239.7987817690123
2046.4908159815368 1840.5758736511827
2047.1410431602853 1817.0742572201402
2047.7911137367173 1833.7733724573513
2048.441027748504 2073.557159213095
2049.090785233302 1827.6951551823713
2049.7403862287592 1925.0422154732155
2050.389830772503 1837.7682098004946
2051.0391189021466 1750.4639402397625
2051.688250655294 2043.6649045822846
2052.337226069527 1877.2997259418044
2052.986045182417 1999.0099281226144
2053.634708031521 1739.2108040670173
2054.283214654375 2128.45875982129
2054.931565088511 1886.597932006983
2055.579759371436 1907.442635148012
2056.2277975406523 1944.0528287447353
2056.8756796336384 2093.6517116664336
2057.5234056878617 1763.3204217819548
2058.1709757407752 1795.8469933789852
2058.8183898298194 2007.1072821489136
2059.465647992416 2051.721937250756
2060.1127502659747 2074.667334453064
2060.759696687888 1804.0554468766707
2061.4064872955405 2222.4457971981237
2062.053122126292 1948.4858865299375
2062.699601217497 1807.186584054746
2063.345924606485 1851.9145052011627
2063.992092330587 2110.047175868519
2064.638104427102 1841.892399774517
2065.283960933324 2179.821964877289
2065.92966188653 2052.393873698318
2066.5752073239855 2080.5427400634526
2067.2205972829397 1762.0202076103935
2067.86583180062 1904.9558618188596
2068.5109109142522 1945.6427775456948
2069.15583466104 1910.690245513001
2069.8006030781708 1875.7071310897322
2070.445216202821 2033.80380823997
2071.089674072153 2262.6997350359516
2071.7339767233116 1889.679126811404
2072.3781241934303 1855.1840648417528
2073.0221165196253 1999.9056917378318
2073.6659537390024 2008.9367994043691
2074.3096358886505 2096.9006068940243
2074.953163005637 1625.9371515809116
2075.596535127028 1799.708266429491
2076.2397522898664 1803.1506042027042
2076.882814531182 2010.513566074018
2077.5257218879924 2046.1942530609654
2078.1684743973 1675.857827157734
2078.8110720960885 1642.4652750613127
2079.453515021336 1836.9575838576566
2080.095803209997 2031.626110551487
2080.7379366990135 2021.2218544875832
2081.37991552532 1889.9739716583633
2082.0217397258275 1984.138006583049
2082.6634093374414 1709.9586281870902
2083.3049243970418 1958.6050360748454
2083.9462849415067 1960.9759654994264
2084.587491007689 1970.427289568192
2085.2285426324324 2071.2512127499253
2085.869439852564 2022.1443692419793
2086.510182704902 2056.861178234432
2087.1507712262483 2091.6461260330802
2087.791205453381 1753.9984773217948
2088.4314854230743 2045.3215705567304
2089.0716111720867 1883.381044308829
2089.7115827371617 1927.9130850749566
2090.351400155023 1845.8867403604393
2090.991063462385 1763.8082856539054
2091.6305726959527 1801.6252949468776
2092.2699278924047 1897.3111128192606
2092.9091290884153 1993.2700201109274
2093.548176320641 1786.3186149409296
2094.187069625721 2083.0007812209315
2094.8258090402887 1762.1401180558325
2095.464394600951 1836.7487182478756
2096.102826344313 1873.9767694795814
2096.741104306955 1770.3348686964025
2097.379228525453 1666.4659766722748
2098.017199036358 1801.3572962020164
2098.6550158762147 2176.9666839835963
2099.2926790815527 2010.620416306968
2099.9301886888825 1989.16453738618
2100.5675447347076 1962.9053687389958
2101.2047472555114 2214.7454451602207
2101.841796287761 2095.0500069171903
2102.47869186792 1914.6112348452402
2103.1154340324265 2107.8680737596646
2103.752022817709 1711.9187384861889
2104.388458260184 1886.3622710149484
2105.024740396251 2188.69360604657
2105.660869262292 1850.0253501956417
2106.296844894685 2196.04677856896
2106.93266732978 1921.2525332536188
2107.5683366039284 1874.4731481606166
2108.2038527534532 1855.188925832385
2108.8392158146726 2217.4603065905258
2109.4744258238843 2035.242294304769
2110.1094828173755 1861.010047571836
2110.744386831422 1902.5685350236502
2111.3791379022787 1944.2665168274793
2112.01373606619 2160.603924815652
2112.648181359389 1822.444365085672
2113.28247381809 2051.2522996114485
2113.916613478492 2002.9339173018932
2114.550600376786 1965.3183061518532
2115.1844345491445 2135.3156086573117
2115.818116031729 1896.7841539836986
2116.451644860679 1854.9261436471468
2117.085021072133 1760.461040192097
2117.718244702204 1810.9349010099704
2118.3513157869984 1856.5247647758922
2118.984234362604 1646.62641125885
2119.617000465092 1862.0535677552466
2120.249614130529 2006.769236315485
2120.8820753949585 1882.1466978512558
2121.5143842944162 1842.0021894830402
2122.14654086492 1803.139349768485
2122.7785451424734 2103.4829324681655
2123.4103971630702 2065.21997347703
2124.042096962681 2027.095248028197
2124.6736445772767 1912.6049915632525
2125.305040042802 1744.8083675315181
2125.936283395191 1912.8689090459861
2126.567374670365 1883.1858918973219
2127.198313904233 1711.9417638448963
2127.8291011326855 1747.338562146858
2128.4597363916037 1782.6017729327432
2129.0902197168507 1827.6759177870586
2129.720551144279 1674.8187648528942
2130.3507307097225 1973.590118569558
2130.980758449008 2189.156900610592
2131.6106343979427 1750.3733835623273
2132.2403585923203 2045.6841285608994
2132.8699310679276 2145.297818854318
2133.499351860526 1847.9293911415946
2134.1286210058715 2087.4182488829238
2134.7577385397053 1782.2872424970806
2135.3867044977487 1937.098636537145
2136.0155189157176 2088.4575069478306
2136.644181829308 2026.0341041173713
2137.2726932742025 1800.7431497559141
2137.901053286074 2074.3277131934874
2138.5292619005777 2076.084039043048
2139.1573191533535 1845.4989891657083
2139.7852250800315 2162.7666420187425
2140.4129797162295 2002.4070205260443
2141.0405830975433 1723.3670595523017
2141.6680352595613 1697.896740446807
2142.2953362378576 1672.3969396259683
2142.9224860679915 1849.6343320427065
2143.549484785508 1879.2653439983478
2144.1763324259373 2029.1967053340547
2144.803029024799 1811.917744079004
2145.429574617594 2024.0576922310133
2146.0559692398165 2053.6578063092907
2146.682212926942 1614.443710283495
2147.308305714432 1870.997281423579
2147.9342476377333 2071.8091552397364
2148.5600387322847 2129.0111128282488
2149.185679033506 2135.3923364177967
2149.8111685768017 1967.353531873851
2150.4365073975678 1819.6542748078548
2151.061695531187 1952.6811531120898
2151.686733013021 2026.098337885518
2152.311619878423 1959.130888251199
2152.9363561627342 2064.8642319459386
2153.560941901278 1756.8461697839386
2154.1853771293663 1917.5003917051504
2154.809661882293 2011.453002990036
2155.433796195348 1885.6335118056224
2156.0577801037944 2019.0239827434063
2156.681613642895 2121.4842915903637
2157.3052968478896 2018.1079804105618
2157.928829754006 1990.541972773321
2158.552212396462 1961.7329164882474
2159.1754448104566 1769.4886381914475
2159.7985270311783 1720.2441228650907
2160.4214590938027 1540.886421264546
2161.0442410334927 1418.1986130625169
2161.6668728853874 1923.0912454606514
2162.289354684628 1811.0680085115087
2162.911686466332 1771.3203515295213
2163.533868265602 2097.952671153396
2164.1559001175337 2255.291336265965
2164.7777820572046 1891.3354257351507
2165.399514119681 1722.7577255211247
2166.021096340013 1616.2591337006477
2166.6425287532384 1769.6718021875633
2167.263811394385 1923.4395543067458
2167.8849442984574 2043.7743985102722
2168.505927500455 1696.452973682004
2169.126761035366 2037.8145493347297
2169.7474449381552 1854.763661244039
2170.367979243778 1781.3131378273156
2170.9883639871823 2068.148770648716
2171.608599203293 1838.7130271532005
2172.2286849270276 2215.764074538657
2172.8486211932886 2313.460505898092
2173.4684080369625 1864.5077990135967
2174.0880454929265 1617.51262139167
2174.7075335960417 1803.135967561689
2175.3268723811543 1995.836716206976
2175.9460618831 1805.0176478173792
2176.565102136701 1836.5129355730162
2177.1839931767627 1821.6632653148033
2177.802735038078 1806.8005138848966
2178.421327755432 1717.3455796942253
2179.0397713635866 1967.5292165761682
2179.658065897298 1973.375731302884
2180.276211391305 1979.13943992661
2180.8942078803357 1772.7602638056323
2181.5120553991 1725.216742629454
2182.129753982299 1794.1828499965384
2182.7473036646206 1817.669958388155
2183.3647044807367 1800.938077797645
2183.9819564653044 1649.6827744089946
2184.599059652968 1968.284089499545
2185.216014078367 2013.8783261624226
2185.832819776113 1626.035862242723
2186.4494767808137 2048.4035736278283
2187.065985127063 2001.8759923496539
2187.682344849436 1719.3219991662233
2188.298555982501 1956.800334454209
2188.9146185608097 2038.4912241504621
2189.530532618901 1909.7401635838062
2190.1462981912937 1772.6318148677233
2190.761915312507 1980.9143513513238
2191.377384017036 1832.8811242923155
2191.9927043393654 1811.4180014775134
2192.6078763139667 1564.8824302603655
2193.2228999753006 1658.6286464196019
2193.837775357808 1752.5933553108473
2194.452502495922 1601.1196468750998
2195.0670814240602 1865.7542532133618
2195.6815121766285 1926.6002205685315
2196.2957947880186 1832.458914814934
2196.9099292926057 1738.1339431225758
2197.523915724758 1887.0876465568824
2198.137754118825 1838.1480862839448
2198.7514445091456 2049.6849652256706
2199.3649869300443 2058.932455827762
2199.9783814158327 2068.288015461755
2200.5916280008096 2245.1082542242066
2201.2047267192593 1862.8790965349126
2201.8176776054515 1965.0735988376905
2202.430480693649 1859.2746650257839
2203.0431360180955 1746.2789107597614
2203.6556436130195 1950.435696816038
2204.268003512645 1650.5711969241977
2204.8802157511727 2033.9757546484348
2205.492280362796 2032.7193890224185
2206.1041973816937 1731.9025811388522
2206.715966842032 1894.284150746768
2207.3275887779655 1642.8362466460117
2207.93906322363 1823.5634429374252
2208.550390213153 2011.5208878556227
2209.1615697806465 1769.795992191151
2209.7726019602105 1532.988258711235
2210.3834867859277 1622.9574847276688
2210.9942242918787 1769.2973137429144
2211.6048145121167 1770.111836274256
2212.2152574806914 1753.8885037302002
2212.825553231638 1737.6731003035031
2213.435701798975 2325.562072110896
2214.045703216707 1774.9620718702452
2214.655557518832 1617.6338214072764
2215.2652647393297 1577.9652236462475
2215.874824912169 1326.991966519587
2216.4842380713 1693.677883396785
2217.09350425067 1717.109924694246
2217.7026234842033 1668.0133957047833
2218.311595805819 1746.411636942607
2218.9204212494133 1824.912415845844
2219.52909984888 2047.138484347448
2220.137631638092 2087.2429233940957
2220.7460166509154 2127.2980673056545
2221.354254921198 1864.0720814592655
2221.9623464827764 1779.699362399128
2222.5702913694713 1807.206225827526
2223.178089615096 1778.6927369362995
2223.7857412534486 1709.8292863776455
2224.39324631831 1766.1522420133017
2225.000604843457 1614.911732274473
2225.607816862641 2047.7757543046446
2226.214882409611 1969.9856032518449
2226.8218015180973 1998.8935602751833
2227.4285742218217 1632.864699058435
2228.0352005544864 2001.3997797730863
2228.6416805497847 1636.1834488345864
2229.248014241399 1809.432553960775
2229.8542016629945 1590.0763711956529
2230.460242848223 1959.2973799131828
2231.0661378307304 2127.298573461834
2231.671886644139 1778.6740029514935
2232.277489322065 1647.5800492923572
2232.8829458981127 1417.486190878447
2233.48825640587 1949.3671367771299
2234.0934208789095 2359.6779092763563
2234.6984393507955 2131.112328158182
2235.3033118550793 2157.3762385158097
2235.9080384252975 1658.6171097308488
2236.5126190949723 1692.0081992733806
2237.1170538976166 1669.9841778528037
2237.721342866729 1403.7679166240887
2238.32548603579 1833.689096337825
2238.9294834382763 1770.7296321793704
2239.533335107646 1797.0538345948742
2240.1370410773434 1951.0191250200273
2240.740601380803 1786.6570564684603
2241.3440160514474 1716.0821363264936
2241.9472851226783 1908.6230093598947
2242.550408627896 1874.150672783998
2243.1533866004793 1839.6518327139863
2243.756219073799 1944.42912579837
2244.3589060812064 1710.0692241677157
2244.961447656049 1608.228164122468
2245.5638438316564 1722.0396102949308
2246.166094641343 1830.1915270472884
2246.7682001184166 1615.756269908996
2247.3701602961664 1790.7928858802297
2247.971975207871 2031.466621913683
2248.5736448867974 1942.8364990558773
2249.175169366197 1941.6710425641031
2249.7765486793123 1851.113552796152
2250.3777828593684 1876.433546139989
2250.9788719395783 1892.725407727047
2251.579815953146 1877.6161491529324
2252.1806149332606 1607.2266269970983
2252.781268913097 1772.4603043568713
2253.381777925817 1601.7117837960589
2253.9821420045737 1870.2839229202655
2254.5823611825035 1995.6129576325761
2255.1824354927303 1660.104874585221
2255.782364968365 1641.0055776092104
2256.38214964251 1621.9309779371183
2256.9817895482483 1588.633612726337
2257.5812847186553 1598.124576642187
2258.180635186791 1607.685186887929
2258.779840985704 1887.23227132301
2259.37890214843 1888.879109455825
2259.97781870799 1773.815450615261
2260.5765906973957 1658.560576155319
2261.175218149645 1726.4433357577905
2261.773701097718 1687.1796804039125
2262.3720395745895 1647.8035363941024
2262.970233613216 1485.7573363157871
2263.568283246548 1711.0037854941547
2264.1661885075137 1609.235332264766
2264.763949429038 1728.647899276149
2265.3615660440246 1795.0921528383465
2265.959038385374 1674.8730702131586
2266.5563664859637 2001.2602672754151
2267.153550378669 1674.3396083939947
2267.7505900963424 1843.1594987417743
2268.3474856718312 1735.1572840662168
2268.9442371379664 1617.9177081923874
2269.5408445275643 1528.0011034141423
2270.1373078734377 1826.06087947483
2270.7336272083758 1746.9357334396732
2271.32980256516 1871.2866850402693
2271.925833976562 1807.3088465276094
2272.5217214753357 2011.6788449983128
2273.117465094223 1812.469100889131
2273.7130648659586 1629.7558550477247
2274.308520823257 1828.3324285135416
2274.903832998827 2047.3170784580693
2275.4990014253563 1742.4537708375817
2276.094026135528 2049.7008053801483
2276.6889071620117 2008.324037574183
2277.2836445374614 1966.7821115711333
2277.878238294519 1850.7859337649086
2278.472688465812 1740.7143649907234
2279.066995083962 1630.4179522781492
2279.6611581815705 1764.9859360218584
2280.255177791232 1967.3004232313785
2280.8490539455233 1712.568360359643
2281.442786677013 1971.3193724093726
2282.0363760182554 2005.8162330737136
2282.6298220017943 1794.4180857249025
2283.223124660155 2122.194316856399
2283.816284025859 1643.7745996501192
2284.4093001314086 1528.4638289459251
2285.002173009292 1412.9165643548151
2285.5949026919952 1779.5624956044194
2286.1874892119777 1510.3094736664993
2286.7799326016993 1703.5325354798977
2287.3722328936 1485.2915811531198
2287.964390120109 1507.2028427387427
2288.556404313642 1779.413417277843
2289.1482755066027 1752.5554801437822
2289.7400037313873 1725.5771056019378
2290.3315890203703 1774.2869691352407
2290.9230314059205 1725.1450578940082
2291.5143309203904 1675.9771193570373
2292.1054875961236 1525.5304367961312
2292.6965014654506 1911.8447899198734
2293.287372560684 1791.668157192344
2293.878100914131 1814.1832997676
2294.468686558086 1836.804940511176
2295.059129524827 1635.2315757213905
2295.649429846617 2055.8137887914904
2296.239587555716 2032.5043006208896
2296.8296026843636 1943.615939783905
2297.419475264791 2224.9974510982506
2298.0092053292137 1878.4938026499137
2298.598792909839 1784.0667055843453
2299.1882380388597 2080.069902230638
2299.777540748455 2168.0640562044987
2300.3667010707904 1986.6692492012207
2300.9557190380256 1901.199230862879
2301.544594682302 1751.347258575946
2302.1333280357503 2091.152024082299
2302.721919130485 1946.0677950448076
2303.3103679986198 1984.2341318861677
2303.898674672242 2162.62548077364
2304.486839183437 1670.0242553764335
2305.0748615642697 1882.7564043371253
2305.6627418468015 1586.2085482563675
2306.2504800630704 1541.126119270641
2306.8380762451143 1743.420255209548
2307.425530424949 1783.473517139834
2308.012842634582 1823.6048188423454
2308.6000129060103 1914.9288577604734
2309.187041271214 1832.6332967723908
2309.773927762164 1750.1805540269663
2310.3606724108213 2094.22605778955
2310.9472752491274 1581.5607307170226
2311.5337363090184 1754.917674577338
2312.120055622414 1886.2226649868153
2312.706233221221 1584.191718712412
2313.2922691373424 1445.2420141553634
2313.8781634026564 1556.9315588790803
2314.463916049037 1668.8700979882856
2315.049527108342 1802.4312274388135
2315.6349966124235 2079.5133738506747
2316.2203245931123 2177.534862263862
2316.8055110822315 1559.5322464242545
2317.3905561115935 1848.7388918860936
2317.9754597129977 1865.6831208749852
2318.560221918229 1882.6800002368589
2319.1448427590603 1864.9456379710693
2319.729322267256 1477.1451839728481
2320.313660474563 1911.0119624791791
2320.8978574127195 1821.1464429388016
2321.481913113452 1731.134004782827
2322.0658276084705 1366.4935927928896
2322.6496009294806 1582.2856362965072
2323.233233108165 2044.650180047127
2323.8167241762058 1990.559980466024
2324.4000741652617 1966.4368149816214
2324.983283106987 2009.3098263249365
2325.5663510330232 2055.4642695241428
2326.1492779749933 1951.624198941806
2326.7320639645204 1604.619465573342
2327.3147090332004 1619.4546531920855
2327.897213212629 1729.5122778617474
2328.4795765343843 1839.5897692612307
2329.0617990300307 1732.5488768013533
2329.643880731124 1761.5436916129124
2330.22582166921 1790.6652840714323
2330.807621875816 1841.127769664446
2331.3892813824623 1646.0345281819893
2331.9708002206517 1645.8415357236674
2332.5521784218818 1757.849586893774
2333.133416017634 1870.1630603959552
2333.7145130393765 1690.0382573818122
2334.295469518571 1783.0091996655997
2334.876285486658 1876.203417456102
2335.456960975076 1622.1633264484362
2336.037496015242 1750.4844237220561
2336.6178906385667 1704.5745519786153
2337.198144876451 1749.399124474466
2337.778258760278 1463.2759674453278
2338.3582323214214 1494.1880862085268
2338.938065591243 1729.7359116258485
2339.517758601087 1965.764280831389
2340.0973113822965 1821.4230503537715
2340.676723966193 1657.73573295282
2341.255996384094 1744.0408559303619
2341.835128667295 1908.2896835216775
2342.4141208470883 1841.02063595376
2342.992972954751 1519.0212641511516
2343.5716850215467 1383.594026025695
2344.1502570787306 1738.1138923332855
2344.7286891575386 1570.375030622471
2345.3069812892045 1940.3145899424758
2345.885133504944 1844.4219111651778
2346.4631458359618 1899.7337583624583
2347.04101831345 1616.9884975523255
2347.6187509685915 1863.8221389036466
2348.196343832553 1622.4642135585682
2348.7737969364935 1426.2018917673915
2349.351110311558 1771.1888677627794
2349.9282839888765 1646.5132496121678
2350.5053179995757 1558.4728855963056
2351.0822123747585 1451.1284137309017
2351.658967145526 1497.8511449650382
2352.2355823429643 1544.73999712481
2352.812057998144 1769.0447259301661
2353.3883941421263 1760.2363968072884
2353.9645908059647 2106.69359790299
2354.540648020693 1814.9650505229615
2355.116565817336 1549.0850122617853
2355.6923442269126 1614.3050446904256
2356.2679832804224 1437.7004856240835
2356.8434830088518 1428.6347699852406
2357.41884344318 1649.570254328916
2357.994064614377 1835.4468483187527
