#exp_cfg={"servo_angle": 0.0, "laser_lim": 100.0, "servo_angle_to": 18.0, "laser_wup": 0.0, "bt_dev": "EnSpectr-25AE3", "laser_wdn_max": 0.0, "frames": 10.0, "servo_used": 0, "servo_calib_use": 0, "laser_wdn_min": 0.0, "servo_pix_from": 90.0, "cooler_tout": 300.0, "servo_angle_from": 0.0, "servo_calib": "[-1.9174921013161362e-09, 3.9322238269163779e-05, -0.27385609119055809, 653.59552119713567]", "laser_autoctl": 0, "servo_pix_to": 3682.0, "laser_pw": 100.0, "cooler_on": 0, "laser_volt": 4.0, "cooler_autoctl": 0, "cooler_curr": 70.0, "cooler_startup": 10.0, "laser_fixed_pw": 0, "gain": 1.3, "offset": 2.53059635486, "servo_calib_degree": 3.0, "laser_curr": 55.0, "shutter": 8200.0, "servo_calib_step": 1.0, "laser_fixed_curr": 0, "exp": 2000.0, "ccd_volt": 4.7, "bt_addr": "00:06:66:62:5A:E3", "servo_delay": 500.0, "laser_autooff": 1}
#proc_cfg={"flat_auto_wnd": 200.0, "flat_auto_fr": 200.0, "flat_auto_shift": 5.0, "yconv": 1, "flatten": 1, "flatten_strength": 100.0, "xfrom": 300.0, "auto_max_frame": 2000.0, "auto_signal": 48000.0, "flat_auto_tol": 0.1, "autoclip": 1, "xrel_range": 0.0, "flat_auto_to": 4000.0, "intensity_adj": 1.0, "xrel": 7852.0, "rmhot": 1, "flat_auto_slit": 4.999999999999997, "auto_ini_exp": 300.0, "auto_off": 0, "xto": 2860.0, "flat_auto_ref": "", "flat_auto_rank": 1, "autobackg": 0, "xrel_adj": 0.0, "auto_black_lvl": 1, "base_wnd": 100.0, "sub_baseline": 0, "xconv": 2, "auto_max_exp": 1000.0, "auto_total_exp": 10000.0, "auto_exp": 0, "rmripple": 0, "black_lvl": 8268.55, "shutter_clip_adj": 0.0, "auto_bckg": 0, "flat_auto_thr": 0.9, "subbackg": 1}
316.8218498245369 22354.305571327342
317.89969571804795 22238.03565539324
318.977263876126 22175.719006971256
320.05455438786703 22024.702915708338
321.1315673423287 22004.305192848165
322.2083028285215 22198.126539826135
323.2847609354267 21961.16345480214
324.3609417519747 21925.61860951414
325.43684536705587 21937.553185897654
326.5124718695279 21803.42903667353
327.58782134820103 21843.25531431292
328.66289389184385 21769.669598702778
329.7376895891921 21594.31043370715
330.8122085289342 21658.283738522332
331.88645079971866 21595.90759442746
332.9604164901575 21578.3211688332
334.03410568881554 21562.77275069853
335.1075184842266 21808.757415938064
336.18065496487543 21359.875589275718
337.2535152192122 21334.036104212602
338.32609933564163 21441.32122028305
339.39840740253203 21327.526771939734
340.4704395082099 21393.488335160535
341.5421957409617 21380.130049175328
342.6136761890357 21388.25100438512
343.6848809406365 21357.035513700903
344.75581008392874 21217.849509961106
345.82646370703696 21254.588666898177
346.8968418980512 21224.133183451628
347.96694474501055 21357.38926328095
349.0367723359268 21214.226797908304
350.106324758759 21165.166862793343
351.1756021014353 21137.005532769435
352.2446044518383 21196.93818167147
353.31333189781435 21254.490430560425
354.38178452716966 21257.016258109594
355.449962427665 21134.56038562836
356.51786568702846 21256.554492730567
357.58549439294256 21219.417780149477
358.6528486330535 21087.67759904416
359.71992849496564 21069.10282133619
360.7867340662433 21045.676474170952
361.8532654344144 20958.848698053618
362.9195226869597 21239.6238138963
363.9855059113288 20941.702295764182
365.05121519492604 20951.406090441913
366.11665062511565 21066.770753908517
367.1818122892273 21115.50374564496
368.2467002745434 21059.60555489264
369.31131466831175 21026.091063811997
370.375655557742 21114.241502322464
371.4397230299983 21198.47786787743
372.5035171722102 21037.28829622234
373.5670380714637 21092.172818246538
374.6302858148101 21262.34754173971
375.6932604892554 21177.8823274845
376.7559621817709 21182.66168153404
377.81839097928605 21066.872875972495
378.8805469686886 21083.836080751546
379.94243023683157 21026.50322604714
381.0040408705263 21066.504440726127
382.0653789565458 20986.639092658785
383.1264445816196 20956.76267962818
384.1872378324406 20949.730414952985
385.2477587956637 20963.007934196303
386.3080075579037 20835.636884244024
387.3679842057336 20697.055656322376
388.4276888256918 20764.803837957756
389.48712150426945 20776.900363484157
390.54628232792857 20821.06315355819
391.6051713830857 20664.612368471564
392.66378875611736 20786.575099267015
393.7221345333637 20640.923757881166
394.7802088011249 20598.178014453555
395.838011645661 20559.170411855546
396.89554315319765 20411.486337150498
397.9528034099112 20484.310395708024
399.00979250194723 20375.39772088881
400.06651051541485 20305.07234884632
401.1229575363741 20348.24254864545
402.17913365085224 20291.967175108985
403.23503894483656 20374.75843280513
404.2906735042761 20264.062129693746
405.3460374150818 20263.275043966638
406.401130763119 20122.061147779386
407.455953634224 20262.19024501251
408.5105061141876 20180.43510356752
409.56478828876243 19943.240199881635
410.6188002436629 20038.12672782085
411.6725420645689 19941.32158726932
412.72601383711117 20101.058705293788
413.77921564689314 20027.78678386382
414.8321475794728 20019.531945694638
415.88480972036814 19811.636025056618
416.93720215506437 20002.57038946147
417.9893249690049 19916.613690924987
419.04117824759123 19755.12104168162
420.09276207619223 19666.788780402792
421.144076540133 19698.089126230567
422.1951217247042 19649.280748041507
423.24589771515275 19790.02974030142
424.2964045966928 19669.970808950406
425.34664245449494 19699.803710251934
426.3966113736933 19600.729482933355
427.4463114393875 19570.22387654383
428.49574273662984 19606.639713056804
429.5449053504417 19515.080975433426
430.5937993658026 19635.676357656866
431.6424248676558 19486.075557119515
432.6907819409007 19493.35474003051
433.73887067040596 19479.745541070326
434.7866911409965 19490.68989682614
435.8342434374608 19323.167784988065
436.88152764455117 19300.876669914385
437.9285438469724 19295.880907325507
438.9752921294057 19295.761069943186
440.02177257648145 19195.961957812637
441.06798527279716 19192.247199313722
442.1139303029122 19302.78499765266
443.1596077513459 19203.631870948688
444.2050177025794 19165.1272016341
445.25016024105753 19232.934090269024
446.2950354511886 19126.307546024174
447.33964341733736 19061.85283944055
448.383984223834 19160.504771242155
449.4280579549686 19179.047185961153
450.471864694995 19058.275480131513
451.5154045281306 19161.577148872515
452.5586775385509 19080.362890687495
453.60168381039693 19134.063324715764
454.64442342776783 19211.481219032557
455.6868964747264 19021.422985496178
456.7291030353008 19034.480771666505
457.77104319347563 19173.59243431628
458.8127170332027 19084.17804205924
459.854124638392 19084.51626153377
460.895266092919 19247.12469837314
461.93614148061897 19138.4751852177
462.97675088529104 19251.88900255398
464.01709439069236 19255.27967077716
465.0571720805492 19190.097098458304
466.0969840385442 19274.108029284922
467.1365303483253 19318.961558188465
468.17581109350067 19317.67911865236
469.2148263576437 19163.387647329753
470.2535762242878 19328.089154807174
471.29206077693016 19375.59401004385
472.33028009902773 19364.694142911972
473.3682342740012 19416.06714428143
474.40592338523857 19401.397837037417
475.4433475160804 19409.441436917878
476.4805067498364 19493.028218520456
477.51740116978 19540.254601604225
478.5540308591426 19688.613281576032
479.59039590112116 19906.653218492895
480.6264963788726 19770.53931148889
481.6623323755193 20001.321354343665
482.6979039741436 20043.884950129177
483.7332112577915 20194.51145388683
484.76825430947247 20340.189253197103
485.80303321215797 20431.824503487194
486.837548048783 20449.426256686966
487.8717989022425 20679.429948070374
488.90578585539697 20665.366869627138
489.9395089910686 20859.047479934372
490.97296839203955 20727.5316150646
492.00616414106116 20377.524298283934
493.0390963208429 20432.381183187852
494.0717650140559 20399.383842788986
495.10417030333883 20393.613844749612
496.1363122712901 20350.14948117589
497.16819100046814 20186.069140076055
498.1998065734024 19998.929273138703
499.2311590725767 20032.945582217722
500.26224858044407 19917.54209572629
501.2930751794156 19886.314079507887
502.3236389518679 19753.475767098724
503.35393998014115 19605.327930584655
504.38397834653733 19652.281259433672
505.4137541333221 19576.35434503689
506.4432674227228 19431.14525162785
507.4725182969323 19467.511033683102
508.5015068381035 19228.873866944774
509.53023312835467 19314.17996164275
510.55869724976765 19303.575009756874
511.58689928438434 19028.270850119032
512.6148393142121 19059.019366354463
513.6425174212218 19097.874072905637
514.6699336873462 19090.329269429323
515.6970881944835 19109.33910716413
516.7239810244901 18955.994918137327
517.7506122591931 19038.939918541757
518.7769819803761 19107.67873428567
519.8030902697901 19086.61516079317
520.8289372091476 19190.714821343267
521.8545228801249 19287.64661490517
522.8798473643619 19102.570581030694
523.9049107434621 19217.93827958589
524.9297130989908 19109.93761968637
525.9542545124805 19016.289097889086
526.9785350654201 19100.831274720374
528.0025548392696 19114.388731803556
529.0263139154504 19031.84498543062
530.0498123753423 19051.540314170226
531.073050300296 18974.757366789803
532.0960277716204 18952.77216550492
533.1187448705896 18912.19424967032
534.1412016784416 18946.17293716278
535.1633982763833 18924.446072656512
536.1853347455726 18755.121837156723
537.2070111671401 18715.694011601037
538.2284276221817 18785.588782188446
539.2495841917516 18601.909048461966
540.2704809568677 18587.994059918317
541.2911179985167 18601.408091851008
542.3114953976419 18491.826592206602
543.3316132351592 18563.818124197707
544.3514715919409 18402.42345069168
545.3710705488247 18455.099568021302
546.3904101866156 18426.92727417145
547.4094905860784 18583.550104668862
548.4283118279418 18438.49772026651
549.4468739929034 18510.164709006604
550.4651771616191 18333.528719087895
551.4832214147063 18340.71766434793
552.501006832761 18457.013425141053
553.5185334963226 18421.909575250604
554.5358014859103 18336.051400137498
555.5528108820035 18316.728315523746
556.5695617650363 18262.844409721925
557.5860542154242 18449.870798290962
558.6022883135283 18349.050691093347
559.6182641396881 18291.91140164126
560.6339817741991 18310.122605250363
561.6494412973225 18369.63449957206
562.6646427892883 18405.597981855368
563.6795863302796 18305.47434686312
564.694272000459 18367.856759818846
565.7086998799423 18377.51842329644
566.7228700488104 18289.369488223067
567.7367825871115 18264.322674610194
568.7504375748576 18367.382030336958
569.7638350920224 18176.446939302066
570.7769752185486 18181.963122172954
571.7898580343353 18090.595942371372
572.802483619258 18068.538144292826
573.8148520531431 18282.717919691808
574.8269634157932 18257.918435142958
575.8388177869692 18216.906509146735
576.8504152463938 18115.94616427429
577.8617558737587 18287.101841621763
578.8728397487175 18211.240921929344
579.883666950891 18250.67147457981
580.8942375598654 18340.930911994623
581.9045516551851 18545.440515702812
582.9146093163617 18618.032835662656
583.924410622878 18457.854894046915
584.9339556541727 18423.26028846991
585.9432444896538 18689.425749874652
586.9522772086875 18500.445186852667
587.9610538906127 18608.758265775534
588.9695746147318 18387.612092466858
589.9778394603054 18526.996805168455
590.985848506567 18601.325813001415
591.9936018327098 18434.816191307007
593.0010995178891 18136.776996797988
594.0083416412344 18269.729396114093
595.0153282818283 18100.803372720693
596.0220595187293 18137.439669803636
597.0285354309508 17990.767327445403
598.0347560974806 17921.01499572368
599.0407215972609 18059.982480458657
600.0464320092051 17902.091488096885
601.0518874121954 17877.595662079926
602.0570878850685 17845.332111489803
603.062033506636 17900.56045688549
604.0667243556636 17957.896512892592
605.0711605108936 17841.214848561125
606.0753420510264 18141.37786145361
607.0792690547278 18063.0336972403
608.082941600629 18041.005941792897
609.0863597673306 17958.89968054697
610.0895236333909 18091.48854134263
611.0924332773357 18198.113522251195
612.0950887776617 18344.85227950951
613.0974902128219 18445.26808973609
614.0996376612384 18627.680819285084
615.1015312013005 18704.725994926877
616.1031709113595 18797.751690156838
617.1045568697336 18784.476270649775
618.1056891547069 19046.12164742139
619.1065678445229 19254.093800039685
620.1071930173985 19528.276197060324
621.1075647515099 19532.99869074914
622.1076831250048 19571.852829489715
623.1075482159849 19793.708002722826
624.1071601025305 19913.584258922907
625.1065188626781 20072.877896141366
626.105624574433 20198.16997627287
627.1044773157682 20251.415501627802
628.1030771646128 20374.26161212776
629.1014241988742 20462.69215001142
630.0995184964158 20710.102215572428
631.0973601350688 20684.65554312871
632.0949491926294 20822.600764397783
633.0922857468631 20689.766267077506
634.089369875499 20664.58206424046
635.0862016562278 20649.76926638718
636.0827811667077 20555.66636360772
637.0791084845641 20598.925389638964
638.0751836873878 20334.37237516753
639.0710068527369 20337.128521340106
640.0665780581294 20181.507814749737
641.0618973810506 19983.042622743462
642.0569648989604 19917.058553126633
643.0517806892676 19737.549184011375
644.0463448293649 19679.018545773284
645.040657396592 19560.32727943813
646.0347184682723 19373.321443678353
647.0285281216875 19281.28737109116
648.0220864340772 19261.16448546367
649.0153934826558 18979.3653149733
650.0084493446047 18952.926994186568
651.0012540970674 18751.226324726937
651.9938078171526 18647.75053678049
652.9861105819346 18494.973538999067
653.9781624684565 18544.776109869083
654.9699635537254 18339.299566100737
655.9615139147136 18357.846441917805
656.9528136283589 18204.284364160852
657.9438627715699 18231.892841530833
658.9346614212154 18040.374855712675
659.925209654135 17839.419210722746
660.9155075471263 17931.76964653956
661.9055551769616 17782.207125531473
662.895352620375 17878.88962408885
663.8848999540678 17644.787224606072
664.8741972547068 17530.02297618979
665.863244598926 17470.57119404375
666.8520420633213 17654.418085929774
667.8405897244611 17441.8451793345
668.8288876588758 17367.518931559902
669.8169359430613 17459.22499669047
670.8047346534822 17394.67426123755
671.7922838665672 17221.216567329546
672.7795836587156 17330.525905874558
673.766634106285 17438.857752366443
674.7534352856092 17334.455446535045
675.7399872729766 17299.018405575644
676.7262901446538 17366.763395524642
677.712343976862 17319.218388143174
678.6981488457986 17467.717120222533
679.6837048276229 17308.75991216557
680.6690119984596 17414.104078784203
681.6540704344043 17350.729307087364
682.6388802115107 17306.46286376607
683.6234414058108 17256.236591849745
684.6077540932874 17226.258156385367
685.591818349907 17286.038875537088
686.575634251587 17159.570400810768
687.5592018742263 17110.04804668819
688.5425212936734 17124.33189200142
689.5255925857564 17128.686884301496
690.5084158262707 17151.810821663315
691.4909910909646 17136.37179579217
692.4733184555644 16994.029986434994
693.4553979957618 17054.848646579492
694.4372297872123 17053.599438132052
695.4188139055404 17006.983441114095
696.4001504263324 16947.009981003972
697.3812394251509 17126.892749218918
698.3620809775111 16997.74311283285
699.3426751589104 17169.00320107058
700.3230220448004 17043.368184237323
701.3031217106054 17248.271151941855
702.2829742317172 17367.206471975598
703.2625796834873 17210.153825792666
704.2419381412474 17197.998535487663
705.22104968028 17276.49589796772
706.1999143758458 17311.44034627257
707.178532303169 17392.845625664173
708.1569035374378 17536.27293817984
709.1350281538107 17652.858065304314
710.1129062274158 17922.86670800708
711.0905378333373 17988.03545452134
712.0679230466376 18247.759229084022
713.0450619423427 18399.66181276084
714.0219545954424 18794.986359277103
714.9986010808989 18876.361245076343
715.9750014736292 19311.32580584546
716.9511558485392 19658.228801041685
717.9270642804786 19854.982317817816
718.9027268442787 20128.45836852397
719.8781436147328 20194.50563315073
720.8533146666014 20178.33755074798
721.828240074612 20166.80450845574
722.8029199134635 20129.915848577144
723.7773542578125 20017.70388172843
724.751543182294 19783.258144531348
725.7254867615029 19697.35586370189
726.6991850700015 19466.20975924788
727.6726381823228 19372.577242280924
728.6458461729599 19296.497224626586
729.6188091163858 19269.406493088172
730.5915270870246 19338.547225013644
731.5640001592856 19275.383667464226
732.536228407529 19607.417821326242
733.5082119060917 19578.148366527257
734.4799507292755 19648.77205014095
735.4514449513481 19702.26857999582
736.4226946465496 19801.276116194822
737.3936998890786 19796.003631055763
738.3644607531078 19636.194273932637
739.3349773127793 19525.34280212062
740.3052496421951 19375.19725176179
741.27527781543 18850.912265584582
742.2450619065221 18621.883479594468
743.2146019894826 18401.60123685237
744.183898138288 18091.01734663849
745.1529504268801 17866.80641338843
746.1217589291682 17660.742601583566
747.0903237190341 17211.653384999856
748.058644870318 17278.547851705887
749.0267224568397 17017.97016017063
749.994556552374 16790.47197037476
750.9621472306771 16738.525621914927
751.9294945654583 16635.922651724708
752.8965986304011 16552.922228811243
753.8634594991636 16485.4266962357
754.8300772453586 16570.655834762405
755.7964519425768 16318.905751098859
756.762583664371 16303.489976499972
757.7284724842611 16335.098018855333
758.6941184757416 16200.866245262205
759.6595217122667 16307.035010627786
760.6246822672638 16228.556837242815
761.5896002141235 16140.463241446923
762.5542756262093 16197.638533332336
763.5187085768503 16209.475731447712
764.4828991393406 16110.292856762864
765.4468473869474 16106.003522650455
766.4105533929032 15995.095119755933
767.3740172304078 16019.056745023077
768.3372389726283 16035.25088306647
769.3002186926988 15893.844235378343
770.2629564637282 15765.018533054379
771.2254523587872 15993.980507554186
772.1877064509154 15809.66007644845
773.1497188131179 15751.621848806826
774.1114895183728 15546.82218892756
775.0730186396268 15735.06053234463
776.0343062497905 15581.72437436962
776.9953524217381 15572.289656912148
777.9561572283274 15531.60621223133
778.9167207423689 15544.596129868101
779.8770430366476 15558.725490230383
780.8371241839159 15589.802147719389
781.7969642568951 15530.34536796675
782.7565633282757 15741.461269500278
783.7159214707099 15529.295918071683
784.6750387568281 15602.455256681133
785.6339152592227 15560.822202795787
786.5925510504512 15494.914007814155
787.5509462030477 15536.62448399577
788.5091007895098 15572.870353701775
789.4670148823006 15569.543690281376
790.4246885538596 15520.224206696605
791.3821218765861 15562.734673100587
792.3393149228505 15536.797281017352
793.2962677649975 15651.780441872139
794.2529804753303 15632.792280596745
795.20945312613 15649.511294719847
796.1656857896378 15511.54906270769
797.1216785380675 15579.465234124364
798.0774314435985 15678.482481148501
799.0329445783846 15845.904552248956
799.9882180145414 15908.686738816967
800.9432518241574 15816.59050152051
801.89804607929 15905.778466188567
802.852600851962 15859.002271465466
803.8069162141637 15931.249468286169
804.760992237856 16035.493327432943
805.714828994971 15999.97770424546
806.6684265574077 16102.26477964303
807.6217849970271 16057.050598615726
808.574904385674 15967.536787319874
809.527784795142 16061.047032494975
810.4804262972102 16064.567363279511
811.4328289636178 15891.00866566558
812.3849928660748 15688.524746662104
813.3369180762638 15850.605397242249
814.2886046658241 15704.084807391391
815.2400527063783 15570.788310117738
816.1912622695108 15587.8023686786
817.1422334267718 15548.812665202666
818.0929662496856 15422.653866339131
819.0434608097457 15286.33098965073
819.9937171784059 15173.277969649698
820.9437354271013 15166.101146576359
821.8935156272255 15188.161367959407
822.8430578501484 15074.959129189234
823.7923621672016 14889.867200392837
824.7414286496896 15031.659455950052
825.6902573688876 14929.366098192895
826.6388483960363 14996.966071810428
827.5872018023492 14909.271051686383
828.5353176590033 14911.79578865405
829.4831960371503 14830.93124472068
830.4308370079016 14836.152900065266
831.3782406423525 14801.481661948172
832.3254070115545 14801.419982958232
833.2723361865319 14670.984789108374
834.2190282382799 14746.230390797655
835.1654832377644 14721.493594123904
836.1117012559116 14765.861848772876
837.0576823636256 14785.850708366905
838.003426631778 14550.153577510131
838.9489341312074 14520.00136589437
839.8942049327197 14701.392357313118
840.8392391070975 14722.305822544487
841.7840367250865 14725.57426100917
842.7285978573982 14607.197439011643
843.672922574724 14763.663598261724
844.6170109477152 14631.587069931862
845.560863046996 14655.728704201789
846.5044789431595 14575.433625207574
847.4478587067697 14709.524450306431
848.3910024083561 14681.157130619968
849.333910118421 14712.989600154568
850.2765819074339 14505.163663850375
851.2190178458332 14712.73985455203
852.161218004032 14764.878003085774
853.1031824524016 14702.880820942233
854.0449112612987 14608.894906687532
854.9864045010327 14772.577566032487
855.9276622418947 14540.19031982866
856.8686845541379 14649.81667183642
857.8094715079915 14504.564232953388
858.7500231736467 14754.79088939609
859.690339621271 14698.994167251647
860.6304209209939 14704.37433365469
861.5702671429244 14471.18525033657
862.5098783571284 14696.485566925738
863.4492546336569 14687.289000210736
864.3883960425155 14610.502266392077
865.3273026536863 14550.955193626685
866.2659745371238 14693.805879967345
867.2044117627465 14859.693423925186
868.1426144004472 14699.61051533848
869.0805825200823 14746.764253385694
870.0183161914847 14902.891129424806
870.9558154844526 14974.901556189947
871.8930804687552 14909.348468560394
872.8301112141307 14924.285715655826
873.7669077902865 15079.221544625854
874.7034702669062 14999.891519709738
875.6397987136315 15061.89976114374
876.5758932000863 15034.93621020875
877.5117537958522 15123.233677930923
878.4473805704911 15133.267801097292
879.3827735935283 15035.69525549703
880.3179329344603 15252.209330002344
881.2528586627541 15156.953968881102
882.1875508478479 15215.192407111263
883.1220095591489 15142.620984923979
884.0562348660296 15037.883889277393
884.9902268378391 15342.861729635522
885.9239855438955 15149.59444491991
886.8575110534839 15047.93978959496
887.7908034358588 15012.163911252856
888.7238627602474 15092.794805847088
889.6566890958475 14987.649930220208
890.5892825118208 14798.859516233628
891.5216430773125 14804.809501504022
892.4537708614189 14754.673228251748
893.3856659332196 14705.96468463091
894.3173283617652 14585.894677604325
895.2487582160684 14609.41574004717
896.179955565116 14553.136556185407
897.110920477864 14367.409346513901
898.0416530232451 14397.263689496063
898.9721532701478 14252.791045564207
899.9024212874428 14417.802931604525
900.8324571439662 14221.987979620128
901.7622609085302 14266.891883626877
902.6918326499072 14138.395277487265
903.6211724368477 14363.800072858072
904.5502803380696 14205.916388530142
905.4791564222614 14304.128461378534
906.4078007580792 14237.633790834117
907.3362134141571 14160.839551010227
908.2643944590909 14255.338960164896
909.1923439614493 14144.139872892052
910.1200619897754 14115.439857684023
911.0475486125779 14341.862096233523
911.9748038983344 14099.00701322759
912.9018279155007 14104.116521500724
913.8286207324982 14002.552157169132
914.7551824177117 14171.123518754543
915.6815130395116 14170.735661400147
916.6076126662283 14040.204798256056
917.533481366163 14093.25702634817
918.4591192075914 14066.14849952752
919.3845262587565 14103.402299539495
920.3097025878706 14023.55460855625
921.2346482631237 13945.277422347694
922.1593633526682 13974.217668307358
923.0838479246304 13936.7065120168
924.0081020471061 14053.767249248547
924.9321257881656 13843.626631201623
925.8559192158464 13880.758152219452
926.7794823981512 13850.037464742316
927.7028154030686 13810.755641641963
928.6259182985414 13754.589592975124
929.5487911524906 13874.47604230887
930.4714340328119 13888.348385804935
931.3938470073608 13685.026817207185
932.3160301439748 13751.419052884641
933.2379835104548 13789.802222250572
934.1597071745709 13919.2633110386
935.0812012040769 13902.161585790067
936.002465666681 13847.91895960487
936.9235006300696 13874.007960126062
937.8443061619055 13842.954231777778
938.7648823298077 13707.66278254448
939.6852292013809 13700.017916634586
940.6053468441951 13983.951089412987
941.5252353257874 13757.56472696376
942.4448947136698 13803.711410403092
943.364325075323 13778.45570196714
944.2835264782043 13845.132172700894
945.2024989897309 13846.516997044595
946.1212426773054 13830.929403844388
947.0397576082851 13836.749594986972
947.9580438500125 14030.375202781186
948.8761014697939 13997.337654799663
949.7939305349064 14115.801242954138
950.7115311125999 13914.128825607244
951.6289032700952 13991.332388146475
952.5460470745875 14129.550435818946
953.4629625932339 14144.214515540205
954.3796498931715 14146.421064994569
955.2961090415029 14093.943567775796
956.2123401053068 14143.10288348849
957.1283431516276 14062.40952135068
958.0441182474842 14006.392553533766
958.9596654598663 14127.892257685095
959.8749848557309 14035.307356556563
960.7900765020167 13935.266633387184
961.7049404656209 13881.627392072362
962.6195768134185 13920.07645529073
963.5339856122537 13875.140722559061
964.4481669289453 13965.804849732614
965.3621208302793 13722.360098684372
966.2758473830145 13772.527232500308
967.1893466538822 13822.82535218677
968.1026187095813 13714.960213957896
969.0156636167867 13658.789901364717
969.9284814421426 13782.897057336819
970.8410722522622 13655.035556496787
971.753436113735 13700.831779845936
972.6655730931161 13499.779889939065
973.5774832569368 13604.240404417618
974.4891666716958 13594.756657047246
975.4006234038698 13506.76424997724
976.3118535198955 13538.405464283554
977.2228570861935 13580.368581544059
978.1336341691494 13583.929196518704
979.0441848351202 13565.141249793412
979.9545091504333 13602.82563369936
980.864607181391 13699.299491893576
981.7744789942699 13680.735164107657
982.6841246553086 13739.586832300765
983.5935442307236 13531.175585184366
984.5027377867027 13746.457687141763
985.4117053894024 13660.473571991937
986.3204471049557 13617.108401240554
987.2289629994648 13740.73009880303
988.1372531390007 13796.606449347219
989.0453175896091 13715.681852792413
989.9531564173067 13744.322039547358
990.860769688079 13559.159343814255
991.7681574678918 13843.006030695386
992.6753198226706 13841.049844920437
993.582256818323 13814.12534364472
994.4889685207218 13782.3306539373
995.3954549957143 14014.919134396525
996.301716309119 13962.597141560687
997.2077525267232 13998.848626819678
998.1135637142943 13964.73409750689
999.0191499375615 14136.8996588279
999.924511262232 13983.679789803307
1000.8296477539861 14065.01528673452
1001.7345594784656 13891.332900686335
1002.6392465012996 13917.721659447096
1003.5437088880753 13837.958500129433
1004.4479467043584 13859.109170755328
1005.3519600156869 13700.520373275864
1006.2557488875718 13776.151306555266
1007.1593133854858 13765.183611332537
1008.0626535748888 13838.412655097287
1008.9657695212009 13613.06181244783
1009.8686612898182 13944.829555668697
1010.7713289461135 13778.171695239576
1011.6737725554212 13712.268748269944
1012.5759921830577 13708.16712819084
1013.4779878943027 13677.682782141297
1014.379759754418 13578.741474949467
1015.2813078286254 13519.755097312207
1016.18263218213 13516.553311788783
1017.0837328801026 13562.11539248086
1017.9846099876886 13649.674752449358
1018.8852635700023 13493.646899146368
1019.7856936921362 13325.83634826075
1020.6859004191447 13519.22458329126
1021.5858838160675 13364.942109696636
1022.4856439479063 13369.42928789361
1023.3851808796389 13352.224146085642
1024.2844946762143 13543.299310855806
1025.183585402554 13324.400805552621
1026.082453123554 13233.244980505722
1026.9810979040776 13281.569655572739
1027.8795198089647 13242.388884244947
1028.777718903024 13288.588416161463
1029.6756952510368 13325.863734431205
1030.5734489177648 13111.880906416165
1031.4709799679313 13416.79397338963
1032.3682884662358 13316.696131613735
1033.2653744773506 13179.205334218947
1034.1622380659192 13187.02571085159
1035.058879296559 13275.453961046514
1035.9552982338591 13246.718340639109
1036.8514949423825 13376.104540860742
1037.7474694866614 13274.927976631021
1038.6432219312028 13317.421110237377
1039.5387523404825 13367.685775083592
1040.4340607789582 13311.784894049273
1041.3291473110476 13321.841609051935
1042.2240120011465 13532.325968701374
1043.1186549136273 13607.603229161867
1044.0130761128294 13343.25933303164
1044.9072756630649 13558.07932031641
1045.8012536286205 13705.522633336488
1046.6950100737577 13514.913195737037
1047.588545062701 13722.880162043986
1048.481858659663 13633.744234434236
1049.3749509288118 13777.774045675222
1050.2678219343034 13614.318901989964
1051.1604717402515 13676.781603106941
1052.0529004107575 13601.480741166379
1052.9451080098825 13695.378670294125
1053.8370946016694 13639.760293033518
1054.7288602501267 13828.998029829765
1055.6204050192446 13723.881440601108
1056.511728972977 13849.891457856967
1057.402832175254 13750.865513690112
1058.2937146899785 13659.893395324747
1059.1843765810263 13548.814121281996
1060.0748179122456 13749.65678337203
1060.9650387474576 13647.132436836371
1061.855039150456 13685.677453112963
1062.7448191850071 13577.554413803275
1063.6343789148505 13581.698872500347
1064.5237184037014 13593.63852781492
1065.412837715241 13553.181062320005
1066.3017369131267 13404.230105738738
1067.190416060992 13514.67506209575
1068.0788752224398 13337.228581198791
1068.9671144610438 13374.225575014236
1069.8551338403558 13396.674693649262
1070.7429334239023 13686.05192622526
1071.6305132751695 13421.015524267143
1072.517873457633 13558.870152210216
1073.4050140347335 13275.295155449881
1074.2919350698776 13408.436652500232
1075.1786366264623 13347.275470913548
1076.0651187678395 13403.485562159538
1076.95138155735 13272.684497926424
1077.8374250582929 13361.860569567705
1078.7232493339507 13293.04403501018
1079.608854447577 13321.935654610843
1080.4942404623907 13271.820507269334
1081.3794074415982 13429.672070875913
1082.2643554483657 13425.870297475694
1083.149084545841 13453.736307098783
1084.033594797138 13281.032466026401
1084.9178862653516 13538.456353576863
1085.8019590135427 13656.48716388603
1086.6858131047484 13471.371393700721
1087.5694486019802 13569.999182395162
1088.4528655682225 13720.300577170157
1089.3360640664287 13776.30307696034
1090.2190441595321 13713.503915442489
1091.1018059104317 13671.233179637982
1091.98434938201 13861.282539051312
1092.866674637111 13882.341653625917
1093.748781738559 13824.792366319194
1094.6306707491512 13679.678029649058
1095.5123417316554 13917.979946325486
1096.3937947488157 13854.630619011014
1097.2750298633455 13831.26907357038
1098.156047137938 13788.320551392773
1099.0368466352556 13874.55382960835
1099.9174284179317 13756.48314601406
1100.7977925485757 13749.867640397828
1101.6779390897755 13592.164672744295
1102.5578681040806 13698.667905528268
1103.4375796540226 13655.169334443495
1104.3170738021054 13504.917350502841
1105.1963506108077 13405.994966520186
1106.0754101425773 13438.125608137232
1106.9542524598382 13355.796985381568
1107.8328776249855 13224.734761050746
1108.7112857003904 13189.554540326531
1109.5894767483987 13208.50101941406
1110.4674508313292 13289.838797231987
1111.3452080114657 13274.623349166339
1112.2227483510815 13183.996127493137
1113.1000719124077 13376.581259603347
1113.9771787576592 13297.168035233179
1114.854068949022 13291.506673511994
1115.7307425486542 13146.492401987194
1116.6071996186893 13414.16331946163
1117.483440221229 13636.738736358253
1118.3594644183577 13486.981615127577
1119.235272272128 13586.990054010152
1120.1108638445658 13755.295369370066
1120.9862391976712 13836.827410859045
1121.8613983934229 13880.19651544411
1122.7363414937627 13958.356708321026
1123.6110685606182 14096.28118660347
1124.485579655884 14145.17870244406
1125.359874841426 14089.396927130187
1126.2339541790916 14134.25584501439
1127.1078177306936 14411.310347952454
1127.9814655580267 14158.182680268443
1128.854897722851 14414.933715442317
1129.7281142869106 14352.199944000264
1130.6011153119125 14494.447230780594
1131.473900859548 14404.131071975242
1132.3464709914697 14425.377797779942
1133.2188257693178 14303.524997794113
1134.0909652546961 14302.023485790492
1134.96288950919 14175.451423914908
1135.8345985943506 14299.541488801628
1136.7060925717087 13971.27431850702
1137.57737150277 14105.131690635182
1138.4484354490069 13927.116501902367
1139.3192844718778 13928.112694818006
1140.1899186327992 13703.148818892641
1141.060337993178 13806.625413424501
1141.930542614382 13575.261239789736
1142.8005325577597 13638.217730956245
1143.670307884635 13332.182797360827
1144.5398686563003 13456.360714698643
1145.409214934025 13301.004583504273
1146.2783467790541 13066.805637647327
1147.1472642526023 13023.667622671204
1148.0159674158622 13024.936709181351
1148.8844563300026 12983.693092975682
1149.7527310561618 12909.456071852946
1150.6207916554504 12811.827023616122
1151.4886381889592 12755.946195899847
1152.3562707177498 12897.447302570015
1153.2236893028585 12780.09717718344
1154.090894005296 12709.001154532738
1154.9578848860474 12795.682387121802
1155.8246620060709 12625.109240821686
1156.6912254262988 12602.543381931358
1157.5575752076438 12514.887358004627
1158.42371141098 12700.080983178814
1159.2896340971656 12579.73100667786
1160.1553433270346 12562.892088104489
1161.0208391613887 12520.224157270148
1161.8861216610057 12552.506243524007
1162.75119088664 12458.398988865085
1163.6160468990201 12422.597367053737
1164.4806897588442 12435.292372785758
1165.3451195267917 12476.330339999684
1166.2093362635114 12492.882350797856
1167.0733400296285 12471.321874397161
1167.9371308857444 12241.24819105546
1168.8007088924278 12371.30874044562
1169.6640741102328 12449.809749230328
1170.5272265996773 12402.954999206766
1171.390166421259 12129.722424690128
1172.252893635452 12458.165950259612
1173.1154083026995 12514.08835730381
1173.977710483421 12487.202040256965
1174.8398002380145 12227.160568599249
1175.7016776268483 12523.4145921858
1176.563342710264 12429.871065034764
1177.4247955485826 12450.141150049794
1178.2860362020947 12430.567852477736
1179.147064731069 12469.31378105113
1180.0078811957483 12646.31931122576
1180.8684856563486 12516.200914372192
1181.7288781730604 12553.950435440662
1182.589058806052 12724.45850941994
1183.4490276154593 12722.795569973194
1184.3087846614017 12701.13300365692
1185.1683300039676 12622.702655837293
1186.027663703222 12899.919135300082
1186.8867858192025 12811.755024696076
1187.7456964119228 12853.659749929426
1188.6043955413716 12837.963194702463
1189.4628832675116 13058.873610122992
1190.3211596502842 12943.195646025171
1191.179224749596 13108.81137375522
1192.0370786253388 12986.03733577155
1192.8947213373758 13198.264848201507
1193.7521529455407 13300.833685666872
1194.6093735096438 13180.196846272112
1195.466383089477 13187.382535582385
1196.3231817447977 13271.5032812136
1197.1797695353398 13399.06298205481
1198.0361465208189 13307.068444001352
1198.8923127609214 13182.204632113546
1199.7482683153048 13286.086636426928
1200.6040132436028 13372.375346252931
1201.459547605431 13330.550244657561
1202.3148714603722 13031.299346833524
1203.1699848679855 13225.661874142965
1204.0248878878065 13203.186366357844
1204.8795805793507 13125.441361485548
1205.7340630020935 13078.900251139208
1206.5883352155033 13263.488227024834
1207.4423972790064 13051.102206234185
1208.2962492520237 12984.127058805741
1209.1498911939307 12979.138239114573
1210.0033231640937 13072.75027511315
1210.8565452218427 12913.797327950733
1211.7095574264913 12881.809746743593
1212.5623598373222 12789.54402855313
1213.4149525135963 12829.840286735063
1214.2673355145507 12659.445610819359
1215.1195088993936 12654.268442553357
1215.9714727273113 12637.093043923138
1216.8232270574663 12836.968744213385
1217.6747719489904 12553.326676683093
1218.5261074609934 12581.181899480254
1219.3772336525653 12534.127763328786
1220.2281505827668 12694.036170045072
1221.0788583106296 12683.936390020282
1221.9293568951707 12573.81075244381
1222.7796463953746 12435.156763783398
1223.629726870202 12435.54184727482
1224.4795983785934 12504.249767720885
1225.3292609794553 12450.980485458795
1226.1787147316809 12357.044610014547
1227.0279596941327 12530.110370876544
1227.8769959256424 12378.95524082565
1228.7258234850306 12500.147977804254
1229.5744424310833 12237.150568795112
1230.422852822563 12548.343142415773
1231.2710547182105 12554.767286307915
1232.119048176739 12456.803968855824
1232.9668332568417 12322.749987566074
1233.8144100171812 12514.564941109791
1234.6617785163999 12509.48597924869
1235.508938813111 12301.129131690202
1236.3558909659114 12387.41424919706
1237.2026350333617 12588.9003017831
1238.049171074008 12584.79391648761
1238.8954991463652 12343.60823470235
1239.741619308932 12159.770467595621
1240.587531620169 12415.002336764976
1241.4332361385277 12305.27150471626
1242.2787329224248 12292.659140149819
1243.1240220302534 12199.819362320446
1243.9691035203869 12317.870996498159
1244.813977451171 12479.675825672737
1245.6586438809263 12419.783237757274
1246.5031028679496 12064.26479029405
1247.3473544705157 12337.071721265002
1248.1913987468706 12331.371803682021
1249.0352357552383 12262.35993526548
1249.8788655538228 12345.714446580536
1250.7222882007918 12476.277742919825
1251.565503754302 12538.51396723973
1252.4085122724755 12496.36327464072
1253.2513138134182 12432.179110117788
1254.0939084352049 12568.428188749078
1254.9362961958905 12575.436675807658
1255.7784771535007 12433.164767340393
1256.6204513660432 12538.91088831859
1257.4622188915 12810.877043798599
1258.3037797878242 12600.942189249316
1259.1451341129468 12562.181627222793
1259.9862819247755 12635.86988918194
1260.8272232811978 12659.777303356994
1261.6679582400666 12756.756408527302
1262.5084868592203 12583.850526390717
1263.34880919647 12641.059720455103
1264.1889253095997 12749.436559319682
1265.0288352563712 12806.392088721184
1265.8685390945266 12776.322852832946
1266.7080368817751 12738.201091170142
1267.5473286758115 12882.099917879317
1268.386414534294 12821.88657742848
1269.2252945148703 12558.004287033753
1270.0639686751547 12652.813271160396
1270.9024370727402 12703.707560702984
1271.7406997651997 12660.746829813777
1272.5787568100714 12690.97749534353
1273.4166082648808 12701.669860247192
1274.2542541871244 12849.333859242593
1275.091694634275 12783.891592440083
1275.9289296637817 12671.716128542535
1276.7659593330663 12541.4903562797
1277.6027836995308 12735.52810231732
1278.4394028205552 12689.254794814915
1279.2758167534867 12698.583116324335
1280.112025555658 12629.073421975156
1280.9480292843746 12753.852157293937
1281.7838279969128 12633.928596337908
1282.6194217505326 12530.291297505346
1283.4548106024686 12344.223018287377
1284.289994609926 12627.914037566925
1285.1249738300921 12714.339940515196
1285.959748320127 12648.382405611272
1286.7943181371702 12643.087126760549
1287.6286833383328 12672.678089194975
1288.4628439807038 12635.843620415453
1289.2968001213521 12647.421551016678
1290.1305518173194 12711.860460754073
1290.9640991256183 12787.033465378156
1291.7974421032523 12706.883429540838
1292.630580807183 12761.147620490328
1293.463515294361 12715.913879248164
1294.29624562171 12859.708039143601
1295.12877184613 12844.44614164442
1295.961094024493 12760.50764828011
1296.79321221365 12934.302907774903
1297.6251264704333 13146.004880951241
1298.4568368516466 13213.528586906916
1299.2883434140658 13094.941153227233
1300.1196462144526 12937.490610383142
1300.9507453095375 13149.65765002527
1301.7816407560313 13072.653869958038
1302.6123326106172 13163.17585491857
1303.4428209299622 12918.885726790133
1304.2731057707024 13321.87723498012
1305.1031871894502 13082.656828744226
1305.933065242798 13191.300472681218
1306.7627399873181 13342.406736786928
1307.5922114795467 13404.529808418223
1308.4214797760123 13441.956994559898
1309.2505449332057 13289.705608779152
1310.0794070076026 13357.99339975422
1310.9080660556538 13499.790309806343
1311.736522133786 13299.402141044295
1312.5647752983987 13305.936056969105
1313.3928256058734 13302.151860135196
1314.2206731125661 13594.673385760248
1315.048317874809 13520.831433728134
1315.8757599489109 13467.598606996205
1316.7029993911547 13626.184323584439
1317.5300362578055 13804.797848046248
1318.356870605101 13545.845736253206
1319.183502489257 13477.824046238073
1320.0099319664623 13593.62484046842
1320.836159092889 13585.940010612141
1321.66218392468 13738.279642574538
1322.4880065179532 13578.862082756017
1323.3136269288134 13532.240259106238
1324.1390452133292 13799.897963524065
1324.9642614275563 13732.013746649647
1325.7892756275214 13776.512026209908
1326.6140878692295 13448.386294443535
1327.4386982086617 13819.093536583372
1328.2631067017755 13594.167128061637
1329.0873134045069 13621.127697881162
1329.911318372764 13406.049559582952
1330.735121662441 13359.330015056392
1331.558723329399 13255.098725131238
1332.3821234294774 13325.954653382758
1333.2053220185007 13143.337304781633
1334.0283191522612 13136.300612492836
1334.851114886529 13101.065817580271
1335.6737092770582 13015.115777641317
1336.4961023795695 12920.590078523808
1337.3182942497697 12739.412160422775
1338.1402849433325 12840.345444493061
1338.962074515921 12601.399137495613
1339.7836630231632 12445.362972312638
1340.6050505206676 12814.875077328488
1341.426237064028 12625.556897485823
1342.2472227088037 12731.978586287707
1343.0680075105338 12189.786498522617
1343.888591524741 12287.733929253014
1344.7089748069138 12440.16370464817
1345.5291574125276 12092.776346005212
1346.3491393970307 12051.29290620024
1347.168920815846 12080.278943529109
1347.9885017243778 12103.496363652404
1348.8078821780036 11998.752015378186
1349.6270622320844 11905.635478818856
1350.4460419419447 11923.623825237435
1351.2648213629054 11933.187377379536
1352.0834005502438 11802.519383013754
1352.90177955923 11825.136002548254
1353.7199584451064 12130.380674837415
1354.5379372630887 11793.798355749948
1355.355716068374 11728.394257837324
1356.1732949161305 11624.563386579168
1356.9906738615155 11658.157298784552
1357.8078529596478 11651.327673646723
1358.6248322656375 11689.996994408357
1359.441611834567 11522.145898857245
1360.2581917214866 11798.94386303727
1361.0745719814367 11407.570381745278
1361.890752669433 11570.578024966828
1362.7067338404577 11560.25497274469
1363.5225155494845 11567.574565397565
1364.3380978514506 11663.821083180643
1365.1534808012839 11470.679003737258
1365.9686644538815 11395.410090914524
1366.783648864117 11657.082074332598
1367.5984340868417 11511.253317208331
1368.413020176893 11541.474017912467
1369.2274071890715 11300.047235872522
1370.0415951781652 11445.608059685022
1370.8555841989346 11310.188761658286
1371.6693743061223 11311.362359800454
1372.48296555444 11204.106707682029
1373.2963579985844 11403.749612486143
1374.1095516932255 11183.118530338501
1374.9225466930166 11155.20915961452
1375.7353430525782 11067.087735114872
1376.5479408265164 11117.747457046413
1377.36034006941 11082.058080391467
1378.1725408358216 11212.598115058583
1378.9845431802805 11003.28445957143
1379.796347157304 11151.633013398732
1380.6079528213813 11110.112702565892
1381.4193602269788 11005.850835763613
1382.230569428546 10905.720111860559
1383.0415804805016 11213.559998612782
1383.852393437246 11045.234468976972
1384.6630083531563 11135.507434682844
1385.4734252825892 10952.895438791307
1386.2836442798798 11069.35442998373
1387.0936653993322 10940.508070152942
1387.9034886952395 10908.712526893378
1388.713114221864 10955.770969899966
1389.5225420334482 11011.302658560537
1390.331772184214 10823.095279403522
1391.1408047283585 10968.823425263416
1391.9496397200564 10851.268848062882
1392.758277213461 11079.357219615375
1393.5667172627054 10963.567748393787
1394.3749599218918 10748.103379145448
1395.1830052451114 10652.2101752912
1395.9908532864265 10923.069020871324
1396.7985040998774 11013.971731864503
1397.6059577394808 10690.106873471377
1398.4132142592352 10711.266441697338
1399.2202737131156 10653.117418997266
1400.027136155073 10637.085884735834
1400.8338016390353 10784.811208344325
1401.6402702189134 10505.437516424137
1402.446541948586 10713.379176095983
1403.2526168819204 10458.102782347783
1404.058495072757 10595.172187737178
1404.8641765749107 10435.720867496344
1405.6696614421799 10553.443520104516
1406.4749497283356 10786.395395517067
1407.280041487129 10350.82374389434
1408.084936772295 10190.362746332388
1408.8896356375335 10392.763433195374
1409.6941381365323 10436.176341279112
1410.498444322955 10229.454707588817
1411.3025542504402 10235.151036729232
1412.106467972606 10365.62298808181
1412.9101855430508 10423.57761771058
1413.7137070153458 10160.281777643744
1414.5170324430437 9996.617004120546
1415.320161879672 10194.878051771806
1416.1230953787435 10421.894348895763
1416.925832993742 10089.97794161383
1417.7283747781275 9976.278378163073
1418.5307207853439 10243.488221879448
1419.3328710688093 10164.721171632928
1420.134825681922 9992.960520654482
1420.9365846780584 10036.319876127498
1421.7381481105713 10328.816013000851
1422.539516032788 10231.607909038397
1423.3406884980232 10017.410425248872
1424.1416655595604 10150.898029479362
1424.942447270665 10259.73751355153
1425.7430336845828 10268.918009784327
1426.5434248545298 10143.355829377704
1427.3436208337116 10239.758121129003
1428.143621675301 10465.992554368535
1428.9434274324558 10534.641340755265
1429.7430381583108 10344.937503467425
1430.5424539059713 10314.88195641388
1431.3416747285337 10961.423874465227
1432.1407006790632 10623.92442062979
1432.9395318106053 10557.681320225462
1433.7381681761835 10534.596525415436
1434.5366098288014 10560.282151809557
1435.3348568214424 10579.458565860965
1436.1329092070573 10500.510777261305
1436.9307670385879 10584.754963702033
1437.7284303689503 10880.961285395295
1438.5258992510335 10733.273374702656
1439.3231737377118 10666.812383457844
1440.1202538818306 10633.568408541676
1440.9171397362225 10757.703205242255
1441.7138313536925 10678.02321604743
1442.5103287870243 10548.786077611792
1443.3066320889775 10418.128830809537
1444.1027413122956 10817.846646118885
1444.8986565096966 10526.521503415257
1445.694377733882 10408.192728146822
1446.4899050375207 10230.6284128765
1447.2852384732687 10178.385906330042
1448.0803780937622 10274.252904768131
1448.8753239516063 10187.029986023219
1449.6700760993954 9971.542726059677
1450.464634589689 10009.276218232602
1451.2589994750397 10220.249031343412
1452.0531708079689 9912.462814634182
1452.8471486409799 9902.959242439274
1453.6409330265524 10054.988881763102
1454.4345240171442 9897.43116054362
1455.2279216651987 9856.984809822083
1456.0211260231263 9780.080621265068
1456.8141371433194 9935.372417318764
1457.6069550781594 9898.051533230404
1458.3995798799897 9613.199163965777
1459.1920116011424 9538.654457667793
1459.98425029393 9647.509912165277
1460.7762960106338 9496.035525698611
1461.5681488035225 9592.531958468393
1462.3598087248392 9406.649230923476
1463.1512758268036 9676.957668461298
1463.942550161617 9573.318504445308
1464.7336317814625 9418.160794375037
1465.524520738496 9303.65049721198
1466.3152170848552 9200.680520897738
1467.1057208726506 9399.074938429918
1467.8960321539817 9189.991837054788
1468.6861509809169 9062.81986226004
1469.4760774055085 9226.037210758219
1470.265811479785 9312.195083723067
1471.055353255755 8957.892036230991
1471.844702785409 8988.217775026398
1472.6338601207044 9145.25727497947
1473.4228253135934 9539.204202878425
1474.2115984159936 8984.690351964671
1475.0001794798063 8746.237208755903
1475.7885685569145 9006.592257400003
1476.576765699172 8878.298947431907
1477.3647709584238 8824.171851307558
1478.1525843864802 8839.949707107637
1478.9402060351367 8931.448620849329
1479.7276359561693 8829.652231546013
1480.514874201328 8623.358274919414
1481.3019208223468 8569.365204071988
1482.0887758709323 8617.900710277872
1482.8754393987747 8666.377191266802
1483.6619114575406 8427.570845134494
1484.4481920988783 8521.852859457804
1485.2342813744108 8724.2463965575
1486.0201793357446 8689.584347150147
1486.8058860344572 8541.339622423193
1487.591401522117 8503.465411679525
1488.3767258502594 8492.427207612409
1489.1618590704056 8470.18475782838
1489.9468012340494 8350.50585244795
1490.7315523926754 8459.55984249275
1491.5161125977356 8640.653307347518
1492.3004819006637 8353.757721195729
1493.084660352877 8369.007783844716
1493.8686480057622 8441.970659584551
1494.6524449106964 8610.95715248799
1495.4360511190262 8741.870893409181
1496.219466682087 8457.861930707766
1497.0026916511779 8429.864877003074
1497.7857260775945 8431.726486059491
1498.5685700125996 8388.100221757084
1499.3512235074395 8433.049655005456
1500.133686613337 8294.231880232803
1500.9159593814966 8470.052323518734
1501.698041863101 8721.89995368327
1502.4799341093094 8282.557714989658
1503.2616361712662 8289.824048576134
1504.043148100087 8482.756420065354
1504.8244699468742 8493.638647806856
1505.6056017626997 8332.879855048473
1506.3865435986281 8291.012216170477
1507.1672955056893 8523.324819283695
1507.9478575348967 8156.004746277965
1508.7282297372512 8396.710775454343
1509.5084121637192 8361.072753639683
1510.2884048652577 8355.773862444026
1511.0682078927948 8269.63305244311
1511.8478212972423 8315.945722031527
1512.6272451294917 8236.286168900262
1513.4064794404076 8333.642913513268
1514.1855242808433 8282.105928523872
1514.9643797016215 8289.659511200858
1515.743045753552 8362.795265632514
1516.5215224874191 8532.296709307902
1517.2998099539836 8216.566237291874
1518.077908203999 8210.520209876708
1518.8558172881785 8369.638915891615
1519.633537257234 8524.674085020484
1520.4110681618404 8230.027842529607
1521.1884100526604 8457.473099631177
1521.9655629803365 8357.814824159712
1522.7425269954856 8473.93884331285
1523.5193021487103 8397.91184697088
1524.2958884905856 8262.798358863532
1525.0722860716687 8288.556271226764
1525.848494942502 8347.346587430146
1526.624515153595 8326.86272436824
1527.4003467554485 8402.731405845418
1528.175989798534 8338.463547503463
1528.9514443333064 8442.618423408407
1529.726710410203 8423.05582826825
1530.5017880796331 8266.00586720389
1531.276677391992 8327.44229805424
1532.0513783976457 8482.565450767932
1532.825891146953 8325.945920021073
1533.6002156902414 8568.56488554508
1534.3743520778207 8520.934518442777
1535.1483003599806 8421.348909174822
1535.9220605869923 8274.843260805692
1536.6956328091019 8452.30275634066
1537.4690170765407 8358.527415159608
1538.242213439511 8408.955841792627
1539.015221948208 8373.593975168253
1539.78804265279 8298.017482692792
1540.560675603405 8255.247223121905
1541.3331208501804 8490.79377683223
1542.1053784432224 8518.9395461705
1542.8774484326168 8335.486796978566
1543.649330868422 8345.318145032184
1544.4210258006842 8505.380329078082
1545.1925332794308 8260.775949531562
1545.9638533546604 8333.611714081822
1546.7349860763552 8193.997482971905
1547.5059314944829 8562.197456673612
1548.27668965898 8377.30788932402
1549.0472606197673 8478.787308462295
1549.817644426752 8257.989092595168
1550.5878411298072 8466.899271228325
1551.3578507787988 8320.177871872433
1552.1276734235635 8296.425667375563
1552.8973091139233 8336.844746801507
1553.6667578996767 8473.17863715285
1554.436019830604 8352.288694517
1555.20509495646 8439.411121047098
1555.9739833269869 8250.71044163172
1556.7426849919011 8324.9798573068
1557.511200000903 8611.43957826383
1558.2795284036674 8434.024934651552
1559.0476702498509 8328.938830120589
1559.8156255890954 8463.447424979124
1560.5833944710157 8479.09478287293
1561.3509769452048 8375.288486008165
1562.1183730612447 8409.98863348356
1562.8855828686865 8471.582596864266
1563.6526064170703 8567.064259460243
1564.4194437559127 8516.005229334336
1565.1860949347047 8408.310659251449
1565.9525600029283 8573.191449160493
1566.7188390100328 8447.229669080769
1567.4849320054564 8532.504160124008
1568.250839038612 8405.963052422345
1569.0165601588997 8378.700342666538
1569.7820954156887 8514.525301584623
1570.5474448583373 8332.135737336619
1571.31260853618 8248.811726974795
1572.0775864985299 8317.092462808258
1572.8423787946813 8323.793844681955
1573.6069854739108 8359.898141595826
1574.371406585471 8374.782409706899
1575.1356421785986 8529.271540496138
1575.899692302506 8321.267414091319
1576.6635570063845 8331.68326012819
1577.4272363394157 8251.544387602413
1578.190730350747 8547.82895068252
1578.9540390895163 8306.037502244957
1579.7171626048384 8095.832217643641
1580.480100945806 8093.413472271442
1581.2428541614918 8278.42104959123
1582.0054223009538 8261.100254177658
1582.767805413223 8211.988242634936
1583.5300035473156 8138.354666063754
1584.292016752228 8278.395583215455
1585.0538450769309 8149.271131146901
1585.8154885703807 8167.784417617246
1586.5769472815136 7969.506300632813
1587.3382212592405 8219.445967903004
1588.099310552463 8336.738205007476
1588.8602152100484 7789.540015941659
1589.6209352808564 8031.018267053722
1590.3814708137234 8136.861139703683
1591.14182185746 7776.621767627544
1591.9019884608679 8023.828626099172
1592.6619706727215 7847.272564817907
1593.4217685417734 8041.994405276686
1594.1813821167616 8218.406513858296
1594.9408114464022 7929.910265179007
1595.7000565793933 7896.469963514935
1596.459117564409 8055.194197073618
1597.2179944501113 7801.824214296864
1597.9766872851324 7892.2464343043075
1598.735196118092 7731.001195742926
1599.4935209975883 7947.423767178659
1600.2516619721973 8054.614264598841
1601.0096190904787 7881.749332736559
1601.7673924009723 7849.513179742542
1602.524981952196 7859.043832851993
1603.2823877926476 7766.57686756779
1604.0396099708087 7782.042416212823
1604.7966485351371 7742.476195134598
1605.5535035340745 7819.779227899073
1606.3101750160404 7924.881519621515
1607.0666630294363 7740.260307602466
1607.822967622642 7547.19772992012
1608.5790888440224 7836.096836226515
1609.3350267419137 7781.342791367193
1610.0907813646445 7627.769025256316
1610.8463527605145 7665.623838925296
1611.601740977805 7780.1135083707895
1612.356946064785 7692.898169002941
1613.1119680696902 7455.569849167994
1613.8668070407512 7509.5989700239925
1614.6214630261748 7596.628435948907
1615.375936074137 7558.375478300067
1616.1302262328118 7552.190278287737
1616.8843335503425 7471.986015992086
1617.638258074854 7596.143757399014
1618.391999854457 7387.256010781336
1619.1455589372363 7552.308738483001
1619.8989353712623 7537.171968600831
1620.65212920458 7282.901212466767
1621.4051404852235 7315.045360096284
1622.1579692611976 7311.965031790329
1622.9106155804966 7203.5094123950785
1623.663079491087 7330.814204173522
1624.4153610409248 7366.394544922371
1625.1674602779385 7346.470580600045
1625.9193772500403 7099.731628112495
1626.6711120051277 7372.121470907279
1627.4226645910676 7218.842893075237
1628.174035055721 7151.174303497782
1628.9252234469168 7239.319661410955
1629.676229812474 7135.220459753805
1630.4270542001905 7625.4512662647785
1631.1776966578382 7243.977337498225
1631.9281572331747 7200.851934310663
1632.678435973945 7210.500930611546
1633.4285329278573 7085.104276444185
1634.1784481426203 7109.5012092638935
1634.9281816659113 7157.777710539136
1635.677733545388 7375.859044012167
1636.4271038286934 7173.89770717193
1637.176292563452 7315.2921443940695
1637.9252997972635 7170.87824546591
1638.674125577716 7321.498978724341
1639.4227699523672 7459.214498075872
1640.171232968767 7080.788421868632
1640.9195146744423 7257.491186470448
1641.6676151168977 7314.936497878097
1642.4155343436178 7339.094048561977
1643.1632724020765 7324.113669046751
1643.9108293397167 7224.988974343294
1644.658205203974 7181.4066627439315
1645.4054000422566 7618.198400114726
1646.1524139019566 7356.121508666304
1646.8992468304423 7276.932542254767
1647.6458988750728 7231.382342856125
1648.3923700831765 7386.196211840591
1649.1386605020743 7333.624884759514
1649.8847701790564 7499.310980254666
1650.6306991614038 7352.578730729988
1651.3764474963682 7416.039428693602
1652.1220152311944 7302.1739467756415
1652.867402413096 7387.554901281779
1653.6126090892776 7333.924444218795
1654.3576353069184 7493.630168582122
1655.1024811131829 7264.4880207458655
1655.8471465552066 7231.412380924825
1656.5916316801213 7461.973618586882
1657.3359365350298 7224.808705109822
1658.0800611670165 7155.215660397266
1658.824005623148 7179.6438755535255
1659.5677699504722 7112.088362498713
1660.3113541960192 7202.311168867962
1661.054758406799 7099.756070469714
1661.7979826297997 7009.414795961495
1662.5410269119966 6952.365574063815
1663.283891300338 7189.390512894775
1664.0265758417645 6967.993090150108
1664.7690805831826 6944.1530072079695
1665.5114055714948 7102.987391411644
1666.2535508535748 7236.877441269859
1666.9955164762814 6800.131646024003
1667.7373024864555 6854.176000520731
1668.478908930916 7018.458228592633
1669.220335856462 6691.746149794717
1669.9615833098778 6801.299161790276
1670.7026513379296 6630.664053546361
1671.44353998736 6764.401784874203
1672.1842493048916 6830.945567370261
1672.9247793372379 6561.721348754118
1673.6651301310812 6530.147333122
1674.4053017330934 6573.342272337823
1675.1452941899242 6789.9949794579925
1675.885107548207 6404.345105375554
1676.6247418545518 6362.286225273402
1677.3641971555535 6456.826306084582
1678.1034734977893 6475.801363618628
1678.8425709278108 6443.344384229259
1679.5814894921605 6472.1560162186015
1680.320229237359 6292.048597312443
1681.0587902098978 6440.9406846090405
1681.7971724562685 6315.475382343799
1682.5353760229264 6277.6088565715845
1683.2734009563173 6193.521790016324
1684.0112473028657 6172.100292371572
1684.7489151089794 6206.358867247431
1685.4864044210462 6229.993309026593
1686.2237152854377 6016.852480258376
1686.960847748498 6252.229401600094
1687.6978018565642 5979.340782412448
1688.434577655944 5941.787286901794
1689.1711751929379 5916.710241432168
1689.9075945138156 6018.7299591956835
1690.6438356648396 5913.094135326688
1691.3798986922448 5642.747739640836
1692.1157836422499 5844.810144046607
1692.851490561059 5683.2996400463035
1693.587019494853 5787.905488785503
1694.3223704897991 5705.481896399176
1695.0575435920364 5491.935834692887
1695.792538847696 5900.7640015869265
1696.527356302886 5596.781536043717
1697.2619960036936 5618.434989676289
1697.9964579961907 5638.721975690495
1698.730742326432 5262.59535504711
1699.4648490404488 5304.189574943666
1700.1987781842563 5468.991416357917
1700.9325298038548 5584.2637243206145
1701.6661039452174 5414.522953368923
1702.3995006543082 5523.583309628401
1703.1327199770658 5475.141685415522
1703.865761959416 5373.995096920362
1704.598626647261 5556.818019703709
1705.3313140864866 5263.333852507395
1706.0638243229587 5274.494696304648
1706.7961574025303 5456.808748227868
1707.528313371029 5350.136608984761
1708.260292274268 5110.143317677361
1708.9920941580403 5160.630048001765
1709.7237190681226 5241.13564344815
1710.4551670502697 5235.541477100486
1711.18643815022 5007.541890808343
1711.9175324136959 5303.735853011835
1712.6484498863938 5050.33212071617
1713.379190614005 5067.641470701826
1714.109754642188 5238.248102996423
1714.8401420165883 5017.277998899643
1715.570352782839 5008.189792905882
1716.3003869865497 5200.223497317692
1717.0302446733076 5022.493833706779
1717.7599258886876 5030.764675634129
1718.4894306782444 5206.095773844781
1719.2187590875183 4976.830397814787
1719.9479111620203 5126.828046014601
1720.6768869472544 4873.074852972046
1721.4056864887025 5272.602061265816
1722.1343098318284 5247.187980348421
1722.8627570220742 5042.4853557527285
1723.591028104871 4969.500578063909
1724.3191231256242 4773.01712334572
1725.0470421297232 4949.648579615196
1725.7747851625427 4990.743923416199
1726.5023522694337 4847.776171778978
1727.2297434957363 4945.358658702133
1727.9569588867635 4736.799034486818
1728.6839984878152 4908.825482966054
1729.4108623441734 4726.641696920965
1730.1375505011038 5077.71026383091
1730.8640630038426 4651.719721708546
1731.5903998976264 4807.231038441276
1732.316561227657 4950.041351611022
1733.0425470391274 4775.323569702254
1733.7683573772065 4751.451757868086
1734.4939922870508 4753.388788827681
1735.2194518137949 4686.733578257748
1735.9447360025606 4923.498768163492
1736.669844898439 4830.346375291313
1737.3947785465189 4739.682471069935
1738.1195369918605 4555.2584091417575
1738.8441202795093 4600.207499854502
1739.5685284544943 4768.7757095871475
1740.292761561821 4844.669347415228
1741.0168196464838 4732.0257087687105
1741.7407027534518 4639.837081703403
1742.464410927687 4764.563043645676
1743.187944214118 4653.259169478764
1743.9113026576688 4564.321914249727
1744.634486303241 4652.27996218392
1745.3574951957125 4768.386798712543
1746.0803293799509 4731.838072638046
1746.8029889008048 4524.442967798581
1747.5254738031017 4818.085110501323
1748.2477841316504 4453.916452797746
1748.969919931249 4662.396237970475
1749.6918812466665 4596.68124099453
1750.4136681226646 4746.103977931622
1751.1352806039777 4601.363901978622
1751.856718735331 4648.106217076059
1752.5779825614281 4680.362437843365
1753.2990721269507 4675.528180446667
1754.0199874765676 4748.583015412071
1754.7407286549314 4443.725875903474
1755.4612957066693 4584.236437213827
1756.1816886763954 4540.315700358454
1756.9019076087097 4604.44504899448
1757.6219525481865 4678.304744300548
1758.3418235393856 4634.305990904024
1759.061520626854 4631.342498002106
1759.7810438551096 4738.542747306403
1760.5003932686614 4442.015686880993
1761.2195689119999 4680.084224067372
1761.938570829594 4441.495479717298
1762.657399065898 4622.13955689154
1763.376053665348 4383.8343458198815
1764.0945346723602 4422.2671009591895
1764.812842131334 4813.5310188924495
1765.5309760866512 4408.164362605095
1766.2489365826787 4402.6878089234115
1766.9667236637597 4653.779632659192
1767.684337374223 4377.320501025527
1768.401777758383 4365.264295354771
1769.1190448605284 4354.1406184243515
1769.836138724937 4391.450153652713
1770.5530593958665 4496.3518838266245
1771.2698069175603 4479.225877363127
1771.9863813342326 4512.848735804045
1772.702782690094 4277.383031101814
1773.4190110293293 4451.339629916763
1774.1350663961111 4548.712539584203
1774.8509488345844 4416.858914264163
1775.5666583888924 4431.380749081647
1776.2821951031437 4588.726308566399
1776.9975590214362 4456.732951997676
1777.7127501878585 4743.094818430137
1778.4277686464684 4512.754982438115
1779.1426144413108 4630.929880741372
1779.8572876164162 4518.597148949284
1780.571788215797 4422.40409603969
1781.2861162834415 4455.615303056474
1782.0002718633277 4367.5466661632445
1782.7142549994132 4330.81482195681
1783.4280657356376 4438.120029973572
1784.141704115922 4283.988910298497
1784.855170184177 4363.416605617942
1785.5684639842839 4323.105122848348
1786.2815855601148 4173.402875569228
1786.9945349555237 4449.85766446415
1787.707312214343 4235.379197437045
1788.4199173803918 4511.940117020981
1789.132350497468 4191.579673455831
1789.8446116093583 4354.89108447504
1790.556700759822 4344.917932730762
1791.2686179926077 4053.5621378106457
1791.9803633514493 4367.695721107818
1792.6919368800554 4102.646989457736
1793.4033386221236 4531.699545109013
1794.1145686213295 4315.0897340434985
1794.8256269213307 4574.112139862356
1795.536513565774 4426.573031098998
1796.247228598284 4030.2850150570857
1796.9577720624693 4287.257239983416
1797.6681440019165 4209.497245740445
1798.3783444602013 4244.9421553675
1799.0883734808776 4313.20538980362
1799.7982311074884 4310.497201684383
1800.5079173835475 4172.285024121051
1801.2174323525633 4398.350047863989
1801.9267760580187 4219.010858754819
1802.635948543386 4368.129695331879
1803.3449498521113 4161.713652072629
1804.0537800276325 4247.866085539435
1804.7624391133668 4196.668600941071
1805.47092715271 4079.1738375320747
1806.1792441890484 4140.692869361204
1806.8873902657433 4386.571336801419
1807.5953654261448 4043.481681863449
1808.3031697135812 4144.420276918479
1809.0108031713662 4242.165864988014
1809.71826584279 4186.046765764006
1810.425557771141 4212.944631936877
1811.1326789996747 4563.6819363188315
1811.839629571632 4268.653434101239
1812.5464095302468 4078.987535275211
1813.2530189187182 4312.75686669503
1813.959457780249 4148.507463365559
1814.6657261580076 4278.80245571581
1815.371824095153 4125.232369243162
1816.0777516348262 4302.538870258224
1816.78350882015 3950.074983904114
1817.4890956942272 3915.2715651619737
1818.1945123001533 4040.409049436301
1818.8997586809928 4032.614734018639
1819.6048348798067 4132.070278266812
1820.3097409396287 4089.0444928713187
1821.0144769034796 4274.802728561521
1821.7190428143622 4095.4975197435147
1822.423438715261 4384.218965783594
1823.1276646491478 4153.94205540853
1823.8317206589727 4173.631924795188
1824.5356067876692 4255.348706163271
1825.2393230781581 3983.1951806694806
1825.942869573335 4009.2679945331174
1826.646246316086 3949.5959411640674
1827.3494533492758 4206.9633104074655
1828.052490715756 4257.602100097565
1828.7553584583547 4161.971642810966
1829.458056619891 4216.215115807689
1830.1605852431585 4029.0261097690586
1830.8629443709433 4006.951148887808
1831.5651340460063 4095.430406719115
1832.2671543110919 4253.3402958694305
1832.9690052089318 4060.8063422879945
1833.6706867822395 3963.7219509640113
1834.3721990737104 4230.039145206406
1835.0735421260233 4133.018991101211
1835.774715981841 4126.221633891635
1836.4757206838058 4282.977589182928
1837.1765562745459 3908.491051395055
1837.8772227966747 3817.8074254919593
1838.5777202927839 4070.2714231391924
1839.2780488054523 4068.710296492336
1839.9782083772352 4091.701212697638
1840.6781990506806 4205.872603133461
1841.378020868313 4058.6526250895818
1842.0776738726418 4057.1526619101655
1842.777158106157 3913.4360164939667
1843.4764736113375 3861.819008575808
1844.1756204306403 4199.515322233124
1844.8745986065078 4165.1111470420365
1845.5734081813607 3815.430471392855
1846.2720491976124 3832.4344638158263
1846.970521697649 3944.4183715251493
1847.6688257238511 4026.1385367301637
1848.3669613185684 3923.342221947611
1849.0649285241452 3815.4921575281223
1849.7627273829057 3915.8718278869046
1850.460357937156 4121.711240749013
1851.1578202291857 3783.607152405924
1851.8551143012664 3998.4774129990683
1852.5522401956569 4092.6958137033494
1853.2491979545957 4156.774476904722
1853.9459876203055 3873.7206833546056
1854.6426092349902 3832.3717783787592
1855.3390628408451 3902.7144821029738
1856.0353484800362 3987.3269160014984
1856.7314661947203 3988.571624714371
1857.4274160270397 3794.666245828436
1858.123198019115 3886.7412444120587
1858.8188122130487 3937.420509009951
1859.5142586509319 3947.44458766948
1860.209537374838 3772.8305139240574
1860.9046484268183 3859.0044954750665
1861.599591848917 4030.335176855396
1862.294367683151 3829.1814024663954
1862.988975971528 3858.047775286928
1863.6834167560355 3980.869815205454
1864.3776900786452 4057.6916207002396
1865.0717959813119 3968.212280599147
1865.7657345059724 3914.4015396843665
1866.4595056945564 3894.6361285350977
1867.1531095889586 4067.0773314183666
1867.846546231076 4050.2994812838033
1868.5398156627743 4097.467272133783
1869.2329179259123 3825.244129091152
1869.9258530623283 4127.308815372814
1870.618621113843 3829.1282983752853
1871.3112221222636 3764.65921592718
1872.0036561293764 3955.5521548583965
1872.695923176956 3853.9545724056065
1873.3880233067594 3966.791687799448
1874.0799565605212 3758.512914048316
1874.7717229799673 3908.5239827867504
1875.4633226068036 4112.623500669755
1876.1547554827175 3895.3587245997383
1876.8460216493859 3786.3804644859347
1877.5371211484617 3913.198909208454
1878.2280540215852 3965.0084507825645
1878.9188203103804 3780.486486311085
1879.6094200564548 3866.723042039686
1880.299853301396 3818.277603432444
1880.9901200867826 3876.181150923516
1881.6802204541673 3744.111831351561
1882.3701544450942 3790.3908718805774
1883.059922101087 3775.32245828023
1883.7495234636517 4013.772391755664
1884.4389585742792 3823.2910546879066
1885.1282274744517 3698.4376350402863
1885.8173302056166 4210.915166747005
1886.506266809225 3835.4211875219326
1887.195037326701 3711.2460451662832
1887.8836417994517 3896.9960422392624
1888.5720802688702 4086.6768872210896
1889.260352776333 3883.9273119994527
1889.9484593632042 3888.70956595534
1890.63640007082 3700.9076215448795
1891.3241749405151 3761.312213730358
1892.0117840135954 3871.2400602128423
1892.6992273313572 3811.582038510478
1893.3865049350788 3819.232937175636
1894.0736168660223 4070.679992418585
1894.7605631654333 3754.1288845660843
1895.4473438745408 3640.5982160992344
1896.133959034556 4010.9925706417134
1896.820408686679 3752.7169531602863
1897.506692872088 3933.7192921972332
1898.192811631945 3729.9955296841763
1898.8787650073991 3928.339257017936
1899.5645530395832 3927.1512102548177
1900.2501757696118 3867.3392297777964
1900.9356332385796 3661.8801162460636
1901.620925487574 4040.2032254813735
1902.3060525576602 3822.44952293183
1902.9910144898859 3863.406803387659
1903.6758113252872 3673.741465695315
1904.3604431048789 3818.7697412542075
1905.0449098696663 3761.0165861851374
1905.7292116606295 3820.8320483437137
1906.4133485187394 3819.5796269786756
1907.0973204849488 3437.0420229516785
1907.7811276001976 3782.9876707065464
1908.4647699053967 3820.803313391147
1909.1482474414588 3622.864733018403
1909.8315602492694 3513.4003274154275
1910.5147083696957 3908.8259205861227
1911.1976918436012 3749.3546793464243
1911.880510711815 3698.9396853243343
1912.5631650151681 3640.924261742857
1913.2456547944657 3713.584707423516
1913.927980090495 3561.278369147305
1914.6101409440362 3645.0122727729345
1915.2921373958416 3772.30640566366
1915.9739694866603 3702.0685526778134
1916.655637257214 3868.5595298224375
1917.3371407482136 3590.113606007248
1918.0184800003572 3953.1405976979004
1918.6996550543154 3746.5176000705565
1919.3806659507554 3802.8811719589708
1920.0615127303208 3976.999593573327
1920.7421954336423 3768.4927082524605
1921.4227141013343 3749.170511241282
1922.103068773993 3599.6033036747394
1922.783259492202 3914.105325817555
1923.4632862965227 3605.4855014094487
1924.1431492275078 3608.6707795868374
1924.8228483256917 3476.9113652867695
1925.5023836315922 3706.0741019269676
1926.1817551857057 3394.3745237869393
1926.8609630285227 3883.7994234106577
1927.5400072005123 3677.684538181089
1928.218887742125 3572.4645587833074
1928.8976046938005 3417.6280007933456
1929.5761580959588 3629.330198166231
1930.2545479890086 3721.5784667230682
1930.9327744133352 3650.701071879038
1931.6108374093164 3638.084118704428
1932.2887370173066 3878.8356142243874
1932.9664732776473 3391.0532972205597
1933.6440462306673 3668.6808358597677
1934.3214559166754 3510.106704384406
1934.9987023759659 3729.552035410433
1935.675785648813 3524.1115810423144
1936.3527057754836 3464.2522098991262
1937.029462796223 3726.0668756124114
1937.70605675126 3643.6146034541357
1938.3824876808085 3688.5390287569658
1939.058755625072 3507.950576068386
1939.7348606242267 3587.281333746932
1940.4108027184448 3591.4168814014547
1941.0865819478713 3834.452382620072
1941.7621983526478 3415.046478854868
1942.4376519728921 3401.697474170581
1943.1129428487038 3602.08192711867
1943.7880710201734 3651.166117742641
1944.4630365273733 3688.721159725762
1945.1378394103576 3367.4300992373987
1945.8124797091714 3908.1293211959273
1946.4869574638324 3227.6114958300955
1947.161272714353 3527.8113371606996
1947.8354255007234 3763.7861437461206
1948.5094158629272 3566.1576611167984
1949.1832438409183 3626.4362176915542
1949.8569094746435 3659.7016249315116
1950.530412804037 3786.0518929258697
1951.2037538690092 3715.7094552157737
1951.8769327094578 3509.2748589143966
1952.5499493652678 3676.482554713998
1953.222803876306 3637.654859921765
1953.895496282421 3682.293708432272
1954.5680266234522 3467.7475536794163
1955.2403949392155 3552.9159121751777
1955.9126012695142 3479.1334236405028
1956.5846456541403 3564.282865807342
1957.2565281328643 3357.634306747659
1957.9282487454457 3604.1876595582044
1958.5998075316202 3836.5696538910306
1959.27120453112 3734.7941162755465
1959.9424397836501 3585.970149779952
1960.613513328908 3681.003388674003
1961.2844252065697 3671.2044223857847
1961.9551754563017 3606.3117927569792
1962.6257641177453 3313.256177053656
1963.29619123054 3545.5560804667803
1963.966456834296 3439.5966607324285
1964.6365609686181 3282.193475347479
1965.306503673086 3736.0600665693287
1965.976284987275 3540.9890818506983
1966.645904950734 3380.1196321661723
1967.315363603002 3356.0712266270575
1967.9846609836077 3414.729028396796
1968.6537971320486 3525.5827511536854
1969.3227720878222 3457.63852109222
1969.9915858904042 3267.1078824415977
1970.660238579252 3691.0919087798866
1971.3287301938108 3490.910571061669
1971.997060773514 3170.2351115583433
1972.665230357772 3510.608081919647
1973.3332389859843 3303.2317024021877
1974.0010866975335 3429.823877836892
1974.6687735317864 3531.007979358481
1975.3362995280932 3462.5964850883174
1976.003664725793 3518.120193416163
1976.6708691642052 3134.966255545505
1977.3379128826364 3359.9831294510136
1978.004795920373 3542.2558611253626
1978.6715183166925 3814.261945614685
1979.3380801108524 3289.127364886317
1980.0044813420973 3531.467115311675
1980.6707220496555 3208.4187145490887
1981.3368022727373 3335.6171431620314
1982.0027220505417 3543.257395776778
1982.66848142225 3269.291677141735
1983.3340804270283 3249.3950627085087
1983.999519104027 3446.1157089052635
1984.6647974923835 3682.411762194687
1985.329915631215 3617.8026008856314
1985.99487355963 3514.7468003237095
1986.6596713167146 3547.203133277282
1987.3243089415428 3507.041945482009
1987.9887864731754 3716.736418643036
1988.6531039506553 3369.7655391245744
1989.3172614130071 3610.974544876147
1989.9812588992481 3445.325260302981
1990.645096448372 3494.924548029855
1991.3087740993633 3393.7996480784786
1991.9722918911848 3396.9253807228874
1992.635649862792 3361.5476117024978
1993.2988480531185 3504.8830832172616
1993.9618865010852 3750.2564238720734
1994.6247652455968 3442.7909767888173
1995.287484325545 3268.2836225550354
1995.9500437798033 3487.164257330216
1996.6124436472292 3262.5851925742436
1997.2746839666706 3515.9156330200412
1997.936764776954 3425.0042972296787
1998.598686116895 3336.9063257784974
1999.2604480252903 3660.906370594931
1999.9220505409212 3420.6595562267416
2000.5834937025593 3196.1357007233883
2001.2447775489582 3228.2159711622294
2001.9059021188514 3409.473782275521
2002.5668674509616 3309.2875474657194
2003.2276735839987 3464.55165197315
2003.8883205566508 3547.551117959397
2004.5488084075987 3297.840294293691
2005.2091371755014 3324.9176244281857
2005.8693068990033 3361.4896001164407
2006.5293176167397 3503.9992003042375
2007.1891693673224 3209.6711275416696
2007.848862189354 3122.5793797873152
2008.5083961214223 3295.2353558506884
2009.1677712020955 3184.642435490506
2009.8269874699254 3146.8750643630647
2010.4860449634598 3650.219235307024
2011.1449437212177 3078.9256057113826
2011.8036837817108 3343.4954904068554
2012.4622651834325 3456.1602379930323
2013.1206879648653 3498.0104345766754
2013.7789521644736 3715.4148551792323
2014.4370578207036 3081.754049666237
2015.0950049719922 3195.95895702741
2015.7527936567585 3299.879657700766
2016.4104239134067 3304.7088975907377
2017.067895780323 3479.7366015353787
2017.725209295886 3049.263728635493
2018.3823644984514 3662.3239793726507
2019.0393614263648 3351.85335582837
2019.6962001179545 3111.756583577214
2020.3528806115355 3507.892859493923
2021.0094029454067 3100.9948511640396
2021.6657671578487 3326.3311444837273
2022.321973287133 3337.448742630808
2022.9780213715148 3300.5522982337507
2023.6339114492293 3061.001399948053
2024.2896435585026 3308.641848343724
2024.9452177375442 3268.8545696165784
2025.600634024544 3461.9063704913
2026.2558924576842 3359.8385844715244
2026.9109930751292 3465.133652169421
2027.565935915025 3195.903584704366
2028.2207210155066 3541.0889765932275
2028.8753484146964 3505.766272166583
2029.529818150695 3203.388586190334
2030.1841302615903 3386.27338715995
2030.8382847854573 3109.560760714357
2031.4922817603601 3303.1711237277195
2032.1461212243357 3327.141244002318
2032.7998032154192 3022.8752473655586
2033.4533277716218 3310.321130688089
2034.1066949309443 3218.9042516458558
2034.7599047313688 3329.3734287432467
2035.4129572108704 3566.3771695561504
2036.0658524074006 3552.5468792286783
2036.7185903589016 3346.9545401922574
2037.3711711032956 3340.8463096915257
2038.023594678496 3230.0992573173617
2038.675861122394 3283.0274782860724
2039.3279704728757 3386.186685627622
2039.9799227678031 2971.507510168996
2040.6317180450278 3203.6959104469524
2041.2833563423865 3254.454137936655
2041.9348376977014 3343.117023918215
2042.5861621487784 3353.934719102335
2043.2373297334088 3362.3131385028937
2043.8883404893695 3369.301163930379
2044.5391944544208 3579.249351492514
2045.1898916663158 3290.6587446000367
2045.8404321627804 3553.933167804
2046.4908159815368 3158.9913976650587
2047.1410431602853 3107.182801867725
2047.7911137367173 3003.5444944123674
2048.441027748504 3255.130266280221
2049.090785233302 3170.255830612233
2049.7403862287592 3120.0405431036415
2050.389830772503 3438.136751105006
2051.0391189021466 3017.36693480591
2051.688250655294 3276.3976735059036
2052.337226069527 3056.782931243598
2052.986045182417 3369.511874058261
2053.634708031521 3022.8993499563303
2054.283214654375 3335.4279548534796
2054.931565088511 3092.362688562417
2055.579759371436 3006.976145393047
2056.2277975406523 3171.0791143111983
2056.8756796336384 3388.3130388001323
2057.5234056878617 2941.06603087888
2058.1709757407752 3026.22695884483
2058.8183898298194 3282.06311282927
2059.465647992416 3317.8889370834613
2060.1127502659747 3367.069990740947
2060.759696687888 3085.260422698311
2061.4064872955405 3390.466283935799
2062.053122126292 3419.320964020414
2062.699601217497 2983.5699426496317
2063.345924606485 3204.397711128537
2063.992092330587 3250.85130787186
2064.638104427102 3168.108123060538
2065.283960933324 3383.963260238203
2065.92966188653 3380.8393536633425
2066.5752073239855 3315.2474842561774
2067.2205972829397 3072.2877266895657
2067.86583180062 3233.9985544022575
2068.5109109142522 3172.8894526396884
2069.15583466104 2553.9899326490076
2069.8006030781708 3165.5927618641635
2070.445216202821 3301.49754335687
2071.089674072153 3420.4002417704587
2071.7339767233116 3301.071701663169
2072.3781241934303 3303.7382804609815
2073.0221165196253 3380.6719288824906
2073.6659537390024 3240.808943172584
2074.3096358886505 3281.465636435028
2074.953163005637 2851.2274960576983
2075.596535127028 3056.6527644424714
2076.2397522898664 3010.5279276144074
2076.882814531182 3209.5044336921205
2077.5257218879924 3453.4352767451032
2078.1684743973 3075.963587318891
2078.8110720960885 2834.551425160679
2079.453515021336 3485.107129331882
2080.095803209997 3252.6844831598214
2080.7379366990135 3096.9254128448774
2081.37991552532 2997.2860958550264
2082.0217397258275 3306.063502354623
2082.6634093374414 2947.354591812223
2083.3049243970418 3280.7889951077887
2083.9462849415067 3236.7172163513546
2084.587491007689 3173.2324179183347
2085.2285426324324 3285.3844387328522
2085.869439852564 3258.0928445970876
2086.510182704902 2796.0171473426353
2087.1507712262483 3166.5421858036316
2087.791205453381 3048.766814294835
2088.4314854230743 3266.9636530140774
2089.0716111720867 3215.101422873827
2089.7115827371617 2992.4634190821134
2090.351400155023 3036.309787508813
2090.991063462385 3080.388362214905
2091.6305726959527 2904.0428899045755
2092.2699278924047 3538.8496130389603
2092.9091290884153 3109.6580453708784
2093.548176320641 3073.317193982308
2094.187069625721 3339.833093063791
2094.8258090402887 3003.960175090476
2095.464394600951 3314.356114095527
2096.102826344313 3289.8503645237615
2096.741104306955 3433.294396734088
2097.379228525453 2957.3059541259427
2098.017199036358 2953.5320818297123
2098.6550158762147 3394.057743003416
2099.2926790815527 3068.5748500517793
2099.9301886888825 3148.6600055319855
2100.5675447347076 3369.5837010496516
2101.2047472555114 3518.7499514194287
2101.841796287761 3138.5665412272942
2102.47869186792 3111.0787615682943
2103.1154340324265 3094.2537736895742
2103.752022817709 3124.967295855847
2104.388458260184 3227.1758466340925
2105.024740396251 3276.03151110457
2105.660869262292 3016.115149790584
2106.296844894685 3351.5279716971686
2106.93266732978 3191.6579112669137
2107.5683366039284 2911.7949592766695
2108.2038527534532 3063.950073743139
2108.8392158146726 3446.9204167176613
2109.4744258238843 3229.010574972578
2110.1094828173755 3121.262571833221
2110.744386831422 3513.1580783234385
2111.3791379022787 3147.506505127658
2112.01373606619 3352.1543735748937
2112.648181359389 3017.9894844941355
2113.28247381809 3149.0664713429187
2113.916613478492 3131.2382655859165
2114.550600376786 3260.0852327720318
2115.1844345491445 3329.505640874452
2115.818116031729 3024.1635048691883
2116.451644860679 3073.611192791101
2117.085021072133 2898.677516615759
2117.718244702204 2851.384964847377
2118.3513157869984 3148.28493667556
2118.984234362604 2955.3745794261104
2119.617000465092 3017.7153774664594
2120.249614130529 3393.5193022958388
2120.8820753949585 3058.0121371580253
2121.5143842944162 3180.7116897299184
2122.14654086492 2846.006306685288
2122.7785451424734 3142.4676984017574
2123.4103971630702 2721.5955004609123
2124.042096962681 3267.9976510400566
2124.6736445772767 2976.332201806491
2125.305040042802 2917.409884128666
2125.936283395191 3095.7213088433878
2126.567374670365 3089.874196404695
2127.198313904233 3063.8967691979187
2127.8291011326855 3353.943802604076
2128.4597363916037 3373.4015498492263
2129.0902197168507 3066.776588642022
2129.720551144279 2815.3488220817594
2130.3507307097225 3235.7049196101716
2130.980758449008 3310.045882179952
2131.6106343979427 3093.8281503737776
2132.2403585923203 3257.6432716356926
2132.8699310679276 3315.433675493887
2133.499351860526 3228.3895924292474
2134.1286210058715 3316.150621197498
2134.7577385397053 2894.168741023999
2135.3867044977487 3142.1408924722996
2136.0155189157176 3338.0440471846487
2136.644181829308 3210.1160896833744
2137.2726932742025 2869.175078722985
2137.901053286074 3272.7894147646984
2138.5292619005777 2909.055419750171
2139.1573191533535 2995.778041953971
2139.7852250800315 3256.242501096322
2140.4129797162295 3190.0229494115993
2141.0405830975433 2793.68321051199
2141.6680352595613 3148.1396205863884
2142.2953362378576 2916.415091678911
2142.9224860679915 2962.2101395567565
2143.549484785508 2851.293691725757
2144.1763324259373 3065.462634302982
2144.803029024799 2945.45766598641
2145.429574617594 3020.383035345031
2146.0559692398165 3238.653363263557
2146.682212926942 2914.6397936277194
2147.308305714432 3042.418608495468
2147.9342476377333 3199.431811452426
2148.5600387322847 3206.3911469034165
2149.185679033506 3068.2673796233394
2149.8111685768017 3032.088392964789
2150.4365073975678 2844.391530681462
2151.061695531187 3014.040122653372
2151.686733013021 2960.733926283258
2152.311619878423 2959.9458423221854
2152.9363561627342 2936.1535311932575
2153.560941901278 2869.9138429442573
2154.1853771293663 3175.2394057808688
2154.809661882293 3198.3167729987244
2155.433796195348 3145.2178323253675
2156.0577801037944 3122.502206098637
2156.681613642895 3261.4483657766573
2157.3052968478896 2965.5751005417715
2157.928829754006 2949.936923664794
2158.552212396462 3130.035886437558
2159.1754448104566 2850.7723797679246
2159.7985270311783 2762.199509387533
2160.4214590938027 2663.485329247781
2161.0442410334927 2780.3862543016116
2161.6668728853874 3038.4756924154626
2162.289354684628 2834.384955116565
2162.911686466332 2970.2401457232268
2163.533868265602 3183.9881226624784
2164.1559001175337 3229.4999130021724
2164.7777820572046 3203.6058231977486
2165.399514119681 2842.628341295056
2166.021096340013 2711.013386094451
2166.6425287532384 3365.8850092326306
2167.263811394385 2947.125418903956
2167.8849442984574 2948.584030497956
2168.505927500455 2726.0762810062433
2169.126761035366 2968.106558709525
2169.7474449381552 2837.19471558448
2170.367979243778 2762.429011563538
2170.9883639871823 3019.155226985139
2171.608599203293 2873.7132236525094
2172.2286849270276 3382.280994761317
2172.8486211932886 3435.472916210965
2173.4684080369625 2920.7733006908
2174.0880454929265 2832.105522420365
2174.7075335960417 2888.4684865254544
2175.3268723811543 3167.1681745087562
2175.9460618831 2950.0197866065155
2176.565102136701 2821.222651115697
2177.1839931767627 2872.058729581062
2177.802735038078 2923.0704090852632
2178.421327755432 2784.5114405061167
2179.0397713635866 2849.477671337279
2179.658065897298 2678.270455787109
2180.276211391305 2873.987667815822
2180.8942078803357 2854.6283808856047
2181.5120553991 2987.794541696505
2182.129753982299 2870.441141833663
2182.7473036646206 2833.382899166913
2183.3647044807367 3012.685938522119
2183.9819564653044 2874.976997143783
2184.599059652968 3201.8111615771736
2185.216014078367 3126.1849183854792
2185.832819776113 2493.9063118745757
2186.4494767808137 3094.3964383394673
2187.065985127063 3035.456374290142
2187.682344849436 2955.7799541927557
2188.298555982501 3331.317232262101
2188.9146185608097 3055.860163005428
2189.530532618901 3032.511267792205
2190.1462981912937 2793.00115811483
2190.761915312507 3113.700521838202
2191.377384017036 3116.4532202147634
2191.9927043393654 2950.3503441692797
2192.6078763139667 2541.2099586737504
2193.2228999753006 2583.3560994291647
2193.837775357808 2625.632662712588
2194.452502495922 2713.156180057892
2195.0670814240602 2821.393877075924
2195.6815121766285 2899.6594180770776
2196.2957947880186 3286.900662248947
2196.9099292926057 2919.2526658573406
2197.523915724758 3076.2982135418633
2198.137754118825 2856.5160738361506
2198.7514445091456 3234.5786590170637
2199.3649869300443 2635.2507016500936
2199.9783814158327 3200.6860117990996
2200.5916280008096 3241.947125878354
2201.2047267192593 3100.5641698725203
2201.8176776054515 3022.6567910581844
2202.430480693649 2833.5069061602526
2203.0431360180955 2917.800119143744
2203.6556436130195 3119.322389130975
2204.268003512645 2756.9128325405395
2204.8802157511727 3140.468511375552
2205.492280362796 3165.973718231545
2206.1041973816937 2873.8238229828253
2206.715966842032 3067.3264079285336
2207.3275887779655 2782.4424166983204
2207.93906322363 2795.965122252517
2208.550390213153 3144.129938489251
2209.1615697806465 2897.915171111459
2209.7726019602105 2574.6428842600444
2210.3834867859277 2735.8949074775514
2210.9942242918787 2940.746649335003
2211.6048145121167 2636.968899008826
2212.2152574806914 3642.8732576753328
2212.825553231638 2855.5108117981517
2213.435701798975 3714.127228407449
2214.045703216707 2804.8554012778563
2214.655557518832 2587.381959380524
2215.2652647393297 2534.4024309372426
2215.874824912169 2463.238400629344
2216.4842380713 2856.814627505629
2217.09350425067 2699.595274805058
2217.7026234842033 2643.20043400647
2218.311595805819 3084.35936114762
2218.9204212494133 2781.086649061876
2219.52909984888 3217.400964957761
2220.137631638092 2563.9813977926897
2220.7460166509154 3113.7611179286573
2221.354254921198 2905.9656688090386
2221.9623464827764 3093.815037662806
2222.5702913694713 2866.8398185132573
2223.178089615096 3014.7304061336617
2223.7857412534486 2873.6195810827458
2224.39324631831 2598.258506238896
2225.000604843457 2721.715276977019
2225.607816862641 3113.6816025659496
2226.214882409611 3061.297917927414
2226.8218015180973 3028.860643714045
2227.4285742218217 2640.369267451581
2228.0352005544864 2996.4808723340507
2228.6416805497847 2531.9069571197483
2229.248014241399 2791.0970785698505
2229.8542016629945 2520.0800199565233
2230.460242848223 3174.0495193393895
2231.0661378307304 3261.493540128447
2231.671886644139 2917.9119454564375
2232.277489322065 2720.701085269673
2232.8829458981127 2357.54782268308
2233.48825640587 2936.586133916235
2234.0934208789095 3164.1295847290967
2234.6984393507955 3192.4693121812556
2235.3033118550793 3250.082759585381
2235.9080384252975 2829.433812947295
2236.5126190949723 2611.1747343590437
2237.1170538976166 2636.6369016745107
2237.721342866729 2870.5469478429927
2238.32548603579 3104.844130101884
2238.9294834382763 2968.2187561317896
2239.533335107646 2787.3606497109986
2240.1370410773434 2953.837867040413
2240.740601380803 2675.7535395765726
2241.3440160514474 2777.7781128225674
2241.9472851226783 2972.6501827873376
2242.550408627896 2991.3014750121565
2243.1533866004793 3010.0339147557333
2243.756219073799 2797.4129779606915
2244.3589060812064 2858.8833042705714
2244.961447656049 2803.8487437625477
2245.5638438316564 2918.75817696543
2246.166094641343 2992.5345588577334
2246.7682001184166 2893.2605004416805
2247.3701602961664 2838.3077053063876
2247.971975207871 2848.5372940608213
2248.5736448867974 2937.4508912202173
2249.175169366197 2900.0440216525644
2249.7765486793123 2584.151636747343
2250.3777828593684 2830.461196714567
2250.9788719395783 2981.5844900779007
2251.579815953146 2786.7729926419306
2252.1806149332606 2472.1971944008983
2252.781268913097 2823.113907522592
2253.381777925817 2597.7187397602456
2253.9821420045737 2880.349831609178
2254.5823611825035 3048.195423122542
2255.1824354927303 2746.2984033840526
2255.782364968365 2638.0601110432826
2256.38214964251 2529.7542098878575
2256.9817895482483 2575.1338580241254
2257.5812847186553 2812.826859030757
2258.180635186791 2624.299631614091
2258.779840985704 2916.736353996221
2259.37890214843 2816.939740342049
2259.97781870799 2723.790443679265
2260.5765906973957 2630.496909698492
2261.175218149645 2708.3036035064642
2261.773701097718 3192.4986144594377
2262.3720395745895 2620.783068161404
2262.970233613216 2582.0798767100096
2263.568283246548 2606.8067574081538
2264.1661885075137 2660.2539152667778
2264.763949429038 2730.374278801318
2265.3615660440246 2988.698630215967
2265.959038385374 2591.4446591577716
2266.5563664859637 3062.8486970091426
2267.153550378669 2549.7046092148494
2267.7505900963424 2786.2249798157745
2268.3474856718312 2630.334588232891
2268.9442371379664 2573.4390784054094
2269.5408445275643 2592.8819510632916
2270.1373078734377 2890.5448080783794
2270.7336272083758 2687.122773517335
2271.32980256516 2806.3438373341764
2271.925833976562 2652.8943807469504
2272.5217214753357 2916.4272518499615
2273.117465094223 2635.175471763968
2273.7130648659586 2610.0884861024037
2274.308520823257 2843.4795335908902
2274.903832998827 2878.6011276322465
2275.4990014253563 2529.826137646799
2276.094026135528 2955.118968072044
2276.6889071620117 2486.659643893758
2277.2836445374614 3053.1736898006393
2277.878238294519 2944.2552252396626
2278.472688465812 2753.725483999003
2279.066995083962 2562.815261875068
2279.6611581815705 2674.801230426206
2280.255177791232 3009.722531543458
2280.8490539455233 2646.310442302255
2281.442786677013 2928.400939685593
2282.0363760182554 2890.647202785488
2282.6298220017943 2634.9575796512154
2283.223124660155 2732.85477528116
2283.816284025859 2620.3808574524846
2284.4093001314086 2964.0892606132757
2285.002173009292 2859.6189353008294
2285.5949026919952 2754.8989265854875
2286.1874892119777 2540.093778539293
2286.7799326016993 2690.503497275366
2287.3722328936 2660.3278205360148
2287.964390120109 2411.2295726971993
2288.556404313642 2922.033863218973
2289.1482755066027 3211.339805208735
2289.7400037313873 2578.2984159738744
2290.3315890203703 2738.1717748841993
2290.9230314059205 2296.4415390569166
2291.5143309203904 2565.5347758717485
2292.1054875961236 2411.118917237095
2292.6965014654506 3056.437218354512
2293.287372560684 2728.1178068200948
2293.878100914131 2619.089968629017
2294.468686558086 2509.9136265246584
2295.059129524827 2659.0190109169407
2295.649429846617 3067.98366960317
2296.239587555716 2945.3291981547422
2296.8296026843636 2890.87782677268
2297.419475264791 3240.2531440838147
2298.0092053292137 2832.3159354662503
2298.598792909839 2639.4877285931807
2299.1882380388597 2824.065363838698
2299.777540748455 3205.815509124647
2300.3667010707904 2811.8363390881123
2300.9557190380256 2673.906880762649
2301.544594682302 2585.473825354703
2302.1333280357503 2496.905430106308
2302.721919130485 2896.792981923046
2303.3103679986198 2864.7900022881513
2303.898674672242 2905.423814042536
2304.486839183437 2611.509204577441
2305.0748615642697 2802.563061320553
2305.6627418468015 2542.4718245309564
2306.2504800630704 2617.988594559819
2306.8380762451143 2612.8940947849574
2307.425530424949 2694.423996986191
2308.012842634582 2776.120042261394
2308.6000129060103 2884.754127949427
2309.187041271214 3329.937473102046
2309.773927762164 2808.4416725632304
2310.3606724108213 2712.44091832526
2310.9472752491274 2366.825771458485
2311.5337363090184 2666.8484278753567
2312.120055622414 2812.363892809381
2312.706233221221 2712.7764961929984
2313.2922691373424 2381.880498644105
2313.8781634026564 2648.9291442823255
2314.463916049037 2596.2996077458115
2315.049527108342 2775.374595322981
2315.6349966124235 2977.870354468469
2316.2203245931123 3048.9145326835487
2316.8055110822315 2380.7471748564767
2317.3905561115935 2642.788753700809
2317.9754597129977 2381.1073170915042
2318.560221918229 2878.854209868721
2319.1448427590603 2749.5405628162275
2319.729322267256 2258.232733547943
2320.313660474563 2862.558467552334
2320.8978574127195 3368.747856219182
2321.481913113452 2810.1543413930526
2322.0658276084705 2293.521553137573
2322.6496009294806 2637.6039258361334
2323.233233108165 3004.4287541616404
2323.8167241762058 2832.7290343439954
2324.4000741652617 2858.4128268965364
2324.983283106987 3025.0813438147934
2325.5663510330232 3053.958777867352
2326.1492779749933 2670.0094394021253
2326.7320639645204 2765.283063843745
2327.3147090332004 2516.252410053904
2327.897213212629 2926.5950542530704
2328.4795765343843 2637.96206915625
2329.0617990300307 2389.4348151377108
2329.643880731124 2872.9501489279673
2330.22582166921 2778.433435233216
2330.807621875816 2663.655722531886
2331.3892813824623 2564.176786367077
2331.9708002206517 2556.339216963771
2332.5521784218818 3141.3769620410453
2333.133416017634 2799.4935529595177
2333.7145130393765 2914.7741872100573
2334.295469518571 2834.4359805848753
2334.876285486658 2641.3899681061744
2335.456960975076 2444.543546795673
2336.037496015242 2701.994327673875
2336.6178906385667 2587.010820192748
2337.198144876451 2918.9937248258966
2337.778258760278 2469.5713461015202
2338.3582323214214 2384.883363860946
2338.938065591243 2882.794682230055
2339.517758601087 2904.9558974587844
2340.0973113822965 2604.8253133823105
2340.676723966193 2374.6854822866835
2341.255996384094 2542.8791787687524
2341.835128667295 2555.837225120048
2342.4141208470883 2798.9331485273597
2342.992972954751 2531.6028793146734
2343.5716850215467 2622.5845295663157
2344.1502570787306 2624.2946457825456
2344.7286891575386 2625.877451436472
2345.3069812892045 2781.1528934200046
2345.885133504944 2759.007019628951
2346.4631458359618 2405.7979976867896
2347.04101831345 2571.1736958133147
2347.6187509685915 2809.8850609280075
2348.196343832553 2445.2399857183277
2348.7737969364935 2424.0331860687056
2349.351110311558 2479.702622920632
2349.9282839888765 2367.728164093728
2350.5053179995757 2542.551482356391
2351.0822123747585 2393.942070349861
2351.658967145526 2737.4794640323703
2352.2355823429643 2299.7824547969135
2352.812057998144 2782.759590270433
2353.3883941421263 2348.0797628926716
2353.9645908059647 2874.4999571256712
2354.540648020693 2527.2591374399776
2355.116565817336 2489.4838893086003
2355.6923442269126 2319.342015611434
2356.2679832804224 2355.445644847872
2356.8434830088518 2281.9481106035155
2357.41884344318 2663.050334309142
2357.994064614377 2580.648178549183
