#exp_cfg={"servo_angle": 0.0, "laser_lim": 100.0, "servo_angle_to": 18.0, "laser_wup": 0.0, "bt_dev": "EnSpectr-25AE3", "laser_wdn_max": 0.0, "frames": 10.0, "servo_used": 0, "servo_calib_use": 0, "laser_wdn_min": 0.0, "servo_pix_from": 90.0, "cooler_tout": 300.0, "servo_angle_from": 0.0, "servo_calib": "[-1.9174921013161362e-09, 3.9322238269163779e-05, -0.27385609119055809, 653.59552119713567]", "laser_autoctl": 0, "servo_pix_to": 3682.0, "laser_pw": 100.0, "cooler_on": 0, "laser_volt": 4.0, "cooler_autoctl": 0, "cooler_curr": 70.0, "cooler_startup": 10.0, "laser_fixed_pw": 0, "gain": 1.3, "offset": 2.53059635486, "servo_calib_degree": 3.0, "laser_curr": 55.0, "shutter": 8200.0, "servo_calib_step": 1.0, "laser_fixed_curr": 0, "exp": 2000.0, "ccd_volt": 4.7, "bt_addr": "00:06:66:62:5A:E3", "servo_delay": 500.0, "laser_autooff": 1}
#proc_cfg={"flat_auto_wnd": 200.0, "flat_auto_fr": 200.0, "flat_auto_shift": 5.0, "yconv": 1, "flatten": 1, "flatten_strength": 100.0, "xfrom": 300.0, "auto_max_frame": 2000.0, "auto_signal": 48000.0, "flat_auto_tol": 0.1, "autoclip": 1, "xrel_range": 0.0, "flat_auto_to": 4000.0, "intensity_adj": 1.0, "xrel": 7852.0, "rmhot": 1, "flat_auto_slit": 4.999999999999997, "auto_ini_exp": 300.0, "auto_off": 0, "xto": 2860.0, "flat_auto_ref": "", "flat_auto_rank": 1, "autobackg": 0, "xrel_adj": 0.0, "auto_black_lvl": 1, "base_wnd": 100.0, "sub_baseline": 0, "xconv": 2, "auto_max_exp": 1000.0, "auto_total_exp": 10000.0, "auto_exp": 0, "rmripple": 0, "black_lvl": 8271.659375, "shutter_clip_adj": 0.0, "auto_bckg": 0, "flat_auto_thr": 0.9, "subbackg": 1}
316.8218498245369 9808.725913037482
317.89969571804795 9649.059212688207
318.977263876126 9669.300211958842
320.05455438786703 9581.053917942514
321.1315673423287 9590.988840144464
322.2083028285215 9622.338195094111
323.2847609354267 9509.88590535351
324.3609417519747 9521.884237215658
325.43684536705587 9438.86392136997
326.5124718695279 9332.022525854863
327.58782134820103 9510.40019232166
328.66289389184385 9384.842596026658
329.7376895891921 9304.801547481442
330.8122085289342 9345.817336885222
331.88645079971866 9353.28254597986
332.9604164901575 9194.865136292345
334.03410568881554 9246.512140239824
335.1075184842266 9366.217333987239
336.18065496487543 9202.791270818077
337.2535152192122 9203.511110421427
338.32609933564163 9174.709878967245
339.39840740253203 9169.35408722235
340.4704395082099 9164.213124195036
341.5421957409617 9152.63136759165
342.6136761890357 9219.336231983794
343.6848809406365 9175.292661335843
344.75581008392874 9139.8110316135
345.82646370703696 9050.329970107097
346.8968418980512 9046.287085742257
347.96694474501055 9088.575505758414
349.0367723359268 9101.659454610957
350.106324758759 8999.716073756652
351.1756021014353 8944.86700489886
352.2446044518383 8983.95455155042
353.31333189781435 9059.040589296226
354.38178452716966 8963.226350071325
355.449962427665 8965.502374094396
356.51786568702846 8899.61733557531
357.58549439294256 8986.037610313066
358.6528486330535 9007.630678720829
359.71992849496564 8954.251161063114
360.7867340662433 8877.505241096685
361.8532654344144 8948.256505035033
362.9195226869597 9015.887024518606
363.9855059113288 8762.331214326146
365.05121519492604 8822.934229978588
366.11665062511565 8945.82755435323
367.1818122892273 8991.227544788711
368.2467002745434 8868.33856698755
369.31131466831175 8884.545106033627
370.375655557742 8896.752799126753
371.4397230299983 8887.728567032955
372.5035171722102 8853.651871697417
373.5670380714637 8873.79795405715
374.6302858148101 8990.72137004346
375.6932604892554 8916.26825664414
376.7559621817709 8871.600164212523
377.81839097928605 8792.937078885934
378.8805469686886 8815.345846390524
379.94243023683157 8804.507277410648
381.0040408705263 8852.68799300792
382.0653789565458 8688.851160011433
383.1264445816196 8731.553728055362
384.1872378324406 8784.908544475555
385.2477587956637 8782.296518344812
386.3080075579037 8720.882927180273
387.3679842057336 8691.01043258355
388.4276888256918 8778.762598371017
389.48712150426945 8692.718982764482
390.54628232792857 8701.741368305851
391.6051713830857 8653.291900830816
392.66378875611736 8646.062533099048
393.7221345333637 8667.227808458436
394.7802088011249 8504.777728018209
395.838011645661 8603.17989679045
396.89554315319765 8577.060851054319
397.9528034099112 8598.926867096594
399.00979250194723 8479.873705892138
400.06651051541485 8520.323234173327
401.1229575363741 8542.588651815526
402.17913365085224 8441.598480356777
403.23503894483656 8551.679646271255
404.2906735042761 8400.895310064252
405.3460374150818 8431.233138626074
406.401130763119 8473.991108185406
407.455953634224 8419.416200622267
408.5105061141876 8474.182606696042
409.56478828876243 8287.93434531843
410.6188002436629 8341.216904979246
411.6725420645689 8294.083046440963
412.72601383711117 8332.041738164975
413.77921564689314 8443.433971396984
414.8321475794728 8332.362148983328
415.88480972036814 8320.420379933075
416.93720215506437 8515.530909398116
417.9893249690049 8296.88484665567
419.04117824759123 8263.321866944094
420.09276207619223 8283.025069374004
421.144076540133 8290.788385855067
422.1951217247042 8235.515289737677
423.24589771515275 8271.496045001122
424.2964045966928 8168.0383522712345
425.34664245449494 8234.331810637319
426.3966113736933 8251.851697685877
427.4463114393875 8172.503941025592
428.49574273662984 8176.6710936728
429.5449053504417 8183.483597243493
430.5937993658026 8192.533018602799
431.6424248676558 8037.278267903345
432.6907819409007 8133.854722968191
433.73887067040596 8161.826910824224
434.7866911409965 8189.684170927113
435.8342434374608 8075.916933243183
436.88152764455117 8097.457926055009
437.9285438469724 8087.769869362809
438.9752921294057 8003.37269762052
440.02177257648145 8049.986945239539
441.06798527279716 8028.260207639275
442.1139303029122 8124.292638308245
443.1596077513459 8188.205337217582
444.2050177025794 8064.10075568635
445.25016024105753 8082.056879454231
446.2950354511886 8043.426776815232
447.33964341733736 8104.808409590177
448.383984223834 8083.604003935344
449.4280579549686 8009.429561975949
450.471864694995 8051.8682270685895
451.5154045281306 8132.532354164223
452.5586775385509 7990.873309146615
453.60168381039693 7976.426704965709
454.64442342776783 8072.683741837466
455.6868964747264 8004.85939094589
456.7291030353008 7984.313248730413
457.77104319347563 8047.083201737349
458.8127170332027 8067.613443267673
459.854124638392 8036.854825206986
460.895266092919 8101.560134878409
461.93614148061897 8029.571110525232
462.97675088529104 8109.702279850142
464.01709439069236 8075.400075139629
465.0571720805492 8040.895632636959
466.0969840385442 8088.329499420193
467.1365303483253 8177.310412460805
468.17581109350067 8079.07586993031
469.2148263576437 8078.3269303134675
470.2535762242878 8115.351267301607
471.29206077693016 8239.404725499113
472.33028009902773 8214.101774483672
473.3682342740012 8252.218838226572
474.40592338523857 8252.513103866873
475.4433475160804 8233.348147021261
476.4805067498364 8211.370432815502
477.51740116978 8339.131122522469
478.5540308591426 8410.869506134255
479.59039590112116 8476.218510230907
480.6264963788726 8454.31183525006
481.6623323755193 8563.380990473941
482.6979039741436 8628.832842880343
483.7332112577915 8816.663545475047
484.76825430947247 8829.750721688786
485.80303321215797 8903.788146229432
486.837548048783 8931.783405645212
487.8717989022425 9110.611145644089
488.90578585539697 9079.19041707451
489.9395089910686 9211.819441482277
490.97296839203955 9072.351904222138
492.00616414106116 8923.832238472316
493.0390963208429 8931.54421603309
494.0717650140559 8937.035462128384
495.10417030333883 8879.562650794485
496.1363122712901 8870.70423477476
497.16819100046814 8686.914801171817
498.1998065734024 8547.924615818714
499.2311590725767 8559.639049797535
500.26224858044407 8506.854939127013
501.2930751794156 8464.415566203308
502.3236389518679 8365.497844571482
503.35393998014115 8249.178122120466
504.38397834653733 8310.495256979924
505.4137541333221 8315.641951869084
506.4432674227228 8189.200736512369
507.4725182969323 8190.210895677845
508.5015068381035 8148.228784929374
509.53023312835467 8163.53421825843
510.55869724976765 8132.924444124057
511.58689928438434 8032.7654854536595
512.6148393142121 8122.50895057585
513.6425174212218 8082.391151513491
514.6699336873462 8098.005813286875
515.6970881944835 8214.225864853246
516.7239810244901 8104.639712368674
517.7506122591931 8152.131350494169
518.7769819803761 8184.292118259071
519.8030902697901 8211.587692597393
520.8289372091476 8265.539922856411
521.8545228801249 8352.252452353932
522.8798473643619 8255.961349528261
523.9049107434621 8272.914403649342
524.9297130989908 8320.43617739211
525.9542545124805 8330.777555887964
526.9785350654201 8260.31605892927
528.0025548392696 8321.311874593539
529.0263139154504 8177.41017624582
530.0498123753423 8273.347782320305
531.073050300296 8199.165810593731
532.0960277716204 8205.10541501366
533.1187448705896 8066.062653301988
534.1412016784416 8204.591976457294
535.1633982763833 8176.962069612151
536.1853347455726 8100.899961776144
537.2070111671401 8128.08073375897
538.2284276221817 8055.296939450959
539.2495841917516 7958.366363506155
540.2704809568677 7900.559121999332
541.2911179985167 7896.2672991656145
542.3114953976419 7875.195963259076
543.3316132351592 7810.04022994363
544.3514715919409 7829.805239500087
545.3710705488247 7834.677367147864
546.3904101866156 7772.817596470125
547.4094905860784 7850.109178459723
548.4283118279418 7793.133946369972
549.4468739929034 7831.9696714656475
550.4651771616191 7740.085956085747
551.4832214147063 7702.979011531196
552.501006832761 7770.340899639325
553.5185334963226 7780.619535219497
554.5358014859103 7759.695507561379
555.5528108820035 7760.42121343199
556.5695617650363 7652.696642862425
557.5860542154242 7779.046679087105
558.6022883135283 7692.744894699956
559.6182641396881 7735.81878529619
560.6339817741991 7690.631380581278
561.6494412973225 7787.351321417057
562.6646427892883 7736.918878084201
563.6795863302796 7717.157086646995
564.694272000459 7733.621381026465
565.7086998799423 7810.942300164728
566.7228700488104 7747.2676381791125
567.7367825871115 7680.953730636946
568.7504375748576 7765.30019521202
569.7638350920224 7753.144127982623
570.7769752185486 7733.892395772667
571.7898580343353 7653.51481052037
572.802483619258 7623.061080640246
573.8148520531431 7800.948737601578
574.8269634157932 7769.068930086617
575.8388177869692 7687.361012093463
576.8504152463938 7745.477809078764
577.8617558737587 7864.452442782802
578.8728397487175 7783.458558746113
579.883666950891 7785.976388859235
580.8942375598654 7849.890422962689
581.9045516551851 7904.700440576887
582.9146093163617 7982.326291683305
583.924410622878 7920.672843455215
584.9339556541727 7926.0967879630625
585.9432444896538 8093.978324759383
586.9522772086875 7986.49476534978
587.9610538906127 8055.682248435641
588.9695746147318 7930.464495960621
589.9778394603054 7984.988398648365
590.985848506567 7958.1525814657025
591.9936018327098 7948.9620562135215
593.0010995178891 7729.694370643377
594.0083416412344 7860.16913994941
595.0153282818283 7610.377609880849
596.0220595187293 7710.963379408099
597.0285354309508 7682.094983344007
598.0347560974806 7600.84746790429
599.0407215972609 7572.3375870027985
600.0464320092051 7544.544892562919
601.0518874121954 7609.840311930049
602.0570878850685 7484.231843503866
603.062033506636 7496.629739617814
604.0667243556636 7514.770777808881
605.0711605108936 7487.336634675054
606.0753420510264 7694.936852102413
607.0792690547278 7595.304510870752
608.082941600629 7572.39281798453
609.0863597673306 7572.114529469591
610.0895236333909 7626.773032705327
611.0924332773357 7761.695947303971
612.0950887776617 7722.759418950378
613.0974902128219 7765.384130097455
614.0996376612384 7937.679681757087
615.1015312013005 7952.708850403165
616.1031709113595 8068.9049234835375
617.1045568697336 7950.829365752839
618.1056891547069 8092.655199056093
619.1065678445229 8225.864152072443
620.1071930173985 8460.314326650436
621.1075647515099 8506.86507198092
622.1076831250048 8474.384415953997
623.1075482159849 8708.89152792467
624.1071601025305 8671.811006168959
625.1065188626781 8785.047515395447
626.105624574433 8995.660419159105
627.1044773157682 9002.958507005338
628.1030771646128 9061.223528305181
629.1014241988742 9087.179520152418
630.0995184964158 9259.682146972007
631.0973601350688 9232.841139807071
632.0949491926294 9396.574446165057
633.0922857468631 9207.536591332368
634.089369875499 9250.716548050736
635.0862016562278 9235.105967561722
636.0827811667077 9106.55980677182
637.0791084845641 9096.315962345838
638.0751836873878 8899.034383435717
639.0710068527369 8948.34387029603
640.0665780581294 8843.415759421769
641.0618973810506 8781.274318490907
642.0569648989604 8704.978782676397
643.0517806892676 8530.871965754282
644.0463448293649 8506.641466049698
645.040657396592 8403.68799468347
646.0347184682723 8300.240886942855
647.0285281216875 8140.917715200239
648.0220864340772 8186.445814302548
649.0153934826558 8052.905256476985
650.0084493446047 7939.109346290786
651.0012540970674 7932.704296494339
651.9938078171526 7842.830523054421
652.9861105819346 7758.185856360166
653.9781624684565 7860.711371755681
654.9699635537254 7693.803285009994
655.9615139147136 7787.912530892902
656.9528136283589 7611.556174729939
657.9438627715699 7664.083435495435
658.9346614212154 7596.491981303001
659.925209654135 7410.156501002634
660.9155075471263 7514.012472155753
661.9055551769616 7428.5634081823355
662.895352620375 7579.528644140922
663.8848999540678 7466.804027271241
664.8741972547068 7336.685354463552
665.863244598926 7329.797061475496
666.8520420633213 7313.9015185978715
667.8405897244611 7281.817266061133
668.8288876588758 7205.286105860413
669.8169359430613 7244.199038593832
670.8047346534822 7214.321101452139
671.7922838665672 7190.48038147931
672.7795836587156 7222.3640549992
673.766634106285 7368.339265890814
674.7534352856092 7106.923675184623
675.7399872729766 7253.939600367716
676.7262901446538 7310.421945678529
677.712343976862 7291.483992042311
678.6981488457986 7337.53258550046
679.6837048276229 7265.039314710322
680.6690119984596 7332.344599023423
681.6540704344043 7270.930811612394
682.6388802115107 7329.4002606212325
683.6234414058108 7278.195041423554
684.6077540932874 7224.010594790301
685.591818349907 7180.5479388947915
686.575634251587 7200.332616405617
687.5592018742263 7178.004267190093
688.5425212936734 7122.295032240722
689.5255925857564 7077.8191559033385
690.5084158262707 7073.013319814885
691.4909910909646 7151.825772701717
692.4733184555644 7033.097671306622
693.4553979957618 7151.247511269381
694.4372297872123 7075.255166247135
695.4188139055404 7104.253181318661
696.4001504263324 7055.249474043021
697.3812394251509 7131.281628597458
698.3620809775111 7048.084941659416
699.3426751589104 7098.872857794816
700.3230220448004 6934.231293549921
701.3031217106054 7014.366400316663
702.2829742317172 7211.763299168405
703.2625796834873 7070.3859331445665
704.2419381412474 7042.621234898956
705.22104968028 7154.790464656721
706.1999143758458 7133.974296165448
707.178532303169 7176.9609926461835
708.1569035374378 7176.870758572926
709.1350281538107 7264.011643172057
710.1129062274158 7321.109496267978
711.0905378333373 7487.889818172838
712.0679230466376 7478.663360782251
713.0450619423427 7731.160141995606
714.0219545954424 7745.843899158208
714.9986010808989 7850.690183875167
715.9750014736292 8024.080412459696
716.9511558485392 8201.233153034478
717.9270642804786 8291.931037884355
718.9027268442787 8470.155531616916
719.8781436147328 8414.764662275902
720.8533146666014 8415.844549456187
721.828240074612 8415.588525337911
722.8029199134635 8417.289514837388
723.7773542578125 8396.988735273362
724.751543182294 8243.952790253777
725.7254867615029 8179.952242944196
726.6991850700015 7999.594413224021
727.6726381823228 8018.740161338812
728.6458461729599 7944.0952516674415
729.6188091163858 7935.732334576389
730.5915270870246 7916.537409621626
731.5640001592856 7797.883101200486
732.536228407529 7986.772217407553
733.5082119060917 7941.0923857641665
734.4799507292755 7892.621293052643
735.4514449513481 7885.042708298366
736.4226946465496 8011.347018164472
737.3936998890786 7997.700292974264
738.3644607531078 7846.228543738644
739.3349773127793 7746.998891484599
740.3052496421951 7748.819785958307
741.27527781543 7637.22086544469
742.2450619065221 7482.935414027568
743.2146019894826 7423.299014396014
744.183898138288 7316.969565986702
745.1529504268801 7318.820521801489
746.1217589291682 7111.319162682038
747.0903237190341 7011.3204632296565
748.058644870318 7009.556798706681
749.0267224568397 6928.932776737532
749.994556552374 6829.708032964185
750.9621472306771 6815.312787761615
751.9294945654583 6803.900366702779
752.8965986304011 6838.833046210358
753.8634594991636 6731.245961128317
754.8300772453586 6848.2594624155245
755.7964519425768 6779.328969437645
756.762583664371 6841.5780745071
757.7284724842611 6831.956903386039
758.6941184757416 6703.647748417243
759.6595217122667 6787.139127104581
760.6246822672638 6760.589895124753
761.5896002141235 6680.146337895176
762.5542756262093 6704.035103624345
763.5187085768503 6773.5720616733015
764.4828991393406 6733.538434987412
765.4468473869474 6719.7759354354475
766.4105533929032 6718.705341245727
767.3740172304078 6640.976650495781
768.3372389726283 6721.162093294826
769.3002186926988 6610.076146915382
770.2629564637282 6576.744398964835
771.2254523587872 6640.862236699933
772.1877064509154 6541.948399405604
773.1497188131179 6506.1581623218835
774.1114895183728 6485.833825391715
775.0730186396268 6488.927948676383
776.0343062497905 6425.145116479623
776.9953524217381 6382.978678530051
777.9561572283274 6436.87285698869
778.9167207423689 6434.016296944449
779.8770430366476 6360.974603513416
780.8371241839159 6392.928955350809
781.7969642568951 6363.941348573056
782.7565633282757 6515.169767072185
783.7159214707099 6394.787489979435
784.6750387568281 6389.5282968293905
785.6339152592227 6425.874755974479
786.5925510504512 6426.892596830261
787.5509462030477 6446.63956554726
788.5091007895098 6453.614288213686
789.4670148823006 6488.729560317811
790.4246885538596 6446.683232081218
791.3821218765861 6438.495129746834
792.3393149228505 6384.443224582161
793.2962677649975 6533.463671520177
794.2529804753303 6507.487762931061
795.20945312613 6469.897599989225
796.1656857896378 6422.738142450126
797.1216785380675 6429.709800621887
798.0774314435985 6518.060366758685
799.0329445783846 6654.55243266021
799.9882180145414 6561.338076067344
800.9432518241574 6524.0571810328165
801.89804607929 6662.678724247565
802.852600851962 6727.069846929958
803.8069162141637 6623.886960634294
804.760992237856 6810.877442344841
805.714828994971 6716.261627745325
806.6684265574077 6784.704149115869
807.6217849970271 6708.933313454157
808.574904385674 6696.565644281902
809.527784795142 6740.905927096108
810.4804262972102 6781.115534359548
811.4328289636178 6644.6963748351245
812.3849928660748 6516.742600880136
813.3369180762638 6521.0259831062895
814.2886046658241 6551.439843336524
815.2400527063783 6453.082568003076
816.1912622695108 6394.83151974197
817.1422334267718 6423.4603701842
818.0929662496856 6446.327065678853
819.0434608097457 6324.648981615608
819.9937171784059 6260.988922688334
820.9437354271013 6183.142479997324
821.8935156272255 6369.578624172973
822.8430578501484 6130.637950491135
823.7923621672016 6091.134572082516
824.7414286496896 6176.603699964638
825.6902573688876 6171.696201195093
826.6388483960363 6130.3256166895035
827.5872018023492 6097.401587319978
828.5353176590033 6139.175674784046
829.4831960371503 6084.818037200875
830.4308370079016 6095.671453032829
831.3782406423525 6106.975726866483
832.3254070115545 6067.465653405123
833.2723361865319 5986.484880827471
834.2190282382799 6042.646112053365
835.1654832377644 6106.4315297023595
836.1117012559116 6050.028028538003
837.0576823636256 6233.298645975739
838.003426631778 6016.460824196288
838.9489341312074 5998.222138249241
839.8942049327197 6062.992861297379
840.8392391070975 6085.455291444384
841.7840367250865 6022.927313134091
842.7285978573982 6018.434962745336
843.672922574724 6116.932775191859
844.6170109477152 6041.403097188326
845.560863046996 6020.151867624736
846.5044789431595 6013.1452113226505
847.4478587067697 6073.419698367069
848.3910024083561 6137.272242583254
849.333910118421 6059.6859185385165
850.2765819074339 6017.3349492482275
851.2190178458332 6132.578712259219
852.161218004032 6104.7284545201965
853.1031824524016 6160.019387653455
854.0449112612987 6020.025414954626
854.9864045010327 6143.486317411092
855.9276622418947 5984.219810166984
856.8686845541379 6073.9672210059925
857.8094715079915 6047.762660210478
858.7500231736467 6140.286408727672
859.690339621271 6066.65488839706
860.6304209209939 6077.583413672373
861.5702671429244 5979.3129528084355
862.5098783571284 6057.678399040328
863.4492546336569 6078.3914935123585
864.3883960425155 6032.996229721972
865.3273026536863 6008.254223619136
866.2659745371238 6101.844505986226
867.2044117627465 6219.697938547695
868.1426144004472 6110.5133261363
869.0805825200823 6142.222193460437
870.0183161914847 6126.928198072399
870.9558154844526 6290.9244096004195
871.8930804687552 6232.57410831002
872.8301112141307 6224.34702745205
873.7669077902865 6283.263652006479
874.7034702669062 6327.60155512508
875.6397987136315 6288.802009793784
876.5758932000863 6278.834389848407
877.5117537958522 6412.997397879336
878.4473805704911 6410.772141036469
879.3827735935283 6252.2490027746835
880.3179329344603 6449.999768060114
881.2528586627541 6400.784258015232
882.1875508478479 6509.830782393884
883.1220095591489 6390.028063759455
884.0562348660296 6327.924733884999
884.9902268378391 6519.9278660678565
885.9239855438955 6363.088493140531
886.8575110534839 6281.437844817372
887.7908034358588 6366.313569232596
888.7238627602474 6336.11362390804
889.6566890958475 6311.752418826958
890.5892825118208 6226.858126641399
891.5216430773125 6272.595843748684
892.4537708614189 6208.335181089758
893.3856659332196 6150.769065543784
894.3173283617652 6099.343233999673
895.2487582160684 6057.709567467516
896.179955565116 6034.706984086955
897.110920477864 6035.949617763368
898.0416530232451 5961.388738914362
898.9721532701478 5950.737977847292
899.9024212874428 6143.668044048255
900.8324571439662 5888.968850000461
901.7622609085302 5899.238500078796
902.6918326499072 5804.210564247618
903.6211724368477 5943.855141428176
904.5502803380696 5979.071952110217
905.4791564222614 6040.277082527073
906.4078007580792 5876.864861672659
907.3362134141571 5971.066859565976
908.2643944590909 5972.640929732714
909.1923439614493 5916.505627009834
910.1200619897754 5810.78469463185
911.0475486125779 6017.444262704112
911.9748038983344 5917.6116827488195
912.9018279155007 5897.822436167322
913.8286207324982 5799.860330427755
914.7551824177117 5819.615826061609
915.6815130395116 5847.342812971925
916.6076126662283 5767.388252804912
917.533481366163 5827.802289378941
918.4591192075914 5915.61089871379
919.3845262587565 5853.864033990648
920.3097025878706 5851.46233938897
921.2346482631237 5828.288475617614
922.1593633526682 5796.480654422886
923.0838479246304 5798.324591881128
924.0081020471061 5841.576429400758
924.9321257881656 5764.41157422165
925.8559192158464 5806.928847579764
926.7794823981512 5729.573713666955
927.7028154030686 5721.691605935025
928.6259182985414 5688.05678207464
929.5487911524906 5830.289836445515
930.4714340328119 5786.688586135165
931.3938470073608 5661.711256373226
932.3160301439748 5757.358590804792
933.2379835104548 5757.359629539858
934.1597071745709 5809.027603393312
935.0812012040769 5784.845219552642
936.002465666681 5770.065870406712
936.9235006300696 5731.119580430365
937.8443061619055 5761.044267240792
938.7648823298077 5648.521407031705
939.6852292013809 5735.309863400276
940.6053468441951 5890.45419453863
941.5252353257874 5745.688491020403
942.4448947136698 5730.520226902748
943.364325075323 5707.5181176582755
944.2835264782043 5807.980219304423
945.2024989897309 5740.920291371718
946.1212426773054 5807.371876624913
947.0397576082851 5798.386693409096
947.9580438500125 5895.3831439841915
948.8761014697939 5878.889068373541
949.7939305349064 5844.521091854781
950.7115311125999 5826.423700719943
951.6289032700952 5804.104382325573
952.5460470745875 5872.525343787742
953.4629625932339 5812.24233974805
954.3796498931715 5956.139083408749
955.2961090415029 5859.561398287497
956.2123401053068 5875.726461282203
957.1283431516276 5867.368401647205
958.0441182474842 5782.649716065635
958.9596654598663 5858.323950121814
959.8749848557309 5765.878408965108
960.7900765020167 5797.61726916686
961.7049404656209 5744.897266755472
962.6195768134185 5762.766001304416
963.5339856122537 5759.552035234149
964.4481669289453 5801.445550315917
965.3621208302793 5796.524088815937
966.2758473830145 5785.621687238995
967.1893466538822 5887.5169808319515
968.1026187095813 5655.588276833363
969.0156636167867 5757.922668653371
969.9284814421426 5714.023913485553
970.8410722522622 5749.034901066776
971.753436113735 5645.1981887493985
972.6655730931161 5644.486913834251
973.5774832569368 5717.781453498829
974.4891666716958 5612.7459378850535
975.4006234038698 5608.98934916075
976.3118535198955 5642.70926724111
977.2228570861935 5770.338017153708
978.1336341691494 5700.269652695061
979.0441848351202 5656.774080705177
979.9545091504333 5662.335372508283
980.864607181391 5755.0121681261535
981.7744789942699 5775.47649990917
982.6841246553086 5725.342410076944
983.5935442307236 5758.545959555763
984.5027377867027 5716.820709332718
985.4117053894024 5816.01156853252
986.3204471049557 5660.7629807791345
987.2289629994648 5863.557399456147
988.1372531390007 5882.740759249551
989.0453175896091 5701.980601914793
989.9531564173067 5783.251482340516
990.860769688079 5723.531868376579
991.7681574678918 5829.403651797853
992.6753198226706 5907.940135630912
993.582256818323 5787.508042492987
994.4889685207218 5862.061029345555
995.3954549957143 6003.328223752613
996.301716309119 5988.838717904492
997.2077525267232 5976.776629405249
998.1135637142943 5898.260490293062
999.0191499375615 6009.212025361123
999.924511262232 5961.988117195737
1000.8296477539861 5980.917610873426
1001.7345594784656 5890.368783485626
1002.6392465012996 5897.671277495747
1003.5437088880753 5984.479216476584
1004.4479467043584 5865.430774339407
1005.3519600156869 5742.348889524461
1006.2557488875718 5870.918900322917
1007.1593133854858 5869.476040430036
1008.0626535748888 5767.526197460611
1008.9657695212009 5707.453712451598
1009.8686612898182 5874.65448006123
1010.7713289461135 5885.91765922432
1011.6737725554212 5824.424469910868
1012.5759921830577 5747.599574224216
1013.4779878943027 5890.016338901217
1014.379759754418 5834.692855332851
1015.2813078286254 5720.162095336998
1016.18263218213 5610.087335470949
1017.0837328801026 5748.876043735461
1017.9846099876886 5808.239733063774
1018.8852635700023 5654.683245077373
1019.7856936921362 5543.326029866512
1020.6859004191447 5816.483566972224
1021.5858838160675 5662.290321282918
1022.4856439479063 5595.762046537996
1023.3851808796389 5628.313537131943
1024.2844946762143 5623.820916006968
1025.183585402554 5616.557130985546
1026.082453123554 5518.598975428412
1026.9810979040776 5563.62568573687
1027.8795198089647 5519.043089765829
1028.777718903024 5626.949312785613
1029.6756952510368 5547.924502285179
1030.5734489177648 5505.235909445606
1031.4709799679313 5630.217329579252
1032.3682884662358 5647.688719619509
1033.2653744773506 5531.040092962456
1034.1622380659192 5511.306592664233
1035.058879296559 5630.97064083933
1035.9552982338591 5602.889888549802
1036.8514949423825 5617.459700113455
1037.7474694866614 5516.4038102945115
1038.6432219312028 5566.534979791797
1039.5387523404825 5619.329257434836
1040.4340607789582 5596.258533223261
1041.3291473110476 5619.337108708257
1042.2240120011465 5707.6539520052775
1043.1186549136273 5780.090560823502
1044.0130761128294 5679.2449116040425
1044.9072756630649 5711.134092399252
1045.8012536286205 5835.517446968046
1046.6950100737577 5795.35706701447
1047.588545062701 5872.330069985431
1048.481858659663 5779.875733096531
1049.3749509288118 5969.088649907044
1050.2678219343034 5844.040014494203
1051.1604717402515 5807.559723918746
1052.0529004107575 5759.028166968675
1052.9451080098825 5871.842851374277
1053.8370946016694 5823.045252975814
1054.7288602501267 5825.553013561358
1055.6204050192446 5840.211454652738
1056.511728972977 5902.433299472817
1057.402832175254 5789.964836825199
1058.2937146899785 5713.292896542636
1059.1843765810263 5693.318357291822
1060.0748179122456 5851.00811344509
1060.9650387474576 5794.743621925374
1061.855039150456 5772.319614378806
1062.7448191850071 5732.007998820232
1063.6343789148505 5721.36332259096
1064.5237184037014 5775.9643617712
1065.412837715241 5661.597800564027
1066.3017369131267 5708.690496717681
1067.190416060992 5715.943264073276
1068.0788752224398 5605.054334507646
1068.9671144610438 5612.469824941176
1069.8551338403558 5623.285380002234
1070.7429334239023 5730.328864644964
1071.6305132751695 5639.037745939679
1072.517873457633 5627.530397968372
1073.4050140347335 5671.04320400584
1074.2919350698776 5645.396995021788
1075.1786366264623 5571.417553290442
1076.0651187678395 5680.210812229433
1076.95138155735 5531.469897555917
1077.8374250582929 5486.963537264702
1078.7232493339507 5670.2546828377035
1079.608854447577 5575.0697165121965
1080.4942404623907 5488.9253639314165
1081.3794074415982 5581.903130737085
1082.2643554483657 5604.180020509309
1083.149084545841 5593.472170001994
1084.033594797138 5574.65726145332
1084.9178862653516 5594.202628239853
1085.8019590135427 5634.5061666459405
1086.6858131047484 5606.266998648885
1087.5694486019802 5705.311960455872
1088.4528655682225 5741.62420380274
1089.3360640664287 5775.118037737386
1090.2190441595321 5704.058619835765
1091.1018059104317 5845.884576387215
1091.98434938201 5805.712547313119
1092.866674637111 5809.586689884458
1093.748781738559 5830.07194885741
1094.6306707491512 5675.345591385823
1095.5123417316554 5763.639569404704
1096.3937947488157 5785.283654940309
1097.2750298633455 5748.492241423981
1098.156047137938 5707.7078684866465
1099.0368466352556 5746.437535793999
1099.9174284179317 5736.048500026283
1100.7977925485757 5646.127522924713
1101.6779390897755 5517.981397424966
1102.5578681040806 5672.364341382994
1103.4375796540226 5679.717395345481
1104.3170738021054 5570.191939294614
1105.1963506108077 5451.549281202478
1106.0754101425773 5478.805042569964
1106.9542524598382 5472.068036254194
1107.8328776249855 5503.71769670417
1108.7112857003904 5395.1130133477045
1109.5894767483987 5420.721884060077
1110.4674508313292 5497.040863045952
1111.3452080114657 5423.183857035582
1112.2227483510815 5505.531643283852
1113.1000719124077 5512.852292208329
1113.9771787576592 5634.184998652387
1114.854068949022 5562.39562979957
1115.7307425486542 5537.074381163365
1116.6071996186893 5688.826662168214
1117.483440221229 5764.722915702546
1118.3594644183577 5636.080718921371
1119.235272272128 5689.737506465642
1120.1108638445658 5817.667315122885
1120.9862391976712 5939.022479685172
1121.8613983934229 5860.610787233871
1122.7363414937627 5791.36658390385
1123.6110685606182 5909.360286733873
1124.485579655884 6122.165683101124
1125.359874841426 6074.645633394877
1126.2339541790916 6022.59378310109
1127.1078177306936 6158.510435042934
1127.9814655580267 6035.771894278448
1128.854897722851 6107.85202456092
1129.7281142869106 6153.812703578536
1130.6011153119125 6124.036953253083
1131.473900859548 6195.679667377289
1132.3464709914697 6088.133283059404
1133.2188257693178 6010.512101127945
1134.0909652546961 6038.007607873967
1134.96288950919 5976.03921110319
1135.8345985943506 6086.483614590297
1136.7060925717087 5978.468573350708
1137.57737150277 6000.050599367865
1138.4484354490069 5885.51316927442
1139.3192844718778 5826.158401058704
1140.1899186327992 5678.876887117397
1141.060337993178 5847.002970777865
1141.930542614382 5690.418790460082
1142.8005325577597 5767.644878617548
1143.670307884635 5535.690026574793
1144.5398686563003 5685.674537219125
1145.409214934025 5518.236516541767
1146.2783467790541 5449.5397881295685
1147.1472642526023 5446.183886276405
1148.0159674158622 5464.490549156811
1148.8844563300026 5405.245789635404
1149.7527310561618 5319.349815198094
1150.6207916554504 5309.543501484039
1151.4886381889592 5287.507404130341
1152.3562707177498 5343.0560097792495
1153.2236893028585 5291.065132452915
1154.090894005296 5157.251232755401
1154.9578848860474 5240.026160477429
1155.8246620060709 5188.090465116779
1156.6912254262988 5187.89344301904
1157.5575752076438 5179.1899541909115
1158.42371141098 5247.576590621953
1159.2896340971656 5209.325575982418
1160.1553433270346 5242.403750649621
1161.0208391613887 5151.310086714579
1161.8861216610057 5310.395763623581
1162.75119088664 5186.999241038071
1163.6160468990201 5082.094258742698
1164.4806897588442 5074.3595278134435
1165.3451195267917 5236.771378805099
1166.2093362635114 5241.063087951856
1167.0733400296285 5072.507537793926
1167.9371308857444 5070.985132629487
1168.8007088924278 5174.14353064904
1169.6640741102328 5168.406582472333
1170.5272265996773 5078.012559296022
1171.390166421259 5062.6523993744895
1172.252893635452 5127.789653419221
1173.1154083026995 5182.29086451193
1173.977710483421 5185.673971812673
1174.8398002380145 5000.474171735317
1175.7016776268483 5130.674880763085
1176.563342710264 5145.784447703282
1177.4247955485826 5032.765391379682
1178.2860362020947 5178.627944241326
1179.147064731069 5018.3864908070955
1180.0078811957483 5203.763441216967
1180.8684856563486 5026.666250829492
1181.7288781730604 5114.801324788181
1182.589058806052 5190.323923256765
1183.4490276154593 5310.022768870154
1184.3087846614017 5219.432031654767
1185.1683300039676 5204.358204990481
1186.027663703222 5399.746091721465
1186.8867858192025 5285.770360807099
1187.7456964119228 5326.600213423583
1188.6043955413716 5351.438352609143
1189.4628832675116 5507.651410920785
1190.3211596502842 5533.697628793469
1191.179224749596 5483.856008812242
1192.0370786253388 5514.220598048447
1192.8947213373758 5621.5539687137925
1193.7521529455407 5646.3085357441505
1194.6093735096438 5527.233503008596
1195.466383089477 5469.525695851061
1196.3231817447977 5610.505231483454
1197.1797695353398 5654.33300668714
1198.0361465208189 5513.670328681836
1198.8923127609214 5474.921063303338
1199.7482683153048 5594.403716534104
1200.6040132436028 5671.795640018347
1201.459547605431 5570.476972903543
1202.3148714603722 5407.563516162432
1203.1699848679855 5464.657871436538
1204.0248878878065 5565.992322400256
1204.8795805793507 5464.884697042565
1205.7340630020935 5537.890457391893
1206.5883352155033 5502.7318027650745
1207.4423972790064 5456.326111553669
1208.2962492520237 5330.185006198556
1209.1498911939307 5341.035020014632
1210.0033231640937 5420.066830461346
1210.8565452218427 5350.948731172541
1211.7095574264913 5276.070026093052
1212.5623598373222 5244.020678716399
1213.4149525135963 5268.225567672066
1214.2673355145507 5291.921757607737
1215.1195088993936 5111.546326602348
1215.9714727273113 5222.8139333882655
1216.8232270574663 5204.831158516625
1217.6747719489904 5056.376197125615
1218.5261074609934 5065.477927328362
1219.3772336525653 5095.662036398582
1220.2281505827668 5193.840344705772
1221.0788583106296 5150.48293378416
1221.9293568951707 5040.161646678869
1222.7796463953746 5010.806436961034
1223.629726870202 5100.541355158545
1224.4795983785934 5127.835736434485
1225.3292609794553 5056.387877323517
1226.1787147316809 4952.584715442548
1227.0279596941327 5093.203382271827
1227.8769959256424 5068.594996261845
1228.7258234850306 5107.622091025266
1229.5744424310833 4914.726993373011
1230.422852822563 5060.023200113924
1231.2710547182105 5160.020465362697
1232.119048176739 4981.799811758807
1232.9668332568417 4906.387454213369
1233.8144100171812 5097.684058306086
1234.6617785163999 5062.065153674971
1235.508938813111 4901.094820798777
1236.3558909659114 4898.354780980953
1237.2026350333617 5045.124829341859
1238.049171074008 5140.656571300553
1238.8954991463652 4996.033253943724
1239.741619308932 4957.395258520204
1240.587531620169 5115.588419320506
1241.4332361385277 5073.328466734489
1242.2787329224248 4902.288427780069
1243.1240220302534 4833.459542916479
1243.9691035203869 4884.558276355214
1244.813977451171 5052.225431679465
1245.6586438809263 5034.719501280807
1246.5031028679496 4763.780149196374
1247.3473544705157 5058.231132453226
1248.1913987468706 4962.726440280494
1249.0352357552383 4869.792731977864
1249.8788655538228 4895.663610264786
1250.7222882007918 4952.0702626239345
1251.565503754302 4938.499971681549
1252.4085122724755 4889.567925285149
1253.2513138134182 5009.021631101467
1254.0939084352049 4957.310755844459
1254.9362961958905 4956.6735569039965
1255.7784771535007 4985.062862032311
1256.6204513660432 4979.523009476057
1257.4622188915 5197.139658125664
1258.3037797878242 5061.619289374389
1259.1451341129468 5018.92925945747
1259.9862819247755 5021.3451917940065
1260.8272232811978 5057.293372810745
1261.6679582400666 5155.787439931275
1262.5084868592203 4986.98930157673
1263.34880919647 4941.057181814122
1264.1889253095997 5018.4006007127955
1265.0288352563712 5108.777556262499
1265.8685390945266 4999.669639628428
1266.7080368817751 5029.116307237305
1267.5473286758115 5077.066937912476
1268.386414534294 5055.850114308807
1269.2252945148703 4849.723532753346
1270.0639686751547 4957.827766142084
1270.9024370727402 4961.972930188678
1271.7406997651997 4883.375707895242
1272.5787568100714 4959.744076388276
1273.4166082648808 4899.3730003741175
1274.2542541871244 5019.705732801505
1275.091694634275 5033.65938482936
1275.9289296637817 4875.622462683435
1276.7659593330663 4925.503840440349
1277.6027836995308 5005.149955765182
1278.4394028205552 5025.652271916199
1279.2758167534867 4849.820887070702
1280.112025555658 5019.2296468791055
1280.9480292843746 5019.999388451608
1281.7838279969128 4926.489882133653
1282.6194217505326 4884.334974672823
1283.4548106024686 4847.94223778463
1284.289994609926 4903.080764228839
1285.1249738300921 4990.556454043121
1285.959748320127 4811.337928763674
1286.7943181371702 4939.597474087046
1287.6286833383328 4860.371450042383
1288.4628439807038 4953.79324877097
1289.2968001213521 4948.427887056785
1290.1305518173194 4936.136570552187
1290.9640991256183 4972.835800753764
1291.7974421032523 4892.585126702278
1292.630580807183 4956.211649698489
1293.463515294361 5026.787444177504
1294.29624562171 5060.007587775264
1295.12877184613 4947.789931994546
1295.961094024493 5102.413604788658
1296.79321221365 5011.743988818255
1297.6251264704333 5135.543075849414
1298.4568368516466 5299.655224988012
1299.2883434140658 5145.015152767126
1300.1196462144526 5046.142987311584
1300.9507453095375 5221.628779359854
1301.7816407560313 5133.155691731886
1302.6123326106172 5219.105681804624
1303.4428209299622 5107.108290841267
1304.2731057707024 5247.020401238959
1305.1031871894502 5031.05494645347
1305.933065242798 5233.973947834043
1306.7627399873181 5291.7787665763735
1307.5922114795467 5426.117106394193
1308.4214797760123 5349.839001779999
1309.2505449332057 5225.687436978542
1310.0794070076026 5380.992801477587
1310.9080660556538 5391.874168128112
1311.736522133786 5457.3593874827675
1312.5647752983987 5338.847460564007
1313.3928256058734 5313.102279314682
1314.2206731125661 5451.3464023799725
1315.048317874809 5410.9392537154135
1315.8757599489109 5373.013680604817
1316.7029993911547 5388.516321843573
1317.5300362578055 5578.74778136186
1318.356870605101 5342.447029052298
1319.183502489257 5351.581430460204
1320.0099319664623 5476.700232562734
1320.836159092889 5458.871997648185
1321.66218392468 5454.349438080907
1322.4880065179532 5459.126426116888
1323.3136269288134 5413.289575885344
1324.1390452133292 5489.45585621715
1324.9642614275563 5397.470740406061
1325.7892756275214 5476.378241994196
1326.6140878692295 5330.113679828855
1327.4386982086617 5657.79383389584
1328.2631067017755 5576.920764447265
1329.0873134045069 5432.293044162539
1329.911318372764 5296.856255680597
1330.735121662441 5341.5701520682505
1331.558723329399 5319.5378857253945
1332.3821234294774 5317.76534555146
1333.2053220185007 5222.051311017497
1334.0283191522612 5244.145575077497
1334.851114886529 5288.352947905197
1335.6737092770582 5183.74387351585
1336.4961023795695 5191.143614790718
1337.3182942497697 5195.105557183933
1338.1402849433325 5289.272742168673
1338.962074515921 5058.777071730228
1339.7836630231632 4936.284752103133
1340.6050505206676 5161.833886012888
1341.426237064028 5175.636024143423
1342.2472227088037 5275.227070199451
1343.0680075105338 4858.014813522938
1343.888591524741 4861.792218295697
1344.7089748069138 5027.104108685612
1345.5291574125276 4868.809291458353
1346.3491393970307 4756.9281063612125
1347.168920815846 4923.540038373509
1347.9885017243778 4982.8589199907565
1348.8078821780036 4768.302900967681
1349.6270622320844 4901.324210991513
1350.4460419419447 4853.862838677862
1351.2648213629054 4812.536245920154
1352.0834005502438 4669.495141108271
1352.90177955923 4773.545107020981
1353.7199584451064 5092.369715282887
1354.5379372630887 4785.942186106811
1355.355716068374 4603.614414849852
1356.1732949161305 4689.579974122752
1356.9906738615155 4807.27023300013
1357.8078529596478 4802.675805923117
1358.6248322656375 4789.838960813147
1359.441611834567 4595.925958260547
1360.2581917214866 4796.52539347308
1361.0745719814367 4618.161941897635
1361.890752669433 4620.633087237902
1362.7067338404577 4624.6160550125
1363.5225155494845 4823.233865933336
1364.3380978514506 4799.687252357976
1365.1534808012839 4582.971305894108
1365.9686644538815 4525.554222694142
1366.783648864117 4714.721377795553
1367.5984340868417 4714.312461516917
1368.413020176893 4688.8243161334485
1369.2274071890715 4503.336919551977
1370.0415951781652 4787.532597226073
1370.8555841989346 4720.532918985439
1371.6693743061223 4527.723086648923
1372.48296555444 4598.504655793016
1373.2963579985844 4722.520583171257
1374.1095516932255 4612.725445398764
1374.9225466930166 4532.65441012357
1375.7353430525782 4524.543033587629
1376.5479408265164 4544.7563376683775
1377.36034006941 4616.303159028582
1378.1725408358216 4616.3687038095595
1378.9845431802805 4498.289052226344
1379.796347157304 4741.721904250487
1380.6079528213813 4702.798710904079
1381.4193602269788 4538.482765719209
1382.230569428546 4475.787201713894
1383.0415804805016 4794.29620750623
1383.852393437246 4721.996612074611
1384.6630083531563 4741.963618128741
1385.4734252825892 4565.835665397639
1386.2836442798798 4611.987452362182
1387.0936653993322 4598.950833556056
1387.9034886952395 4505.637309597456
1388.713114221864 4734.60778461796
1389.5225420334482 4637.847578302552
1390.331772184214 4615.272655812415
1391.1408047283585 4524.136316531853
1391.9496397200564 4529.927637221927
1392.758277213461 4717.51338769317
1393.5667172627054 4658.467810528233
1394.3749599218918 4496.133690031594
1395.1830052451114 4417.871189361802
1395.9908532864265 4570.265232577721
1396.7985040998774 4700.554322255482
1397.6059577394808 4417.729738428405
1398.4132142592352 4567.022176250518
1399.2202737131156 4430.209510456709
1400.027136155073 4544.725952095651
1400.8338016390353 4506.337355044889
1401.6402702189134 4444.4609385781905
1402.446541948586 4417.148768909619
1403.2526168819204 4456.505212762395
1404.058495072757 4530.595400280109
1404.8641765749107 4418.039929871157
1405.6696614421799 4511.7583046921
1406.4749497283356 4713.570624235642
1407.280041487129 4394.740297396138
1408.084936772295 4204.5573949328555
1408.8896356375335 4516.166057070072
1409.6941381365323 4467.230373019295
1410.498444322955 4272.56477136881
1411.3025542504402 4340.1197330817395
1412.106467972606 4411.743763009466
1412.9101855430508 4386.974577877567
1413.7137070153458 4257.798933310225
1414.5170324430437 4293.9864673443135
1415.320161879672 4422.160149221296
1416.1230953787435 4541.082693138494
1416.925832993742 4231.313334583688
1417.7283747781275 4346.057726439287
1418.5307207853439 4342.030959399597
1419.3328710688093 4372.248771494994
1420.134825681922 4259.733748466394
1420.9365846780584 4306.242971750876
1421.7381481105713 4447.373253725717
1422.539516032788 4411.365987368356
1423.3406884980232 4293.230492277465
1424.1416655595604 4277.379346534266
1424.942447270665 4408.625411302817
1425.7430336845828 4432.492059908061
1426.5434248545298 4278.76967440975
1427.3436208337116 4420.302866051533
1428.143621675301 4504.9842481121195
1428.9434274324558 4567.953066754983
1429.7430381583108 4337.237572381451
1430.5424539059713 4396.8233711913
1431.3416747285337 4817.894927609102
1432.1407006790632 4561.522983211964
1432.9395318106053 4538.290649946939
1433.7381681761835 4469.301774370153
1434.5366098288014 4364.498564627259
1435.3348568214424 4538.386097945649
1436.1329092070573 4432.018394573083
1436.9307670385879 4400.625132439211
1437.7284303689503 4505.67050372794
1438.5258992510335 4666.538895402401
1439.3231737377118 4576.412210906179
1440.1202538818306 4403.878901916051
1440.9171397362225 4532.081595678142
1441.7138313536925 4532.583473663327
1442.5103287870243 4394.641604510215
1443.3066320889775 4379.678721339489
1444.1027413122956 4553.747487358585
1444.8986565096966 4332.782278649336
1445.694377733882 4426.106228115378
1446.4899050375207 4339.408942619502
1447.2852384732687 4272.38676301429
1448.0803780937622 4483.542680556629
1448.8753239516063 4314.361434807897
1449.6700760993954 4150.474224251351
1450.464634589689 4249.859518211714
1451.2589994750397 4391.356565844653
1452.0531708079689 4195.129909444464
1452.8471486409799 4156.6472311001435
1453.6409330265524 4365.756473220163
1454.4345240171442 4286.798351567316
1455.2279216651987 4208.289229380089
1456.0211260231263 4273.765369490449
1456.8141371433194 4279.166807314954
1457.6069550781594 4295.057644462063
1458.3995798799897 4153.8814693712775
1459.1920116011424 4096.093438889904
1459.98425029393 4114.875120614268
1460.7762960106338 4115.037118546248
1461.5681488035225 4131.997599902931
1462.3598087248392 4137.242128689334
1463.1512758268036 4173.867121582081
1463.942550161617 4158.026721276594
1464.7336317814625 3992.2541802667074
1465.524520738496 4094.7194455457457
1466.3152170848552 3890.145908627516
1467.1057208726506 3977.474307411695
1467.8960321539817 3893.5148811701715
1468.6861509809169 3776.543693324038
1469.4760774055085 3804.4473123037433
1470.265811479785 4015.516429524266
1471.055353255755 3818.7267652233627
1471.844702785409 3927.1121866889903
1472.6338601207044 3770.4706484071585
1473.4228253135934 4361.99881678619
1474.2115984159936 3778.9253213092547
1475.0001794798063 3571.445367276102
1475.7885685569145 3878.921710425173
1476.576765699172 3861.0987384102978
1477.3647709584238 3766.2025694896415
1478.1525843864802 3861.4093341037747
1478.9402060351367 3878.775277623578
1479.7276359561693 3814.5330561073242
1480.514874201328 3718.7183484630345
1481.3019208223468 3661.591265510152
1482.0887758709323 3659.850211012591
1482.8754393987747 3884.465248857666
1483.6619114575406 3595.990272146601
1484.4481920988783 3754.0576410656854
1485.2342813744108 3882.212125075717
1486.0201793357446 3808.0312624812495
1486.8058860344572 3722.617035499434
1487.591401522117 3685.2415503314705
1488.3767258502594 3729.7995137176827
1489.1618590704056 3732.290345331364
1489.9468012340494 3613.571450460815
1490.7315523926754 3781.3130424502842
1491.5161125977356 3839.133221636188
1492.3004819006637 3704.609944657256
1493.084660352877 3709.860034559587
1493.8686480057622 3781.2337606850515
1494.6524449106964 3911.702195710982
1495.4360511190262 3899.037593385229
1496.219466682087 3666.5777901184206
1497.0026916511779 3849.157864948525
1497.7857260775945 3685.748247625841
1498.5685700125996 3687.2627459776386
1499.3512235074395 3694.180303435352
1500.133686613337 3711.914247037473
1500.9159593814966 3627.255904088749
1501.698041863101 3964.789608466802
1502.4799341093094 3578.0175240308176
1503.2616361712662 3595.651454355038
1504.043148100087 3745.772229897559
1504.8244699468742 3766.4286113683947
1505.6056017626997 3666.9412901995775
1506.3865435986281 3503.5852028806376
1507.1672955056893 3729.791224785841
1507.9478575348967 3588.755326887071
1508.7282297372512 3718.2685870596533
1509.5084121637192 3577.4109189247783
1510.2884048652577 3623.8553460491094
1511.0682078927948 3604.5573555140027
1511.8478212972423 3547.827398162174
1512.6272451294917 3482.1058829628228
1513.4064794404076 3635.2313299061416
1514.1855242808433 3678.8088743476933
1514.9643797016215 3653.522416093787
1515.743045753552 3647.0218767916695
1516.5215224874191 3782.3626476190993
1517.2998099539836 3533.272242582395
1518.077908203999 3623.4381487301007
1518.8558172881785 3628.662914817863
1519.633537257234 3749.4097670634087
1520.4110681618404 3691.7284288563133
1521.1884100526604 3730.002037359849
1521.9655629803365 3667.5533500867505
1522.7425269954856 3854.588298221922
1523.5193021487103 3840.4578391226705
1524.2958884905856 3567.691513817019
1525.0722860716687 3609.5813966984415
1525.848494942502 3671.106849697313
1526.624515153595 3669.4115947226846
1527.4003467554485 3687.9531344026154
1528.175989798534 3694.199089109499
1528.9514443333064 3697.344423626246
1529.726710410203 3891.3116463344704
1530.5017880796331 3574.143508754793
1531.276677391992 3609.124735331939
1532.0513783976457 3813.1080858727446
1532.825891146953 3655.5323284674514
1533.6002156902414 3736.093315773732
1534.3743520778207 3766.03684643806
1535.1483003599806 3743.474410361593
1535.9220605869923 3676.4363553557887
1536.6956328091019 3690.5766579829615
1537.4690170765407 3769.3854401597164
1538.242213439511 3780.33527694051
1539.015221948208 3796.4377714247303
1539.78804265279 3644.9841466726916
1540.560675603405 3555.427571087114
1541.3331208501804 3874.285498518214
1542.1053784432224 3815.557367558853
1542.8774484326168 3768.997593989066
1543.649330868422 3703.5239602935508
1544.4210258006842 3750.817717392598
1545.1925332794308 3681.546824911774
1545.9638533546604 3632.3767529642946
1546.7349860763552 3505.880528802444
1547.5059314944829 3769.861768916731
1548.27668965898 3714.515078456688
1549.0472606197673 3807.73796588359
1549.817644426752 3566.719025855152
1550.5878411298072 3759.1932060675194
1551.3578507787988 3730.6521620672183
1552.1276734235635 3623.991052107432
1552.8973091139233 3781.6485484743034
1553.6667578996767 3789.567690089147
1554.436019830604 3849.860578594292
1555.20509495646 3682.184192998963
1555.9739833269869 3615.1846654799797
1556.7426849919011 3676.9006996276657
1557.511200000903 3991.6582220129667
1558.2795284036674 3801.7034829064164
1559.0476702498509 3778.6961524812796
1559.8156255890954 3914.8483782183453
1560.5833944710157 3857.0946191080066
1561.3509769452048 3672.4925686015317
1562.1183730612447 3670.9949392672097
1562.8855828686865 3844.1439802415844
1563.6526064170703 3902.6485635704566
1564.4194437559127 3925.174026139832
1565.1860949347047 3673.4582717081103
1565.9525600029283 3825.6042620541884
1566.7188390100328 3941.5262309720065
1567.4849320054564 3774.548518309187
1568.250839038612 3737.087114278027
1569.0165601588997 3823.0939253404185
1569.7820954156887 3980.887877221081
1570.5474448583373 3840.666267011904
1571.31260853618 3685.3153194666543
1572.0775864985299 3668.003615404346
1572.8423787946813 3812.938166707098
1573.6069854739108 3745.681459137667
1574.371406585471 3804.9791170418744
1575.1356421785986 3869.9193269135612
1575.899692302506 3894.7125300203115
1576.6635570063845 3800.31904927964
1577.4272363394157 3820.666916802059
1578.190730350747 3816.6529880937014
1578.9540390895163 3902.9459439039347
1579.7171626048384 3639.5096158510014
1580.480100945806 3653.097485460693
1581.2428541614918 3797.302574180076
1582.0054223009538 3754.708251139891
1582.767805413223 3873.4815707531175
1583.5300035473156 3729.3287902962124
1584.292016752228 3884.7825411360027
1585.0538450769309 3756.930490816207
1585.8154885703807 3613.7966853262615
1586.5769472815136 3613.2915496404225
1587.3382212592405 3774.085331819127
1588.099310552463 3802.0251488230483
1588.8602152100484 3423.1893727746146
1589.6209352808564 3882.469421184177
1590.3814708137234 3763.467176440326
1591.14182185746 3274.098849441946
1591.9019884608679 3719.0526901053468
1592.6619706727215 3575.9389712724033
1593.4217685417734 3733.690470351133
1594.1813821167616 3929.1718368832057
1594.9408114464022 3537.780467985157
1595.7000565793933 3656.7670056045527
1596.459117564409 3757.414755908199
1597.2179944501113 3678.473111610816
1597.9766872851324 3638.5630493593467
1598.735196118092 3705.9571649467916
1599.4935209975883 3719.3468067906224
1600.2516619721973 3795.933166793247
1601.0096190904787 3561.706416264169
1601.7673924009723 3675.7181767131747
1602.524981952196 3651.026678319442
1603.2823877926476 3601.565411139532
1604.0396099708087 3475.954263066594
1604.7966485351371 3589.084561885718
1605.5535035340745 3506.229916502302
1606.3101750160404 3821.3113622363453
1607.0666630294363 3584.0880276263824
1607.822967622642 3363.844714786188
1608.5790888440224 3619.647572127761
1609.3350267419137 3674.343088425006
1610.0907813646445 3549.6349338192376
1610.8463527605145 3594.5510138656073
1611.601740977805 3664.7635689368935
1612.356946064785 3548.1026461414926
1613.1119680696902 3337.5863678230644
1613.8668070407512 3397.6372145921787
1614.6214630261748 3520.7841708162305
1615.375936074137 3463.0105667989665
1616.1302262328118 3521.178170389702
1616.8843335503425 3570.5596492641657
1617.638258074854 3427.250549538238
1618.391999854457 3499.246403117098
1619.1455589372363 3534.3893477847205
1619.8989353712623 3599.279483877993
1620.65212920458 3295.0367131192797
1621.4051404852235 3524.6933514976276
1622.1579692611976 3506.245210540703
1622.9106155804966 3383.8968833483
1623.663079491087 3488.1162846486027
1624.4153610409248 3524.618124624079
1625.1674602779385 3412.864471704521
1625.9193772500403 3296.667582999938
1626.6711120051277 3673.142915764387
1627.4226645910676 3544.0195009541467
1628.174035055721 3258.437070647208
1628.9252234469168 3400.627394663689
1629.676229812474 3377.2910530117106
1630.4270542001905 3844.5571959001745
1631.1776966578382 3488.8421424285093
1631.9281572331747 3391.104060491273
1632.678435973945 3494.0277947700606
1633.4285329278573 3504.7281190292206
1634.1784481426203 3402.5108410871317
1634.9281816659113 3589.045808915045
1635.677733545388 3696.7302459603234
1636.4271038286934 3485.2067147391035
1637.176292563452 3408.6554444112467
1637.9252997972635 3549.492247864401
1638.674125577716 3629.9017378444464
1639.4227699523672 3817.5306231611203
1640.171232968767 3438.888816414241
1640.9195146744423 3618.046515276169
1641.6676151168977 3731.578710491334
1642.4155343436178 3753.696263464113
1643.1632724020765 3673.0011842798403
1643.9108293397167 3719.8474353349475
1644.658205203974 3614.065306837378
1645.4054000422566 4029.6383549232205
1646.1524139019566 3605.922475947716
1646.8992468304423 3578.3739109809394
1647.6458988750728 3643.92612011413
1648.3923700831765 3738.6071940456254
1649.1386605020743 3724.4318994845817
1649.8847701790564 3809.3795457176557
1650.6306991614038 3726.71403856579
1651.3764474963682 3708.6469641599424
1652.1220152311944 3541.22987988439
1652.867402413096 3728.0306496335825
1653.6126090892776 3514.9265971843
1654.3576353069184 3865.5235213460073
1655.1024811131829 3664.1604977980155
1655.8471465552066 3698.4591486684353
1656.5916316801213 3820.0971547453437
1657.3359365350298 3636.0527317687474
1658.0800611670165 3633.4060041317816
1658.824005623148 3655.4791537246333
1659.5677699504722 3520.2734909144665
1660.3113541960192 3564.2850301137673
1661.054758406799 3708.1120514390664
1661.7979826297997 3453.6789531619206
1662.5410269119966 3389.895731777792
1663.283891300338 3542.8318556072472
1664.0265758417645 3525.911838517838
1664.7690805831826 3517.9246633714565
1665.5114055714948 3731.0406345578876
1666.2535508535748 3753.926388146584
1666.9955164762814 3307.537837270859
1667.7373024864555 3360.0092527786933
1668.478908930916 3679.8392800389242
1669.220335856462 3292.5434582209964
1669.9615833098778 3357.944647576206
1670.7026513379296 3243.4455754402857
1671.44353998736 3422.692045540693
1672.1842493048916 3551.7588233340625
1672.9247793372379 3221.651581515233
1673.6651301310812 3429.0327058211674
1674.4053017330934 3227.357182965258
1675.1452941899242 3362.061930069227
1675.885107548207 2952.8323030334295
1676.6247418545518 3161.385571587836
1677.3641971555535 3258.4487578281555
1678.1034734977893 3329.661415540856
1678.8425709278108 3259.3012622862857
1679.5814894921605 3311.463061390702
1680.320229237359 3126.18116528922
1681.0587902098978 3386.6311495001137
1681.7971724562685 3167.031045216651
1682.5353760229264 3127.2086643455095
1683.2734009563173 3147.160340062278
1684.0112473028657 3115.199344007544
1684.7489151089794 3178.546519887731
1685.4864044210462 3216.779472116836
1686.2237152854377 2952.3368990600948
1686.960847748498 3232.3885392940124
1687.6978018565642 2967.882330249719
1688.434577655944 2907.420074468902
1689.1711751929379 3066.718365754457
1689.9075945138156 3157.3933132845527
1690.6438356648396 3004.7998922433044
1691.3798986922448 2766.759595424954
1692.1157836422499 3034.069493105712
1692.851490561059 2954.858697549449
1693.587019494853 2989.7458037084634
1694.3223704897991 2838.448407631127
1695.0575435920364 2799.17895726645
1695.792538847696 3132.1409216488973
1696.527356302886 2919.59934580476
1697.2619960036936 2752.136384480135
1697.9964579961907 2999.920204881385
1698.730742326432 2590.987833276585
1699.4648490404488 2575.5271631636824
1700.1987781842563 2771.0496489823754
1700.9325298038548 2997.634049743168
1701.6661039452174 3013.349149206443
1702.3995006543082 2800.2457335495646
1703.1327199770658 2872.6057057865005
1703.865761959416 2723.3005686886527
1704.598626647261 2955.5596715748975
1705.3313140864866 2718.072867525733
1706.0638243229587 2723.35938635953
1706.7961574025303 2903.429394000814
1707.528313371029 2810.7690309057175
1708.260292274268 2559.8026319684454
1708.9920941580403 2803.4420743564274
1709.7237190681226 2710.7266148180415
1710.4551670502697 2793.8305347654737
1711.18643815022 2441.5023612236714
1711.9175324136959 2874.0627814520694
1712.6484498863938 2539.1815045799567
1713.379190614005 2522.9953144409174
1714.109754642188 2776.4241320353735
1714.8401420165883 2540.885268342147
1715.570352782839 2493.243996705852
1716.3003869865497 2812.510526871428
1717.0302446733076 2560.3391718670964
1717.7599258886876 2658.086012401223
1718.4894306782444 2853.7055390722185
1719.2187590875183 2610.4565149494383
1719.9479111620203 2610.436070121942
1720.6768869472544 2611.1552796454675
1721.4056864887025 2823.0488674039343
1722.1343098318284 2940.9020942283255
1722.8627570220742 2651.6845166348776
1723.591028104871 2536.8546216754894
1724.3191231256242 2444.2911691350264
1725.0470421297232 2635.6644886600143
1725.7747851625427 2681.1557585236415
1726.5023522694337 2659.479495280101
1727.2297434957363 2526.8482743392783
1727.9569588867635 2451.236383656268
1728.6839984878152 2568.5851742273526
1729.4108623441734 2304.39992462846
1730.1375505011038 2650.897795039731
1730.8640630038426 2556.9890412973123
1731.5903998976264 2458.7507115509766
1732.316561227657 2732.342958476312
1733.0425470391274 2420.93855829565
1733.7683573772065 2563.4610320329566
1734.4939922870508 2467.7906852962556
1735.2194518137949 2558.9326691192355
1735.9447360025606 2541.2527691840373
1736.669844898439 2495.1413925528586
1737.3947785465189 2538.017055654582
1738.1195369918605 2368.438437277875
1738.8441202795093 2450.6032746190094
1739.5685284544943 2537.291760433536
1740.292761561821 2484.6420726215447
1741.0168196464838 2558.938431410142
1741.7407027534518 2472.3446725938543
1742.464410927687 2859.5333657374367
1743.187944214118 2388.706608441039
1743.9113026576688 2454.8436297677445
1744.634486303241 2531.992864270297
1745.3574951957125 2428.723848288418
1746.0803293799509 2522.4796028674255
1746.8029889008048 2299.1294746490285
1747.5254738031017 2619.887701113511
1748.2477841316504 2364.67912240181
1748.969919931249 2456.6938940022387
1749.6918812466665 2345.451732571444
1750.4136681226646 2610.2966971157957
1751.1352806039777 2470.35019050293
1751.856718735331 2384.4996808177684
1752.5779825614281 2420.500473502714
1753.2990721269507 2449.6670832222885
1754.0199874765676 2621.39103989283
1754.7407286549314 2280.6323293520627
1755.4612957066693 2404.004386238224
1756.1816886763954 2416.5165148340266
1756.9019076087097 2503.032822254206
1757.6219525481865 2508.041857464319
1758.3418235393856 2421.1828451280144
1759.061520626854 2554.0689665474156
1759.7810438551096 2629.7215416053023
1760.5003932686614 2376.9269201001275
1761.2195689119999 2588.1797531252005
1761.938570829594 2354.059787441335
1762.657399065898 2333.3701555951943
1763.376053665348 2301.0331177821527
1764.0945346723602 2286.130947793414
1764.812842131334 2556.1635012633496
1765.5309760866512 2330.7728024473117
1766.2489365826787 2440.8425952208772
1766.9667236637597 2471.563965723509
1767.684337374223 2228.4612514719292
1768.401777758383 2260.0195894649346
1769.1190448605284 2278.2793636015695
1769.836138724937 2249.913311115051
1770.5530593958665 2440.416484066446
1771.2698069175603 2489.236231535821
1771.9863813342326 2523.813251145258
1772.702782690094 2428.6460767446974
1773.4190110293293 2525.075782416465
1774.1350663961111 2532.1835806560257
1774.8509488345844 2374.7143139092873
1775.5666583888924 2430.8090942763542
1776.2821951031437 2546.7897960629507
1776.9975590214362 2387.812158091579
1777.7127501878585 2703.938621119963
1778.4277686464684 2448.8818666828784
1779.1426144413108 2586.2565604425904
1779.8572876164162 2538.7438734774905
1780.571788215797 2373.2934766979124
1781.2861162834415 2394.0739476536774
1782.0002718633277 2367.4993680916205
1782.7142549994132 2351.328643617867
1783.4280657356376 2385.01035308419
1784.141704115922 2285.5066467577344
1784.855170184177 2383.4674389473157
1785.5684639842839 2399.8230117420067
1786.2815855601148 2242.268545833579
1786.9945349555237 2465.5635012059106
1787.707312214343 2229.3547024829045
1788.4199173803918 2411.081770154427
1789.132350497468 2371.897847945181
1789.8446116093583 2355.5861072877956
1790.556700759822 2467.01891109816
1791.2686179926077 2040.130712740561
1791.9803633514493 2390.275667811788
1792.6919368800554 2201.303477167642
1793.4033386221236 2488.6562499471556
1794.1145686213295 2338.500242965509
1794.8256269213307 2534.8837575572857
1795.536513565774 2481.849862270065
1796.247228598284 2171.2532155725776
1796.9577720624693 2308.108816452623
1797.6681440019165 2323.621529467871
1798.3783444602013 2292.2183922502213
1799.0883734808776 2354.5002857872355
1799.7982311074884 2405.2313820382305
1800.5079173835475 2172.237282399531
1801.2174323525633 2427.280601025849
1801.9267760580187 2331.5817236774697
1802.635948543386 2365.3837311539264
1803.3449498521113 2297.4366983586365
1804.0537800276325 2389.0529673794385
1804.7624391133668 2267.1604427234643
1805.47092715271 2218.8750464708164
1806.1792441890484 2179.699275834163
1806.8873902657433 2321.378342272415
1807.5953654261448 2294.787797223911
1808.3031697135812 2249.915677212588
1809.0108031713662 2345.4719589622987
1809.71826584279 2352.925686516114
1810.425557771141 2213.7847896117155
1811.1326789996747 2759.065103379605
1811.839629571632 2453.8753825477584
1812.5464095302468 2226.6173924782875
1813.2530189187182 2423.6739429541412
1813.959457780249 2276.1473094946564
1814.6657261580076 2373.940866094562
1815.371824095153 2240.4544775109725
1816.0777516348262 2315.815602365283
1816.78350882015 2086.9898122512113
1817.4890956942272 2046.2235657213769
1818.1945123001533 2288.360305720121
1818.8997586809928 2340.7179837283047
1819.6048348798067 2275.0029930047194
1820.3097409396287 2274.561453615695
1821.0144769034796 2356.234233550998
1821.7190428143622 2329.6154464279743
1822.423438715261 2516.9004490811794
1823.1276646491478 2301.103459099291
1823.8317206589727 2347.9731091528192
1824.5356067876692 2210.7753505210553
1825.2393230781581 2242.3757981557524
1825.942869573335 2184.857988031754
1826.646246316086 2238.2952877057146
1827.3494533492758 2349.798429365428
1828.052490715756 2295.689042773043
1828.7553584583547 2235.718174608652
1829.458056619891 2336.5264231074484
1830.1605852431585 2157.976503034421
1830.8629443709433 2152.045909529697
1831.5651340460063 2265.017199904882
1832.2671543110919 2259.358180228966
1832.9690052089318 2261.421329060232
1833.6706867822395 2165.7607530118607
1834.3721990737104 2473.8700839483126
1835.0735421260233 2334.7978185046227
1835.774715981841 2354.9399797565234
1836.4757206838058 2447.6578110389087
1837.1765562745459 2039.009834998611
1837.8772227966747 1979.7966679176025
1838.5777202927839 2301.6552041073796
1839.2780488054523 2172.155889753708
1839.9782083772352 2161.3143480649405
1840.6781990506806 2385.581966386434
1841.378020868313 2193.529208521375
1842.0776738726418 2215.5489671397563
1842.777158106157 2196.2781301553296
1843.4764736113375 2104.216003161234
1844.1756204306403 2220.424683238259
1844.8745986065078 2281.2176548051166
1845.5734081813607 2097.7262820686537
1846.2720491976124 2125.649194184999
1846.970521697649 2210.0726635611923
1847.6688257238511 2128.843649496309
1848.3669613185684 2165.8909350275967
1849.0649285241452 2107.0410947540463
1849.7627273829057 2143.2702559372187
1850.460357937156 2278.8097588125042
1851.1578202291857 1938.2353046287565
1851.8551143012664 2240.684337173168
1852.5522401956569 2292.929883557858
1853.2491979545957 2274.1904042307206
1853.9459876203055 2062.094297596657
1854.6426092349902 2072.4954754455007
1855.3390628408451 2098.705229388855
1856.0353484800362 2408.9931613085446
1856.7314661947203 2295.0947485943534
1857.4274160270397 2191.463364818733
1858.123198019115 2175.0401813268286
1858.8188122130487 2226.093529346982
1859.5142586509319 2253.826678170213
1860.209537374838 2169.771660377731
1860.9046484268183 2123.729247344713
1861.599591848917 2304.1648060888087
1862.294367683151 2106.0687752770946
1862.988975971528 2089.3434510560533
1863.6834167560355 2203.9395084059424
1864.3776900786452 2310.845338642338
1865.0717959813119 2122.551145080683
1865.7657345059724 2129.312376483696
1866.4595056945564 2278.355863988524
1867.1531095889586 2259.1781491807187
1867.846546231076 2235.6801074493783
1868.5398156627743 2253.3200047675878
1869.2329179259123 2133.579633240915
1869.9258530623283 2376.360846372194
1870.618621113843 2082.8458621588784
1871.3112221222636 2020.4704141894604
1872.0036561293764 2190.6795181183325
1872.695923176956 2329.457482549887
1873.3880233067594 2382.21907581908
1874.0799565605212 2128.7328064167086
1874.7717229799673 2164.72775166219
1875.4633226068036 2370.0966304121057
1876.1547554827175 2275.835829925419
1876.8460216493859 2139.9289151939224
1877.5371211484617 2133.718891985153
1878.2280540215852 2266.350911817437
1878.9188203103804 1908.7498174727784
1879.6094200564548 2137.0379112273745
1880.299853301396 2190.1055625417434
1880.9901200867826 2276.942417730147
1881.6802204541673 2109.049254282608
1882.3701544450942 2146.135072789454
1883.059922101087 2033.8534790187587
1883.7495234636517 2374.305066423256
1884.4389585742792 2247.70490278949
1885.1282274744517 2011.3049589241987
1885.8173302056166 2411.2049208582166
1886.506266809225 2074.6595597575715
1887.195037326701 1976.0723675918089
1887.8836417994517 2225.8337834217978
1888.5720802688702 2427.719991363895
1889.260352776333 2319.473718052862
1889.9484593632042 2183.3590603032358
1890.63640007082 2097.2650016061516
1891.3241749405151 2232.6047012392537
1892.0117840135954 2183.284468548367
1892.6992273313572 2070.1119071903763
1893.3865049350788 2107.7908421874217
1894.0736168660223 2405.54752947302
1894.7605631654333 2003.958152387455
1895.4473438745408 2056.781688854021
1896.133959034556 2240.334621894339
1896.820408686679 2128.940313919574
1897.506692872088 2189.7950480500012
1898.192811631945 2225.383124417759
1898.8787650073991 2238.437551064282
1899.5645530395832 2188.2644859651846
1900.2501757696118 2280.2496917028716
1900.9356332385796 2041.001529782216
1901.620925487574 2292.887712689921
1902.3060525576602 2165.202183664485
1902.9910144898859 2249.9594772046794
1903.6758113252872 2046.8077461190892
1904.3604431048789 2116.3621792260137
1905.0449098696663 2083.157741511626
1905.7292116606295 2183.071976531692
1906.4133485187394 2218.3617133333405
1907.0973204849488 1867.9042110271178
1907.7811276001976 2097.7767400600746
1908.4647699053967 2285.0042503606105
1909.1482474414588 2032.3485379575166
1909.8315602492694 2008.575221061492
1910.5147083696957 2236.3709431507646
1911.1976918436012 2106.759997928359
1911.880510711815 2050.4485370626317
1912.5631650151681 2084.2117226992577
1913.2456547944657 2131.7905729532254
1913.927980090495 2085.342408528485
1914.6101409440362 2056.3648635002874
1915.2921373958416 2098.4771124521158
1915.9739694866603 2083.384696103718
1916.655637257214 2380.918815867886
1917.3371407482136 2063.3940620871513
1918.0184800003572 2323.3811998127226
1918.6996550543154 2093.326950774728
1919.3806659507554 2232.0439838466405
1920.0615127303208 2155.4867901511275
1920.7421954336423 2208.7501276038174
1921.4227141013343 2278.7151139193393
1922.103068773993 2086.534544503407
1922.783259492202 2121.1505534086073
1923.4632862965227 2100.965074765705
1924.1431492275078 1974.6842088346457
1924.8228483256917 2047.7843553973241
1925.5023836315922 2165.854910130679
1926.1817551857057 1784.8365258525996
1926.8609630285227 2267.3546654176193
1927.5400072005123 2156.160082919687
1928.218887742125 2057.048990087692
1928.8976046938005 1882.9474128970548
1929.5761580959588 2175.570461912825
1930.2545479890086 2287.8012751372707
1930.9327744133352 1962.468413058039
1931.6108374093164 2060.7596918531362
1932.2887370173066 2274.2082495675613
1932.9664732776473 2199.5192998397806
1933.6440462306673 2124.5787395135203
1934.3214559166754 2009.6910093262672
1934.9987023759659 2186.8621350227186
1935.675785648813 2155.9883721348724
1936.3527057754836 1934.46773191377
1937.029462796223 2209.858834444819
1937.70605675126 2004.151342797982
1938.3824876808085 2136.6808937918113
1939.058755625072 1916.252002020695
1939.7348606242267 2098.633765336727
1940.4108027184448 2032.3304538907491
1941.0865819478713 2335.681569077859
1941.7621983526478 1930.8181895330715
1942.4376519728921 2050.8236483552555
1943.1129428487038 2081.8927271050393
1943.7880710201734 2094.745496427842
1944.4630365273733 2200.7766029565905
1945.1378394103576 1928.9180215302836
1945.8124797091714 1911.125128565236
1946.4869574638324 1893.2300731806906
1947.161272714353 2016.5813041174977
1947.8354255007234 2167.1509204117137
1948.5094158629272 2095.6575180734135
1949.1832438409183 2223.3000316269668
1949.8569094746435 2243.689085505758
1950.530412804037 2177.856589854617
1951.2037538690092 2151.6692497188533
1951.8769327094578 2112.7855206604877
1952.5499493652678 2055.3176560851775
1953.222803876306 2082.271900234243
1953.895496282421 2095.5480408151548
1954.5680266234522 2033.7431546494997
1955.2403949392155 2210.5299803648413
1955.9126012695142 1822.8530812017616
1956.5846456541403 2120.651640228135
1957.2565281328643 1920.880013071654
1957.9282487454457 2093.1756928957966
1958.5998075316202 2374.3354337115006
1959.27120453112 2182.3962736858957
1959.9424397836501 2014.709636099423
1960.613513328908 2230.0052813447674
1961.2844252065697 2389.7190919726445
1961.9551754563017 2073.511174875634
1962.6257641177453 1877.571185706888
1963.29619123054 1896.5502467958581
1963.966456834296 1847.5835853277379
1964.6365609686181 1828.9977773222988
1965.306503673086 2070.3160908602435
1965.976284987275 2068.4662564775253
1966.645904950734 1879.2476855405355
1967.315363603002 1897.8880834155693
1967.9846609836077 2011.1817210105705
1968.6537971320486 2115.5840849486794
1969.3227720878222 2034.3333787153322
1969.9915858904042 1881.8758703843255
1970.660238579252 2076.1658659413392
1971.3287301938108 1969.2474447973132
1971.997060773514 1822.8651012863597
1972.665230357772 2088.19426876548
1973.3332389859843 1812.441909897616
1974.0010866975335 1986.3753971297872
1974.6687735317864 2034.7235867359377
1975.3362995280932 2086.1332514142473
1976.003664725793 2067.984721201007
1976.6708691642052 1707.5973442770712
1977.3379128826364 2022.1965209474736
1978.004795920373 2074.2138039637857
1978.6715183166925 1918.9923629808618
1979.3380801108524 2240.0580269315733
1980.0044813420973 2014.9890211176255
1980.6707220496555 1789.7530817117226
1981.3368022727373 1864.9742260523788
1982.0027220505417 1812.0186459862412
1982.66848142225 1759.1131622391847
1983.3340804270283 1821.8894632633971
1983.999519104027 2037.2324853328646
1984.6647974923835 2223.9346178561455
1985.329915631215 2163.8888029452505
1985.99487355963 2037.297585712658
1986.6596713167146 2087.500267527377
1987.3243089415428 2027.9109474189324
1987.9887864731754 2175.8411515856255
1988.6531039506553 1887.0939270658516
1989.3172614130071 2271.4469581199905
1989.9812588992481 2138.9961919701304
1990.645096448372 1971.9530855532362
1991.3087740993633 2079.047980283704
1991.9722918911848 2078.935815826452
1992.635649862792 1917.5511791684178
1993.2988480531185 2124.494651054394
1993.9618865010852 2298.3700756448143
1994.6247652455968 1967.0184246851936
1995.287484325545 1838.7795662922854
1995.9500437798033 2088.665759686116
1996.6124436472292 1947.175876407573
1997.2746839666706 2111.018736758685
1997.936764776954 2102.3220953806017
1998.598686116895 1975.7467127817413
1999.2604480252903 2201.711496982958
1999.9220505409212 1899.2038984000453
2000.5834937025593 1893.0448489778846
2001.2447775489582 1925.8530331878205
2001.9059021188514 1960.6325298433421
2002.5668674509616 2066.4440282763253
2003.2276735839987 1931.8375609423838
2003.8883205566508 2213.032743393128
2004.5488084075987 1923.153581844755
2005.2091371755014 1866.5705363157904
2005.8693068990033 2051.0784000710487
2006.5293176167397 2155.2517292549014
2007.1891693673224 1996.52984339787
2007.848862189354 1740.1628125007246
2008.5083961214223 2068.16378932299
2009.1677712020955 1789.7894552049577
2009.8269874699254 1808.6251739767126
2010.4860449634598 2133.046169952915
2011.1449437212177 1680.801765135037
2011.8036837817108 2068.8527558218075
2012.4622651834325 2240.3837278254186
2013.1206879648653 2216.4702452068814
2013.7789521644736 2227.1884029174503
2014.4370578207036 1849.933099955327
2015.0950049719922 2020.1909650722948
2015.7527936567585 2085.4390389544624
2016.4104239134067 2080.0409106312345
2017.067895780323 2198.312937669885
2017.725209295886 2199.277905844049
2018.3823644984514 2200.1920284455864
2019.0393614263648 2082.104308732269
2019.6962001179545 1746.6944946716558
2020.3528806115355 2152.7022348817522
2021.0094029454067 1884.7393850679102
2021.6657671578487 1859.5682890602318
2022.321973287133 2004.4343773209562
2022.9780213715148 2036.278843009526
2023.6339114492293 2006.6557284050268
2024.2896435585026 1977.0603872680392
2024.9452177375442 1984.5968487592534
2025.600634024544 2300.5269570034625
2026.2558924576842 1983.7671486356867
2026.9109930751292 2049.917338777298
2027.565935915025 1766.3301007189043
2028.2207210155066 2141.6252163477457
2028.8753484146964 2195.2572288236834
2029.529818150695 1743.7018628380047
2030.1841302615903 2070.415607746794
2030.8382847854573 1743.6534091958783
2031.4922817603601 1895.96484742248
2032.1461212243357 2006.8405799883124
2032.7998032154192 1687.881098059695
2033.4533277716218 2009.066008809558
2034.1066949309443 1836.2346600322173
2034.7599047313688 1984.0297285667705
2035.4129572108704 2219.9839834254753
2036.0658524074006 2186.4156685942867
2036.7185903589016 1986.391033012615
2037.3711711032956 2006.7552855506906
2038.023594678496 1924.6315713207546
2038.675861122394 1807.1812278697441
2039.3279704728757 1770.987184094559
2039.9799227678031 1734.8735690616927
2040.6317180450278 1833.535217619221
2041.2833563423865 1970.2596248266352
2041.9348376977014 1951.6514956184994
2042.5861621487784 2083.206553324978
2043.2373297334088 1992.0174551687228
2043.8883404893695 1994.1743989186198
2044.5391944544208 2150.2720043564195
2045.1898916663158 2000.1481674857187
2045.8404321627804 2035.293970693506
2046.4908159815368 1850.8791381716644
2047.1410431602853 1683.9937977539491
2047.7911137367173 1695.0148708291931
2048.441027748504 1751.9375607936697
2049.090785233302 1808.8500454861237
2049.7403862287592 1933.1273121026181
2050.389830772503 2163.0917318687875
2051.0391189021466 1713.6166874637183
2051.688250655294 2103.4704909352795
2052.337226069527 1833.6620283457446
2052.986045182417 2094.909363649659
2053.634708031521 1740.5660012650576
2054.283214654375 1967.4790386642842
2054.931565088511 1807.8449723834376
2055.579759371436 1635.5104391955424
2056.2277975406523 2006.4451930875962
2056.8756796336384 2114.240603459856
2057.5234056878617 1817.8743354478756
2058.1709757407752 1721.3465974543801
2058.8183898298194 1911.0621787619216
2059.465647992416 2008.9021302830188
2060.1127502659747 2165.541470899492
2060.759696687888 1797.4866177279605
2061.4064872955405 2027.7491544595243
2062.053122126292 2100.600932834718
2062.699601217497 1697.4470170307686
2063.345924606485 1923.5883718570367
2063.992092330587 2038.810063230098
2064.638104427102 1853.4712757028228
2065.283960933324 2060.8464685235867
2065.92966188653 2100.3270161083205
2066.5752073239855 1952.3763219409811
2067.2205972829397 1745.1998177370326
2067.86583180062 1926.7947166473193
2068.5109109142522 1812.7546096212586
2069.15583466104 1886.4480084158633
2069.8006030781708 1960.2119092015528
2070.445216202821 1987.3216452775603
2071.089674072153 2138.685202515031
2071.7339767233116 2082.6366214530453
2072.3781241934303 1756.1560590359168
2073.0221165196253 2033.240128582754
2073.6659537390024 1896.1048557680447
2074.3096358886505 2100.560804814831
2074.953163005637 1717.6396424783288
2075.596535127028 1796.508387813242
2076.2397522898664 1759.8798552015203
2076.882814531182 1829.7475920190027
2077.5257218879924 1983.3807481154995
2078.1684743973 1866.4970275114702
2078.8110720960885 1742.5515176516062
2079.453515021336 2158.175289151499
2080.095803209997 1976.7037096661793
2080.7379366990135 1896.138374304523
2081.37991552532 1938.519639457795
2082.0217397258275 1961.354558714746
2082.6634093374414 1768.916514875948
2083.3049243970418 1979.5766532823413
2083.9462849415067 1927.7787734723158
2084.587491007689 1840.3032022664236
2085.2285426324324 1992.9788099932218
2085.869439852564 2010.8242749631233
2086.510182704902 1602.019596559268
2087.1507712262483 2036.3215244340001
2087.791205453381 1581.6197376079126
2088.4314854230743 2138.312966598039
2089.0716111720867 1757.1333214542215
2089.7115827371617 1704.006384805387
2090.351400155023 1733.3736458897063
2090.991063462385 1762.8811805948153
2091.6305726959527 1706.3681172691763
2092.2699278924047 1799.6249910864985
2092.9091290884153 1893.1461059140734
2093.548176320641 1853.1465249880252
2094.187069625721 2030.6091642842598
2094.8258090402887 1713.2034693239682
2095.464394600951 1822.9215026225734
2096.102826344313 1928.1915732419075
2096.741104306955 2088.918422168771
2097.379228525453 1651.4166814291457
2098.017199036358 1801.596439660148
2098.6550158762147 2213.743316174469
2099.2926790815527 1915.287448163822
2099.9301886888825 1952.7878470922624
2100.5675447347076 1964.3279915319604
2101.2047472555114 2196.046791790558
2101.841796287761 1776.5387147162587
2102.47869186792 1872.1483422806418
2103.1154340324265 1760.1717995927643
2103.752022817709 1784.6766315522825
2104.388458260184 1884.2238123616485
2105.024740396251 1980.4371876198918
2105.660869262292 1827.605205572702
2106.296844894685 2092.4006995457685
2106.93266732978 1905.953646274059
2107.5683366039284 1537.1775768367547
2108.2038527534532 1866.2180076119992
2108.8392158146726 2056.9182427111377
2109.4744258238843 1804.8159007520612
2110.1094828173755 1957.4898788449896
2110.744386831422 2247.903233949855
2111.3791379022787 1942.0993317712605
2112.01373606619 2092.011227353623
2112.648181359389 1976.2687896760076
2113.28247381809 1897.719132810916
2113.916613478492 1797.072978889132
2114.550600376786 2025.0446820681639
2115.1844345491445 1983.6516326469077
2115.818116031729 1813.0837698348273
2116.451644860679 1845.4302919346057
2117.085021072133 1585.1559302808466
2117.718244702204 1813.6233039310623
2118.3513157869984 1798.1475636672767
2118.984234362604 1766.6696423402882
2119.617000465092 1850.0681904674402
2120.249614130529 2026.6075541074483
2120.8820753949585 1882.3955906775252
2121.5143842944162 1796.877150148876
2122.14654086492 1578.7705811904157
2122.7785451424734 1838.3470591046128
2123.4103971630702 1895.1154500285968
2124.042096962681 1952.2243204262936
2124.6736445772767 1824.0718442309753
2125.305040042802 1712.9547863428793
2125.936283395191 1909.410671731756
2126.567374670365 1889.6278048684642
2127.198313904233 1822.5177029512183
2127.8291011326855 2293.6157558589302
2128.4597363916037 2084.7064145025756
2129.0902197168507 1800.5763577675764
2129.720551144279 1764.6574999497084
2130.3507307097225 2080.9242538391013
2130.980758449008 2223.05008220936
2131.6106343979427 1751.8732750649513
2132.2403585923203 1956.1295372216907
2132.8699310679276 2103.120747783122
2133.499351860526 1981.7790744563383
2134.1286210058715 1972.7485319933699
2134.7577385397053 1626.3148953636787
2135.3867044977487 1887.3322456389099
2136.0155189157176 2133.7580250541423
2136.644181829308 2018.7755588744808
2137.2726932742025 1660.6520641256222
2137.901053286074 2100.91839236865
2138.5292619005777 1822.7978246990529
2139.1573191533535 1806.810229365608
2139.7852250800315 2048.5997229052473
2140.4129797162295 1986.3015539031367
2141.0405830975433 1688.350555652541
2141.6680352595613 1625.6495880405544
2142.2953362378576 1562.8469826713529
2142.9224860679915 1723.5538564906005
2143.549484785508 1600.0440608536724
2144.1763324259373 1943.3768846367063
2144.803029024799 1660.1310528226672
2145.429574617594 1919.0572349377776
2146.0559692398165 2078.0308007948693
2146.682212926942 1655.3471054534984
2147.308305714432 1839.4800203222294
2147.9342476377333 2005.9342921620191
2148.5600387322847 1967.6576205975575
2149.185679033506 1990.4941952830752
2149.8111685768017 1911.549567556843
2150.4365073975678 1794.4109076468521
2151.061695531187 1906.996354629815
2151.686733013021 1939.491102048726
2152.311619878423 1901.846125662177
2152.9363561627342 1756.619715275053
2153.560941901278 1707.1322303948596
2154.1853771293663 1940.847150861286
2154.809661882293 2056.6395463063513
2155.433796195348 1986.081553172097
2156.0577801037944 1935.750563780763
2156.681613642895 1948.1743952469824
2157.3052968478896 1956.6316431429539
2157.928829754006 1836.402682136391
2158.552212396462 1871.8913050512529
2159.1754448104566 1716.950687631197
2159.7985270311783 1656.0794982665743
2160.4214590938027 1459.9164994902667
2161.0442410334927 1653.3116232975503
2161.6668728853874 1665.0552980141372
2162.289354684628 1657.5048239652097
2162.911686466332 1794.8721862860452
2163.533868265602 2023.1060045774248
2164.1559001175337 2179.084146280343
2164.7777820572046 2003.1555783770714
2165.399514119681 1794.4218180699718
2166.021096340013 1967.9552048816938
2166.6425287532384 1542.395940878228
2167.263811394385 1766.2419096707138
2167.8849442984574 1887.7320328884452
2168.505927500455 1618.4830032221457
2169.126761035366 1797.88328782328
2169.7474449381552 1860.2573511643714
2170.367979243778 1615.3637179934483
2170.9883639871823 1836.4432076021276
2171.608599203293 1781.234661476749
2172.2286849270276 2209.460131598131
2172.8486211932886 2243.9836979220026
2173.4684080369625 1767.2708442446378
2174.0880454929265 1650.7628776561476
2174.7075335960417 1706.9761462086
2175.3268723811543 1985.5247175179516
2175.9460618831 1793.3683678755992
2176.565102136701 1645.8444276696457
2177.1839931767627 1726.3387307562455
2177.802735038078 1807.0705607546065
2178.421327755432 1740.24684882499
2179.0397713635866 1695.8736800205145
2179.658065897298 1680.6862411062593
2180.276211391305 1816.3809188822906
2180.8942078803357 1739.5848980914532
2181.5120553991 1945.1512698119973
2182.129753982299 1921.8404211418517
2182.7473036646206 1898.4865192724203
2183.3647044807367 1781.0520155135086
2183.9819564653044 1620.354426564671
2184.599059652968 1901.199043532558
2185.216014078367 1904.8964327545855
2185.832819776113 1914.6367068928444
2186.4494767808137 1924.2905511856236
2187.065985127063 1877.629788026196
2187.682344849436 1710.1135002972726
2188.298555982501 2115.7301087895567
2188.9146185608097 1889.4812499266918
2189.530532618901 1915.4489893475723
2190.1462981912937 1832.7185089841253
2190.761915312507 1898.2017654637216
2191.377384017036 1864.4762868583261
2191.9927043393654 1697.2074565390133
2192.6078763139667 1574.7094425657424
2193.2228999753006 1535.3160047752274
2193.837775357808 1495.8698597107805
2194.452502495922 1610.9765724417762
2195.0670814240602 1790.6925908942508
2195.6815121766285 1697.8883520302365
2196.2957947880186 2022.1537886084345
2196.9099292926057 1717.8035101576775
2197.523915724758 1822.724098693427
2198.137754118825 1826.036182762558
2198.7514445091456 1774.2930743099434
2199.3649869300443 1722.5078387614358
2199.9783814158327 1935.9370972707752
2200.5916280008096 2213.574074268364
2201.2047267192593 1875.6253505904065
2201.8176776054515 1927.9133379296993
2202.430480693649 1710.986559733409
2203.0431360180955 1706.242685592381
2203.6556436130195 1971.6003831889734
2204.268003512645 1655.0363798293488
2204.8802157511727 1908.623118623464
2205.492280362796 2102.9020408554384
2206.1041973816937 1701.3863049684273
2206.715966842032 1877.743915352759
2207.3275887779655 1617.8480586069395
2207.93906322363 1753.5522794453386
2208.550390213153 2094.8549790230854
2209.1615697806465 1825.0340051087574
2209.7726019602105 1392.251514832483
2210.3834867859277 1486.3567807089753
2210.9942242918787 1855.7158881918326
2211.6048145121167 1559.914504559813
2212.2152574806914 1634.7573710218717
2212.825553231638 1709.6835273609977
2213.435701798975 2314.533118461998
2214.045703216707 1643.618549712763
2214.655557518832 1571.1792183626626
2215.2652647393297 1432.2302168887734
2215.874824912169 1473.4549102032574
2216.4842380713 1765.007228134092
2217.09350425067 1795.6402914719547
2217.7026234842033 1709.609684236309
2218.311595805819 2016.960483890077
2218.9204212494133 1623.8697386750277
2219.52909984888 1980.241453648158
2220.137631638092 2058.9127490559777
2220.7460166509154 2137.616390685892
2221.354254921198 1774.0307885325105
2221.9623464827764 2049.8060723281565
2222.5702913694713 1773.0216008267769
2223.178089615096 1878.1967236472271
2223.7857412534486 1643.9187236318987
2224.39324631831 1445.207579685601
2225.000604843457 1695.9468103402808
2225.607816862641 2061.056454590768
2226.214882409611 1899.5121151367978
2226.8218015180973 1726.0287250630154
2227.4285742218217 1727.16360146742
2228.0352005544864 1859.8784419026717
2228.6416805497847 1685.7058078282523
2229.248014241399 1673.5536510294583
2229.8542016629945 1804.8842272408704
2230.460242848223 1936.3886441979132
2231.0661378307304 2266.893544171806
2231.671886644139 1760.0939230002507
2232.277489322065 1692.9129604434734
2232.8829458981127 1308.7493289369518
2233.48825640587 1798.3737493068868
2234.0934208789095 2183.839861750977
2234.6984393507955 2071.6865334358986
2235.3033118550793 2185.367490874117
2235.9080384252975 1787.279538231634
2236.5126190949723 1466.031504653591
2237.1170538976166 1623.5291467280624
2237.721342866729 1705.275414560194
2238.32548603579 1787.1580493766992
2238.9294834382763 1951.1688101182729
2239.533335107646 1658.107199519147
2240.1370410773434 2052.5318031999986
2240.740601380803 1807.5076202605524
2241.3440160514474 1598.845410084511
2241.9472851226783 1892.747493266393
2242.550408627896 1971.575144308969
2243.1533866004793 2050.5677692008535
2243.756219073799 1769.3086595118111
2244.3589060812064 1754.6312135490255
2244.961447656049 1595.2375551266293
2245.5638438316564 1839.108649692286
2246.166094641343 1951.809766349505
2246.7682001184166 1721.202606168255
2247.3701602961664 1985.2866822035344
2247.971975207871 1767.6418956470538
2248.5736448867974 1883.7263686957826
2249.175169366197 1937.512990275841
2249.7765486793123 1985.3337582784138
2250.3777828593684 2033.0996804127783
2250.9788719395783 1873.6544813472574
2251.579815953146 1946.5188527487232
2252.1806149332606 1622.4522727505198
2252.781268913097 1690.6393689028223
2253.381777925817 1467.5490748794716
2253.9821420045737 1806.3036605789935
2254.5823611825035 1992.924995837196
2255.1824354927303 1678.3714309899474
2255.782364968365 1680.2549016290438
2256.38214964251 1682.1933338053684
2256.9817895482483 1660.941181372389
2257.5812847186553 1845.381055519428
2258.180635186791 1786.7811711580107
2258.779840985704 1801.825982884342
2259.37890214843 1713.0966891878784
2259.97781870799 1652.1058624203706
2260.5765906973957 1591.019517225482
2261.175218149645 1556.2252988980206
2261.773701097718 1596.8629043495034
2262.3720395745895 1637.528827188199
2262.970233613216 1514.8101082101423
2263.568283246548 1425.14646845634
2264.1661885075137 1751.973850430223
2264.763949429038 1763.8306923414711
2265.3615660440246 1843.9554550505877
2265.959038385374 1749.5833938635762
2266.5563664859637 1823.786746995863
2267.153550378669 1539.3080050264175
2267.7505900963424 1618.2192262683404
2268.3474856718312 1817.727149474874
2268.9442371379664 1654.8233958238538
2269.5408445275643 1575.629651707617
2270.1373078734377 1866.099895921351
2270.7336272083758 1903.2710774961083
2271.32980256516 1860.878817758269
2271.925833976562 1757.0359663030972
2272.5217214753357 1841.6713999712822
2273.117465094223 1771.3109833881729
2273.7130648659586 1779.199587993672
2274.308520823257 1717.841371644735
2274.903832998827 2015.2807386065815
2275.4990014253563 1540.7740767474388
2276.094026135528 1957.4106120488955
2276.6889071620117 1432.4240915087476
2277.2836445374614 1843.4037444733974
2277.878238294519 1852.6476725254074
2278.472688465812 1709.2823467513408
2279.066995083962 1565.642915187596
2279.6611581815705 1850.5999308315684
2280.255177791232 1987.0163514402357
2280.8490539455233 2123.727474808472
2281.442786677013 2061.802579386452
2282.0363760182554 2012.3564889155641
2282.6298220017943 1751.1219175662638
2283.223124660155 2021.1606475530884
2283.816284025859 1726.82308265047
2284.4093001314086 1839.77280498605
2285.002173009292 1824.7269203814067
2285.5949026919952 1809.6432623407422
2286.1874892119777 1512.1962884547254
2286.7799326016993 1440.0900589377175
2287.3722328936 1367.7363871485238
2287.964390120109 1701.026448952475
2288.556404313642 1770.2854444640757
2289.1482755066027 1682.7448158815455
2289.7400037313873 1594.9863647660977
2290.3315890203703 1769.8721542577027
2290.9230314059205 1713.6179264745624
2291.5143309203904 1657.3257813396358
2292.1054875961236 1741.0614635153954
2292.6965014654506 2046.7982486379883
2293.287372560684 1820.5288709781257
2293.878100914131 1754.1941069285895
2294.468686558086 1687.774164051952
2295.059129524827 1807.341594140277
2295.649429846617 1968.5573356067957
2296.239587555716 1997.7587214220105
2296.8296026843636 1932.7702860887475
2297.419475264791 2231.7107516909873
2298.0092053292137 1843.6481335317053
2298.598792909839 1859.5913544579955
2299.1882380388597 2025.9534081842235
2299.777540748455 1920.0242085826042
2300.3667010707904 1813.8293502083052
2300.9557190380256 1912.7553777113396
2301.544594682302 2130.5002582450225
2302.1333280357503 2085.8570788988573
2302.721919130485 2041.2030844435042
2303.3103679986198 2008.6793617615172
2303.898674672242 1990.7850134223822
2304.486839183437 1717.0519532158298
2305.0748615642697 1931.4403469440902
2305.6627418468015 1572.0142319141862
2306.2504800630704 1525.3006704951504
2306.8380762451143 1493.0823398771186
2307.425530424949 1668.8489337250255
2308.012842634582 1845.0059559049926
2308.6000129060103 2103.4982460946844
2309.187041271214 2157.8847744584446
2309.773927762164 1859.4858317778483
2310.3606724108213 1845.4083798384156
2310.9472752491274 1622.6518097345727
2311.5337363090184 1776.470592836976
2312.120055622414 1881.6513350604334
2312.706233221221 1561.6133749528599
2313.2922691373424 1514.3922272646728
2313.8781634026564 1844.3560072518085
2314.463916049037 1588.7206013789169
2315.049527108342 1850.4552906786262
2315.6349966124235 2009.0514807229824
2316.2203245931123 2082.265941361713
2316.8055110822315 1574.7193980725506
2317.3905561115935 1672.3034442249777
2317.9754597129977 1538.5457481046212
2318.560221918229 1793.605131940209
2319.1448427590603 1913.3545014540898
2319.729322267256 1431.0127597275011
2320.313660474563 1939.5980822119286
2320.8978574127195 2449.582481898412
2321.481913113452 1773.1243978671548
2322.0658276084705 1446.9154385695367
2322.6496009294806 1524.1484976247755
2323.233233108165 1667.6979489530415
2323.8167241762058 1811.6229453310825
2324.4000741652617 1869.466373598131
2324.983283106987 2305.323868827795
2325.5663510330232 2045.7140138824368
2326.1492779749933 1930.0765881768543
2326.7320639645204 1763.393336967898
2327.3147090332004 1667.0290823217133
2327.897213212629 1678.368871374521
2328.4795765343843 1689.5963883129875
2329.0617990300307 1553.7294867609287
2329.643880731124 1943.699449519389
2330.22582166921 1686.0786902812451
2330.807621875816 1826.228530982796
2331.3892813824623 1649.7690747968486
2331.9708002206517 1714.0526445846597
2332.5521784218818 1970.4856199807389
2333.133416017634 1795.705053517131
2333.7145130393765 1933.7515864496168
2334.295469518571 1968.2074707964553
2334.876285486658 2134.090446002083
2335.456960975076 2004.1265905104442
2336.037496015242 1873.9069434739536
2336.6178906385667 1639.891259568992
2337.198144876451 1960.4878063800031
2337.778258760278 1607.7139963593836
2338.3582323214214 1788.2063478069826
2338.938065591243 1969.0733126023606
2339.517758601087 2121.0276811575523
2340.0973113822965 1837.2811777526033
2340.676723966193 1464.8942812598839
2341.255996384094 1678.7772569251247
2341.835128667295 1664.929342472217
2342.4141208470883 1651.0493880815873
2342.992972954751 1578.260143687003
2343.5716850215467 1424.6887325843045
2344.1502570787306 1270.7681781354952
2344.7286891575386 1494.297649215347
2345.3069812892045 1710.3085189463127
2345.885133504944 1926.552692434137
2346.4631458359618 1729.4495761179019
2347.04101831345 1605.1459182706476
2347.6187509685915 1721.213961392128
2348.196343832553 1851.3477039950599
2348.7737969364935 1508.5976370204805
2349.351110311558 1637.0513111740172
2349.9282839888765 1617.1556051323437
2350.5053179995757 1450.3879387722857
2351.0822123747585 1421.7278776340902
2351.658967145526 1473.6821015828384
2352.2355823429643 1525.8098299229152
2352.812057998144 1894.0007333092835
2353.3883941421263 1516.4201470553878
2353.9645908059647 1741.2952521773707
2354.540648020693 1891.0160660971808
2355.116565817336 1484.2403615592043
2355.6923442269126 1759.32594252893
2356.2679832804224 1609.3723933587316
2356.8434830088518 1455.514043526682
2357.41884344318 1727.8025429660975
2357.994064614377 1717.110393999259
