#exp_cfg={"servo_angle": 0.0, "laser_lim": 100.0, "servo_angle_to": 18.0, "laser_wup": 0.0, "bt_dev": "EnSpectr-25AE3", "laser_wdn_max": 0.0, "frames": 10.0, "servo_used": 0, "servo_calib_use": 0, "laser_wdn_min": 0.0, "servo_pix_from": 90.0, "cooler_tout": 300.0, "servo_angle_from": 0.0, "servo_calib": "[-1.9174921013161362e-09, 3.9322238269163779e-05, -0.27385609119055809, 653.59552119713567]", "laser_autoctl": 0, "servo_pix_to": 3682.0, "laser_pw": 100.0, "cooler_on": 0, "laser_volt": 4.0, "cooler_autoctl": 0, "cooler_curr": 70.0, "cooler_startup": 10.0, "laser_fixed_pw": 0, "gain": 1.3, "offset": 2.53059635486, "servo_calib_degree": 3.0, "laser_curr": 55.0, "shutter": 8200.0, "servo_calib_step": 1.0, "laser_fixed_curr": 0, "exp": 2000.0, "ccd_volt": 4.7, "bt_addr": "00:06:66:62:5A:E3", "servo_delay": 500.0, "laser_autooff": 1}
#proc_cfg={"flat_auto_wnd": 200.0, "flat_auto_fr": 200.0, "flat_auto_shift": 5.0, "yconv": 1, "flatten": 1, "flatten_strength": 100.0, "xfrom": 300.0, "auto_max_frame": 2000.0, "auto_signal": 48000.0, "flat_auto_tol": 0.1, "autoclip": 1, "xrel_range": 0.0, "flat_auto_to": 4000.0, "intensity_adj": 1.0, "xrel": 7852.0, "rmhot": 1, "flat_auto_slit": 4.999999999999997, "auto_ini_exp": 300.0, "auto_off": 0, "xto": 2860.0, "flat_auto_ref": "", "flat_auto_rank": 1, "autobackg": 0, "xrel_adj": 0.0, "auto_black_lvl": 1, "base_wnd": 100.0, "sub_baseline": 0, "xconv": 2, "auto_max_exp": 1000.0, "auto_total_exp": 10000.0, "auto_exp": 0, "rmripple": 0, "black_lvl": 8288.8375, "shutter_clip_adj": 0.0, "auto_bckg": 0, "flat_auto_thr": 0.9, "subbackg": 1}
316.8218498245369 19732.50285817209
317.89969571804795 19497.62729119273
318.977263876126 19455.199046027898
320.05455438786703 19294.550991667027
321.1315673423287 19261.636325221865
322.2083028285215 19296.842281110257
323.2847609354267 19196.02952127288
324.3609417519747 19133.790621286567
325.43684536705587 19100.46115422927
326.5124718695279 18975.51966155566
327.58782134820103 18955.441254190224
328.66289389184385 18971.881842433806
329.7376895891921 18744.02542912275
330.8122085289342 18909.67196565486
331.88645079971866 18819.967790721093
332.9604164901575 18710.26834488142
334.03410568881554 18700.055530338912
335.1075184842266 18883.71133096875
336.18065496487543 18639.56869324944
337.2535152192122 18645.4618959225
338.32609933564163 18734.73772053326
339.39840740253203 18672.27802297844
340.4704395082099 18599.472454350496
341.5421957409617 18497.174991718974
342.6136761890357 18655.12896472094
343.6848809406365 18443.238274648116
344.75581008392874 18373.521743728223
345.82646370703696 18330.330087933726
346.8968418980512 18312.0392468471
347.96694474501055 18336.099092351473
349.0367723359268 18220.65470768796
350.106324758759 18262.57400744242
351.1756021014353 18125.715337231468
352.2446044518383 18065.634971038486
353.31333189781435 18136.179946888806
354.38178452716966 18054.46487286121
355.449962427665 18062.76798706657
356.51786568702846 17948.801169840048
357.58549439294256 18137.212833271093
358.6528486330535 18035.268224359832
359.71992849496564 17993.527397236983
360.7867340662433 18043.514472554154
361.8532654344144 17967.598700836454
362.9195226869597 18176.80363245044
363.9855059113288 17855.618405345453
365.05121519492604 17844.880081608768
366.11665062511565 17995.04220096481
367.1818122892273 18055.72219918664
368.2467002745434 17867.953671983476
369.31131466831175 17959.3697640863
370.375655557742 17987.80328936535
371.4397230299983 18041.91630465135
372.5035171722102 17906.155479889396
373.5670380714637 18005.77981895204
374.6302858148101 18022.367354542745
375.6932604892554 17965.632723724313
376.7559621817709 18005.30625251786
377.81839097928605 17765.044371942637
378.8805469686886 17795.42769550138
379.94243023683157 17855.72715215656
381.0040408705263 17810.14373781342
382.0653789565458 17730.514730720148
383.1264445816196 17811.207448256922
384.1872378324406 17804.664715216313
385.2477587956637 17809.66791705672
386.3080075579037 17654.41336757809
387.3679842057336 17526.921982719978
388.4276888256918 17591.01562941942
389.48712150426945 17669.412469447358
390.54628232792857 17632.825364480967
391.6051713830857 17436.210210205907
392.66378875611736 17507.766773379328
393.7221345333637 17468.11012913712
394.7802088011249 17381.71790085819
395.838011645661 17388.25724986234
396.89554315319765 17273.600411511165
397.9528034099112 17243.044811201726
399.00979250194723 17173.411103483675
400.06651051541485 17177.21295681653
401.1229575363741 17212.99058495076
402.17913365085224 17105.725888545574
403.23503894483656 17162.808416857042
404.2906735042761 17021.721047126623
405.3460374150818 16987.245019844355
406.401130763119 17008.90291764225
407.455953634224 16939.30782534942
408.5105061141876 16990.26594266955
409.56478828876243 16727.86855358532
410.6188002436629 16826.356284243102
411.6725420645689 16775.0227564439
412.72601383711117 16863.392175115157
413.77921564689314 16783.35176063658
414.8321475794728 16703.724361657154
415.88480972036814 16656.982916004905
416.93720215506437 16833.85027196925
417.9893249690049 16676.828002681337
419.04117824759123 16497.647055406043
420.09276207619223 16549.445549562755
421.144076540133 16530.958487637916
422.1951217247042 16443.60291605039
423.24589771515275 16485.010061193043
424.2964045966928 16440.935266749784
425.34664245449494 16423.7676871918
426.3966113736933 16427.944080349538
427.4463114393875 16301.93768347293
428.49574273662984 16350.07243797282
429.5449053504417 16254.75929945833
430.5937993658026 16365.749728729832
431.6424248676558 16237.464369972522
432.6907819409007 16171.611004801662
433.73887067040596 16265.548755619771
434.7866911409965 16223.101026721191
435.8342434374608 16210.5384488065
436.88152764455117 16049.118879416963
437.9285438469724 16177.464312561287
438.9752921294057 16013.648276788594
440.02177257648145 16033.365452384081
441.06798527279716 15999.365101431928
442.1139303029122 16114.710761207005
443.1596077513459 16229.39202457419
444.2050177025794 15982.282178386298
445.25016024105753 16022.38327212477
446.2950354511886 15963.355234572638
447.33964341733736 16026.487079451637
448.383984223834 15918.396014988404
449.4280579549686 15846.664945898263
450.471864694995 15930.449970275033
451.5154045281306 15887.11785096229
452.5586775385509 15811.280951302144
453.60168381039693 15745.863482573779
454.64442342776783 16022.754672863672
455.6868964747264 15848.88078631234
456.7291030353008 15811.250926968913
457.77104319347563 15824.993730742619
458.8127170332027 15793.741397979853
459.854124638392 15802.679782878786
460.895266092919 15895.553298110506
461.93614148061897 15938.746523649615
462.97675088529104 15937.930231909684
464.01709439069236 15954.029614674006
465.0571720805492 15870.404687383008
466.0969840385442 15912.474006755281
467.1365303483253 15987.044567917206
468.17581109350067 15899.38646114248
469.2148263576437 15923.594361656122
470.2535762242878 15995.289342960352
471.29206077693016 16080.083614975974
472.33028009902773 15969.99803413024
473.3682342740012 16039.109805253587
474.40592338523857 16001.727910238755
475.4433475160804 16043.2851916004
476.4805067498364 16039.933551113263
477.51740116978 16194.000659886675
478.5540308591426 16108.592871567243
479.59039590112116 16414.105398177264
480.6264963788726 16310.105842626446
481.6623323755193 16483.62307352199
482.6979039741436 16538.896087110057
483.7332112577915 16662.926165532743
484.76825430947247 16860.539025554994
485.80303321215797 16828.995457963036
486.837548048783 16861.81752793934
487.8717989022425 17098.99539602295
488.90578585539697 17072.095113949348
489.9395089910686 17148.003277494394
490.97296839203955 16910.129403552673
492.00616414106116 16792.524422844035
493.0390963208429 16746.683685296124
494.0717650140559 16737.952045301983
495.10417030333883 16652.744046524782
496.1363122712901 16556.003376871555
497.16819100046814 16322.910440363548
498.1998065734024 16221.356645463824
499.2311590725767 16114.730574231242
500.26224858044407 15963.099846398869
501.2930751794156 15873.250389251994
502.3236389518679 15873.355430280828
503.35393998014115 15622.85283098993
504.38397834653733 15702.933731206595
505.4137541333221 15665.69665548934
506.4432674227228 15413.681109474335
507.4725182969323 15474.448540934605
508.5015068381035 15446.328938078286
509.53023312835467 15368.395393350778
510.55869724976765 15435.394061852527
511.58689928438434 15240.93820807867
512.6148393142121 15230.456602040553
513.6425174212218 15355.611786444584
514.6699336873462 15306.434654880815
515.6970881944835 15293.907840805783
516.7239810244901 15233.176362029073
517.7506122591931 15209.295569960823
518.7769819803761 15283.468769215277
519.8030902697901 15274.551287931676
520.8289372091476 15283.609628017613
521.8545228801249 15437.484886319735
522.8798473643619 15318.351147221896
523.9049107434621 15195.68101344832
524.9297130989908 15285.713166699756
525.9542545124805 15202.262586938557
526.9785350654201 15148.60015560009
528.0025548392696 15186.618809920421
529.0263139154504 15131.457249275652
530.0498123753423 15226.093434283783
531.073050300296 15149.232818203596
532.0960277716204 15110.236408383202
533.1187448705896 15042.961741654082
534.1412016784416 15038.216501644105
535.1633982763833 15054.061792965582
536.1853347455726 15003.96471057788
537.2070111671401 14926.871646480893
538.2284276221817 14819.245411787972
539.2495841917516 14706.390581375603
540.2704809568677 14623.395342052385
541.2911179985167 14726.43153121692
542.3114953976419 14583.605607550979
543.3316132351592 14562.88763385675
544.3514715919409 14377.138537465546
545.3710705488247 14402.697267942855
546.3904101866156 14377.815655692815
547.4094905860784 14463.281143328955
548.4283118279418 14329.501282299674
549.4468739929034 14436.188411427163
550.4651771616191 14338.77807315833
551.4832214147063 14225.764402839786
552.501006832761 14294.860608553403
553.5185334963226 14266.174792915408
554.5358014859103 14305.101194569836
555.5528108820035 14241.987214571742
556.5695617650363 14163.176349180707
557.5860542154242 14267.476612564958
558.6022883135283 14200.731616984174
559.6182641396881 14100.776374651066
560.6339817741991 14152.835246666838
561.6494412973225 14244.265362838323
562.6646427892883 14341.390470800945
563.6795863302796 14171.283050445089
564.694272000459 14124.420346460669
565.7086998799423 14258.908498500494
566.7228700488104 14199.16547839801
567.7367825871115 14135.78672432845
568.7504375748576 14168.64016433222
569.7638350920224 14143.325522282748
570.7769752185486 14137.542934415353
571.7898580343353 14172.625556607334
572.802483619258 14049.348817337552
573.8148520531431 14223.75544395939
574.8269634157932 14251.723115805871
575.8388177869692 14234.59505846056
576.8504152463938 14211.580478592543
577.8617558737587 14383.06009047298
578.8728397487175 14267.045605727873
579.883666950891 14301.575911494332
580.8942375598654 14409.792384637514
581.9045516551851 14420.084992725446
582.9146093163617 14692.131733459877
583.924410622878 14516.571470350673
584.9339556541727 14604.15639321801
585.9432444896538 14816.108546417861
586.9522772086875 14595.496948700657
587.9610538906127 14666.002331072526
588.9695746147318 14558.339837286734
589.9778394603054 14640.269949351967
590.985848506567 14485.200562318225
591.9936018327098 14514.105777806946
593.0010995178891 14248.825223288422
594.0083416412344 14357.724001353616
595.0153282818283 14222.304723926067
596.0220595187293 14203.148254515303
597.0285354309508 13981.852750100534
598.0347560974806 14066.831488269216
599.0407215972609 13928.214604333669
600.0464320092051 13919.209267553402
601.0518874121954 13851.789773448094
602.0570878850685 13848.558953476084
603.062033506636 13956.852587860305
604.0667243556636 13902.23778416371
605.0711605108936 13852.830408896178
606.0753420510264 14113.528204120481
607.0792690547278 13978.604865631714
608.082941600629 13949.614596589245
609.0863597673306 13973.291270543215
610.0895236333909 14128.631567735201
611.0924332773357 14176.92314522008
612.0950887776617 14273.422445593827
613.0974902128219 14352.340089975958
614.0996376612384 14681.133414513923
615.1015312013005 14623.002847040092
616.1031709113595 14749.023579454757
617.1045568697336 14724.344688635238
618.1056891547069 15044.817393282055
619.1065678445229 15147.479012297768
620.1071930173985 15441.411524241787
621.1075647515099 15426.604919381953
622.1076831250048 15536.459065301993
623.1075482159849 15805.313990773348
624.1071601025305 15790.231529610726
625.1065188626781 16066.328287969809
626.105624574433 16323.472782853385
627.1044773157682 16365.70417011645
628.1030771646128 16392.951352919154
629.1014241988742 16583.024833462445
630.0995184964158 16765.04947339867
631.0973601350688 16700.151450519937
632.0949491926294 16880.789373034135
633.0922857468631 16645.733132599093
634.089369875499 16597.716153386988
635.0862016562278 16632.57945084277
636.0827811667077 16386.22300559682
637.0791084845641 16344.918862167786
638.0751836873878 16107.266200173544
639.0710068527369 16048.658031932191
640.0665780581294 15822.82161858057
641.0618973810506 15733.452511963746
642.0569648989604 15601.936813769422
643.0517806892676 15319.679656925367
644.0463448293649 15227.464671708422
645.040657396592 15056.900099414002
646.0347184682723 14815.045342134608
647.0285281216875 14777.88393705447
648.0220864340772 14640.09873199788
649.0153934826558 14475.75500607475
650.0084493446047 14454.844195727506
651.0012540970674 14323.984708192418
651.9938078171526 14215.697399746296
652.9861105819346 14064.398554855605
653.9781624684565 14102.676578873583
654.9699635537254 13971.671498229194
655.9615139147136 13969.93114623785
656.9528136283589 13771.075034289632
657.9438627715699 13716.459481038599
658.9346614212154 13642.18598647475
659.925209654135 13401.526174841736
660.9155075471263 13578.650580142337
661.9055551769616 13485.078659294499
662.895352620375 13612.373228439808
663.8848999540678 13396.412725995839
664.8741972547068 13269.561222923774
665.863244598926 13228.057404978492
666.8520420633213 13318.684817963416
667.8405897244611 13247.4403919938
668.8288876588758 13044.480172949265
669.8169359430613 13189.127061023824
670.8047346534822 13172.872066155356
671.7922838665672 13134.135823215236
672.7795836587156 13133.95417228829
673.766634106285 13295.778459527492
674.7534352856092 13052.534103304459
675.7399872729766 13133.590856025558
676.7262901446538 13130.976214477563
677.712343976862 13147.902159356328
678.6981488457986 13147.900295747575
679.6837048276229 12968.29914497348
680.6690119984596 13087.152415367178
681.6540704344043 12957.836675464332
682.6388802115107 13016.8822214318
683.6234414058108 12986.443908745763
684.6077540932874 12847.28633500925
685.591818349907 12888.507662463739
686.575634251587 12837.303410774552
687.5592018742263 12818.798964745889
688.5425212936734 12685.630270236186
689.5255925857564 12745.249523888384
690.5084158262707 12725.515376874444
691.4909910909646 12697.237946613044
692.4733184555644 12655.48298598601
693.4553979957618 12718.933966263725
694.4372297872123 12662.544808400608
695.4188139055404 12643.966822200273
696.4001504263324 12522.702952935066
697.3812394251509 12604.157053042409
698.3620809775111 12590.881074221532
699.3426751589104 12611.585574321138
700.3230220448004 12466.13853580632
701.3031217106054 12624.576552767277
702.2829742317172 12713.614932009548
703.2625796834873 12551.297457802595
704.2419381412474 12506.280801361438
705.22104968028 12568.474189546112
706.1999143758458 12485.480763972319
707.178532303169 12573.99864044024
708.1569035374378 12634.28507372649
709.1350281538107 12749.275736661599
710.1129062274158 12753.645869844837
711.0905378333373 12902.483257148288
712.0679230466376 12900.106280786016
713.0450619423427 13120.345477596798
714.0219545954424 13303.161442646222
714.9986010808989 13230.72136941294
715.9750014736292 13460.094222389918
716.9511558485392 13648.057525869954
717.9270642804786 13738.771570069697
718.9027268442787 13908.1648967915
719.8781436147328 13833.095785239642
720.8533146666014 13772.131921374264
721.828240074612 13690.955004322555
722.8029199134635 13578.984878048248
723.7773542578125 13544.44605003326
724.751543182294 13355.997771946877
725.7254867615029 13284.662682488113
726.6991850700015 12982.691112051998
727.6726381823228 12994.880676538914
728.6458461729599 13036.669498973193
729.6188091163858 12955.793697211146
730.5915270870246 12929.557220079278
731.5640001592856 12852.472781190412
732.536228407529 12881.816445775221
733.5082119060917 12935.013570950252
734.4799507292755 12780.698592876648
735.4514449513481 12741.935362341168
736.4226946465496 12792.385435189117
737.3936998890786 12816.381293023109
738.3644607531078 12595.183078255226
739.3349773127793 12506.680106191976
740.3052496421951 12552.0579977989
741.27527781543 12373.710032659586
742.2450619065221 12309.979699900392
743.2146019894826 12285.26799459268
744.183898138288 12202.33150942785
745.1529504268801 12177.727343639983
746.1217589291682 12030.07027532132
747.0903237190341 11937.115309138044
748.058644870318 12024.205850381219
749.0267224568397 11833.762170703147
749.994556552374 11745.377155210143
750.9621472306771 11744.850454683925
751.9294945654583 11715.365748903594
752.8965986304011 11763.388550394167
753.8634594991636 11715.387118840945
754.8300772453586 11710.93974585355
755.7964519425768 11753.940672412966
756.762583664371 11845.974475057377
757.7284724842611 11677.591861800203
758.6941184757416 11622.592723482476
759.6595217122667 11588.650286112887
760.6246822672638 11655.74801325998
761.5896002141235 11573.317263308143
762.5542756262093 11687.482215961918
763.5187085768503 11684.829187535346
764.4828991393406 11629.97675418739
765.4468473869474 11600.99285767416
766.4105533929032 11560.518492108304
767.3740172304078 11588.7721738469
768.3372389726283 11590.01856331635
769.3002186926988 11406.577979283562
770.2629564637282 11298.156348704224
771.2254523587872 11337.987371728723
772.1877064509154 11275.922537862822
773.1497188131179 11247.03186230015
774.1114895183728 11169.747174290715
775.0730186396268 11226.848097225688
776.0343062497905 11125.414399890686
776.9953524217381 11017.19256704338
777.9561572283274 11097.51743735155
778.9167207423689 11093.603024454926
779.8770430366476 11045.901636544895
780.8371241839159 11061.19283645209
781.7969642568951 10999.243684507324
782.7565633282757 11201.804628659116
783.7159214707099 10917.305591198867
784.6750387568281 11043.806165711165
785.6339152592227 11010.657934668317
786.5925510504512 11066.23209014232
787.5509462030477 10994.190273713753
788.5091007895098 11050.848663025012
789.4670148823006 11019.120185008273
790.4246885538596 10933.59401317628
791.3821218765861 11016.518663893321
792.3393149228505 10892.441684395819
793.2962677649975 11036.709521697561
794.2529804753303 11089.4980393893
795.20945312613 10967.27813522996
796.1656857896378 10928.207152145067
797.1216785380675 11000.166752184294
798.0774314435985 11202.19206162454
799.0329445783846 11269.366306021666
799.9882180145414 11212.071644515952
800.9432518241574 11257.910681415291
801.89804607929 11411.798564564651
802.852600851962 11483.83360535441
803.8069162141637 11351.87163968031
804.760992237856 11500.532351411139
805.714828994971 11487.525725752412
806.6684265574077 11540.566016697156
807.6217849970271 11570.154622154483
808.574904385674 11457.452782607053
809.527784795142 11569.243793471856
810.4804262972102 11606.66743570365
811.4328289636178 11374.343339681764
812.3849928660748 11194.740153171002
813.3369180762638 11121.896420854097
814.2886046658241 11213.199109827445
815.2400527063783 10935.128724800868
816.1912622695108 10933.15863675375
817.1422334267718 11040.504050718226
818.0929662496856 10832.62122542472
819.0434608097457 10590.69931620228
819.9937171784059 10621.489211889844
820.9437354271013 10566.369363132038
821.8935156272255 10590.199122762944
822.8430578501484 10440.67849536789
823.7923621672016 10286.17976755822
824.7414286496896 10377.265667551053
825.6902573688876 10343.553533190501
826.6388483960363 10366.099935124355
827.5872018023492 10230.029202053087
828.5353176590033 10256.84503015778
829.4831960371503 10179.752974704761
830.4308370079016 10185.594014341788
831.3782406423525 10244.061246429348
832.3254070115545 10153.97393821764
833.2723361865319 10076.106454687173
834.2190282382799 10034.387422980868
835.1654832377644 10191.613664756302
836.1117012559116 10030.406253359815
837.0576823636256 10145.295589327838
838.003426631778 9928.160637830895
838.9489341312074 9918.631522827516
839.8942049327197 10068.387236891647
840.8392391070975 10079.12904082072
841.7840367250865 10057.160925731714
842.7285978573982 9960.103394558837
843.672922574724 10115.759655875696
844.6170109477152 9894.562906678788
845.560863046996 9942.545352872872
846.5044789431595 9937.478234822664
847.4478587067697 9950.473517089615
848.3910024083561 10050.094429460092
849.333910118421 9964.579660612933
850.2765819074339 9947.83106525736
851.2190178458332 10011.520120178877
852.161218004032 10044.41465506062
853.1031824524016 9973.774889717854
854.0449112612987 9868.326798018888
854.9864045010327 10034.866113945403
855.9276622418947 9907.872144898312
856.8686845541379 9880.6764470175
857.8094715079915 9964.001076496334
858.7500231736467 10088.263442098778
859.690339621271 10034.600799354224
860.6304209209939 9945.776327262814
861.5702671429244 9807.388069471486
862.5098783571284 9918.050207071681
863.4492546336569 10011.182842520397
864.3883960425155 9912.20877590339
865.3273026536863 9914.366970879406
866.2659745371238 9923.683611869896
867.2044117627465 10039.810044112683
868.1426144004472 9929.534549562548
869.0805825200823 10085.708258975044
870.0183161914847 10168.126609601397
870.9558154844526 10319.82216534435
871.8930804687552 10220.367533947985
872.8301112141307 10156.456644441712
873.7669077902865 10323.668800086254
874.7034702669062 10332.368627569129
875.6397987136315 10374.878206477586
876.5758932000863 10417.035044267262
877.5117537958522 10481.699998833643
878.4473805704911 10416.170305479889
879.3827735935283 10397.881555071242
880.3179329344603 10533.41844328466
881.2528586627541 10494.23983822539
882.1875508478479 10573.633374505542
883.1220095591489 10356.345471703171
884.0562348660296 10362.30437799338
884.9902268378391 10542.294583524703
885.9239855438955 10343.885044060316
886.8575110534839 10177.791121835904
887.7908034358588 10306.681405525529
888.7238627602474 10184.776198274929
889.6566890958475 10152.29686423199
890.5892825118208 9972.957418234324
891.5216430773125 10005.053251269832
892.4537708614189 9941.31907174658
893.3856659332196 9904.996139484832
894.3173283617652 9765.186318781794
895.2487582160684 9919.147469619962
896.179955565116 9761.133067378863
897.110920477864 9552.988088344382
898.0416530232451 9588.8042011681
898.9721532701478 9497.578791211647
899.9024212874428 9684.162062652964
900.8324571439662 9465.859094278507
901.7622609085302 9400.213572100016
902.6918326499072 9345.559010616638
903.6211724368477 9453.805137301108
904.5502803380696 9442.158195510256
905.4791564222614 9553.994370750828
906.4078007580792 9347.374260468092
907.3362134141571 9336.754861561487
908.2643944590909 9353.364877821285
909.1923439614493 9275.889946097523
910.1200619897754 9242.063983801332
911.0475486125779 9445.671966048181
911.9748038983344 9287.429911984053
912.9018279155007 9271.220811816065
913.8286207324982 9200.599927072133
914.7551824177117 9196.059695423926
915.6815130395116 9151.411305160724
916.6076126662283 9090.581471200208
917.533481366163 9136.812855152122
918.4591192075914 9183.923991548756
919.3845262587565 9254.49867884735
920.3097025878706 9063.18365878463
921.2346482631237 9094.689640109578
922.1593633526682 9072.72898840634
923.0838479246304 9141.960354648192
924.0081020471061 9148.162688011564
924.9321257881656 8954.095707165412
925.8559192158464 8965.441590081595
926.7794823981512 9015.261093972818
927.7028154030686 8938.580721207756
928.6259182985414 8813.840064943683
929.5487911524906 9069.270389881745
930.4714340328119 8984.22708287976
931.3938470073608 8864.49803196129
932.3160301439748 8947.433784170944
933.2379835104548 8975.553529194147
934.1597071745709 9059.148456492843
935.0812012040769 8969.489291041868
936.002465666681 8943.480436818722
936.9235006300696 8944.053045394958
937.8443061619055 9005.180118573682
938.7648823298077 8816.124763723474
939.6852292013809 8862.238810918408
940.6053468441951 9016.420825329122
941.5252353257874 8842.254621112046
942.4448947136698 8957.698135579576
943.364325075323 8870.082465846976
944.2835264782043 8946.16239569096
945.2024989897309 8875.068215414542
946.1212426773054 8916.395995667506
947.0397576082851 8929.556369735592
947.9580438500125 9072.26243408951
948.8761014697939 9067.081104255823
949.7939305349064 9015.311975255394
950.7115311125999 8893.856111768113
951.6289032700952 8906.286292146531
952.5460470745875 9040.698625707537
953.4629625932339 8936.289337709855
954.3796498931715 9071.60445000991
955.2961090415029 8987.61119246879
956.2123401053068 8982.781270247473
957.1283431516276 8959.71397976304
958.0441182474842 8841.741369011233
958.9596654598663 9019.954302073285
959.8749848557309 8829.624917514844
960.7900765020167 8804.053332366002
961.7049404656209 8771.070281512606
962.6195768134185 8823.258840720897
963.5339856122537 8770.918028658107
964.4481669289453 8763.285450337113
965.3621208302793 8768.785789714917
966.2758473830145 8748.490250141287
967.1893466538822 8848.562825787132
968.1026187095813 8731.212638844085
969.0156636167867 8839.29024570943
969.9284814421426 8766.25247324644
970.8410722522622 8770.289158911879
971.753436113735 8679.29287603089
972.6655730931161 8735.050385487706
973.5774832569368 8813.935023011514
974.4891666716958 8665.277420742324
975.4006234038698 8702.457645041886
976.3118535198955 8647.435118971423
977.2228570861935 8800.332087807106
978.1336341691494 8824.940072135536
979.0441848351202 8668.056092419549
979.9545091504333 8762.829039231301
980.864607181391 8784.439409723984
981.7744789942699 8841.598690300752
982.6841246553086 8800.108910193721
983.5935442307236 8838.464220533471
984.5027377867027 8874.096284863934
985.4117053894024 8906.998342965586
986.3204471049557 8821.85893173879
987.2289629994648 8858.77789669839
988.1372531390007 8962.311437420127
989.0453175896091 8855.140434591685
989.9531564173067 8890.97185912904
990.860769688079 8838.943161393294
991.7681574678918 8880.303599043793
992.6753198226706 8930.826858633884
993.582256818323 8866.54684007725
994.4889685207218 8973.223397372132
995.3954549957143 9107.55478939156
996.301716309119 9153.411223404002
997.2077525267232 9012.846539919625
998.1135637142943 9029.645619685229
999.0191499375615 9056.768407065543
999.924511262232 9074.636601948007
1000.8296477539861 9109.776780452677
1001.7345594784656 8968.53579291359
1002.6392465012996 8990.737352391701
1003.5437088880753 9053.439466012875
1004.4479467043584 8908.543490967788
1005.3519600156869 8781.233697738828
1006.2557488875718 8900.996536493902
1007.1593133854858 8873.525451365262
1008.0626535748888 8845.21563040059
1008.9657695212009 8742.697998244357
1009.8686612898182 8885.89324526563
1010.7713289461135 8795.631928746981
1011.6737725554212 8736.908819133034
1012.5759921830577 8741.381331241195
1013.4779878943027 8764.538217796577
1014.379759754418 8731.729652050408
1015.2813078286254 8608.788777415672
1016.18263218213 8449.743695910905
1017.0837328801026 8557.741705580947
1017.9846099876886 8707.87206791183
1018.8852635700023 8518.434508829476
1019.7856936921362 8351.266755451346
1020.6859004191447 8670.36912920819
1021.5858838160675 8452.080693072352
1022.4856439479063 8375.47291498051
1023.3851808796389 8396.750706753428
1024.2844946762143 8451.177111909854
1025.183585402554 8443.26582046325
1026.082453123554 8269.64500049305
1026.9810979040776 8284.432435584475
1027.8795198089647 8292.417794473798
1028.777718903024 8328.248041940325
1029.6756952510368 8170.607684406602
1030.5734489177648 8171.153561402217
1031.4709799679313 8186.582499678075
1032.3682884662358 8295.548610256661
1033.2653744773506 8030.054778033265
1034.1622380659192 8168.0094209093395
1035.058879296559 8214.778628143293
1035.9552982338591 8285.19643408689
1036.8514949423825 8177.146106265453
1037.7474694866614 8120.641583048275
1038.6432219312028 8156.921905183792
1039.5387523404825 8306.94758694214
1040.4340607789582 8223.71994686553
1041.3291473110476 8174.920985470648
1042.2240120011465 8386.808139709934
1043.1186549136273 8399.352887936408
1044.0130761128294 8271.398051824342
1044.9072756630649 8354.402287271043
1045.8012536286205 8515.45138034485
1046.6950100737577 8370.155098062902
1047.588545062701 8476.545534525967
1048.481858659663 8412.435745665267
1049.3749509288118 8509.237216458487
1050.2678219343034 8427.45951403359
1051.1604717402515 8411.69650934845
1052.0529004107575 8336.333449413612
1052.9451080098825 8436.415232351163
1053.8370946016694 8399.005163521982
1054.7288602501267 8403.258124741402
1055.6204050192446 8334.194951157486
1056.511728972977 8533.452398501631
1057.402832175254 8527.670402125774
1058.2937146899785 8348.369864387652
1059.1843765810263 8277.959716997715
1060.0748179122456 8525.14953455696
1060.9650387474576 8352.95190106047
1061.855039150456 8473.303848819172
1062.7448191850071 8410.034531779973
1063.6343789148505 8413.11832086076
1064.5237184037014 8401.679741136631
1065.412837715241 8274.534987440744
1066.3017369131267 8290.483316381955
1067.190416060992 8267.957887600374
1068.0788752224398 8193.384859460686
1068.9671144610438 8183.1439883840885
1069.8551338403558 8272.39640763518
1070.7429334239023 8416.447783916185
1071.6305132751695 8145.077432695942
1072.517873457633 8292.995947196545
1073.4050140347335 8184.149083465835
1074.2919350698776 8239.89569653027
1075.1786366264623 8113.869031711889
1076.0651187678395 8148.11254740169
1076.95138155735 8025.904741174776
1077.8374250582929 7974.561422199879
1078.7232493339507 8074.388563062984
1079.608854447577 8053.06780845514
1080.4942404623907 7918.5910589993055
1081.3794074415982 8026.063620772775
1082.2643554483657 7997.769103797642
1083.149084545841 7996.637302162514
1084.033594797138 7839.725133543836
1084.9178862653516 7877.833019936952
1085.8019590135427 8073.333223145355
1086.6858131047484 7854.600907662454
1087.5694486019802 7947.087047248984
1088.4528655682225 7961.880398838434
1089.3360640664287 8119.821261043027
1090.2190441595321 7879.481702984898
1091.1018059104317 8021.199151990625
1091.98434938201 8003.323201116675
1092.866674637111 8011.813006569862
1093.748781738559 7975.492337733156
1094.6306707491512 7863.678198819846
1095.5123417316554 7886.159187360307
1096.3937947488157 7925.314493910986
1097.2750298633455 7860.770968674953
1098.156047137938 7788.384487304092
1099.0368466352556 7887.852388266731
1099.9174284179317 7894.857942840875
1100.7977925485757 7744.290931040543
1101.6779390897755 7770.732537077834
1102.5578681040806 7764.660849213835
1103.4375796540226 7796.333724042272
1104.3170738021054 7621.452570162801
1105.1963506108077 7611.68465033682
1106.0754101425773 7609.3848554288315
1106.9542524598382 7702.605007118541
1107.8328776249855 7568.525331776506
1108.7112857003904 7618.531358184989
1109.5894767483987 7506.529461632621
1110.4674508313292 7712.922150847453
1111.3452080114657 7641.960179461901
1112.2227483510815 7760.283878293636
1113.1000719124077 7802.121731831598
1113.9771787576592 7959.3345275411975
1114.854068949022 7807.187465032381
1115.7307425486542 7890.733124790725
1116.6071996186893 8022.004292962743
1117.483440221229 8226.269844686183
1118.3594644183577 8000.874447959762
1119.235272272128 8095.416648946132
1120.1108638445658 8246.828768656396
1120.9862391976712 8454.13268967596
1121.8613983934229 8390.435835986438
1122.7363414937627 8429.562673482656
1123.6110685606182 8504.281498949736
1124.485579655884 8623.613654204
1125.359874841426 8598.0270603841
1126.2339541790916 8629.877961677908
1127.1078177306936 8933.670881646442
1127.9814655580267 8706.000509943857
1128.854897722851 8761.829097137303
1129.7281142869106 8860.708391611057
1130.6011153119125 8867.73725465869
1131.473900859548 9034.853776123973
1132.3464709914697 8792.01082878743
1133.2188257693178 8734.916644994477
1134.0909652546961 8702.980284674939
1134.96288950919 8515.562927640203
1135.8345985943506 8695.977446486444
1136.7060925717087 8464.969183313156
1137.57737150277 8502.437673998927
1138.4484354490069 8443.56506852061
1139.3192844718778 8366.796258897866
1140.1899186327992 8155.4341269838305
1141.060337993178 8261.492401930938
1141.930542614382 7984.530718201784
1142.8005325577597 8045.399971500105
1143.670307884635 7798.66936806213
1144.5398686563003 7923.679627099815
1145.409214934025 7776.117498953679
1146.2783467790541 7573.132882758243
1147.1472642526023 7664.39653142985
1148.0159674158622 7544.912748828555
1148.8844563300026 7481.3801171846135
1149.7527310561618 7360.623487550582
1150.6207916554504 7265.409948412676
1151.4886381889592 7319.4580170280415
1152.3562707177498 7439.627835875782
1153.2236893028585 7319.9128146809235
1154.090894005296 7237.410807569087
1154.9578848860474 7158.772193737788
1155.8246620060709 7190.7190845657315
1156.6912254262988 7078.114239835983
1157.5575752076438 7090.83484532304
1158.42371141098 7241.970551781143
1159.2896340971656 7085.672603090029
1160.1553433270346 6985.3099686538135
1161.0208391613887 6933.7590772465655
1161.8861216610057 7147.912358513475
1162.75119088664 7098.996090727053
1163.6160468990201 6909.85563010793
1164.4806897588442 6930.745159904242
1165.3451195267917 7030.7206413251115
1166.2093362635114 6978.067163430841
1167.0733400296285 6985.381540571861
1167.9371308857444 6916.155618803246
1168.8007088924278 6982.359336223682
1169.6640741102328 7068.987796665229
1170.5272265996773 6857.485666036463
1171.390166421259 6856.893635573305
1172.252893635452 7016.552637976073
1173.1154083026995 7073.826490652611
1173.977710483421 7003.61283167642
1174.8398002380145 6814.392854545232
1175.7016776268483 7014.669773257573
1176.563342710264 6954.577758405168
1177.4247955485826 6883.3225362921585
1178.2860362020947 6959.503507584472
1179.147064731069 6905.345428109055
1180.0078811957483 7061.691265904679
1180.8684856563486 6917.229455401313
1181.7288781730604 6946.059434162472
1182.589058806052 7110.382949621057
1183.4490276154593 7265.344905184985
1184.3087846614017 7107.008498444911
1185.1683300039676 7062.120739155289
1186.027663703222 7269.654720372442
1186.8867858192025 7161.689462592387
1187.7456964119228 7208.04320472923
1188.6043955413716 7354.567586569885
1189.4628832675116 7359.4668155670315
1190.3211596502842 7436.815631892886
1191.179224749596 7449.659877555787
1192.0370786253388 7382.181654227422
1192.8947213373758 7482.185914269471
1193.7521529455407 7730.336503491034
1194.6093735096438 7474.183194140099
1195.466383089477 7457.848004213045
1196.3231817447977 7628.8776784394895
1197.1797695353398 7711.261771587333
1198.0361465208189 7505.432790817688
1198.8923127609214 7522.11688172687
1199.7482683153048 7564.783743116944
1200.6040132436028 7759.549069190417
1201.459547605431 7549.268382431872
1202.3148714603722 7499.249824081429
1203.1699848679855 7604.9572546782
1204.0248878878065 7471.747532151903
1204.8795805793507 7404.450897635119
1205.7340630020935 7535.318088424117
1206.5883352155033 7647.053746260945
1207.4423972790064 7490.342815682356
1208.2962492520237 7398.114312799187
1209.1498911939307 7338.425110111838
1210.0033231640937 7459.738516306109
1210.8565452218427 7339.385776087302
1211.7095574264913 7225.7472267072735
1212.5623598373222 7217.024643928564
1213.4149525135963 7129.886022185788
1214.2673355145507 7198.305750416829
1215.1195088993936 6999.027031276282
1215.9714727273113 7104.32140770557
1216.8232270574663 7141.388503458116
1217.6747719489904 6877.249165782293
1218.5261074609934 6862.6570925098085
1219.3772336525653 6960.012356957823
1220.2281505827668 6973.608917708359
1221.0788583106296 7023.145009384867
1221.9293568951707 6773.439858492484
1222.7796463953746 6683.013090724855
1223.629726870202 6888.21032989027
1224.4795983785934 6988.562463543848
1225.3292609794553 6813.76684262749
1226.1787147316809 6739.084704602264
1227.0279596941327 6884.379861340787
1227.8769959256424 6901.177679561444
1228.7258234850306 6905.533638638602
1229.5744424310833 6717.5423905888965
1230.422852822563 6750.766572975759
1231.2710547182105 6877.431951174483
1232.119048176739 6769.987932051929
1232.9668332568417 6532.562071032119
1233.8144100171812 6793.696797547027
1234.6617785163999 6737.049343100126
1235.508938813111 6579.088035313574
1236.3558909659114 6615.805324191783
1237.2026350333617 6705.942677195951
1238.049171074008 6701.952385672061
1238.8954991463652 6633.166835307607
1239.741619308932 6505.387954088796
1240.587531620169 7037.656094955627
1241.4332361385277 6715.709106388403
1242.2787329224248 6600.74328271578
1243.1240220302534 6539.984227392613
1243.9691035203869 6595.774770501924
1244.813977451171 6703.880976054368
1245.6586438809263 6682.074696802818
1246.5031028679496 6437.963798971969
1247.3473544705157 6658.5974814263145
1248.1913987468706 6616.327994784995
1249.0352357552383 6392.527763453441
1249.8788655538228 6423.5698618721235
1250.7222882007918 6536.982256478347
1251.565503754302 6552.141452142061
1252.4085122724755 6464.937153355144
1253.2513138134182 6607.037940904772
1254.0939084352049 6520.72533887207
1254.9362961958905 6488.892675758554
1255.7784771535007 6469.757106432624
1256.6204513660432 6486.093488271656
1257.4622188915 6713.916313281179
1258.3037797878242 6613.538072584459
1259.1451341129468 6430.926065421616
1259.9862819247755 6574.454552979279
1260.8272232811978 6509.320354188625
1261.6679582400666 6751.699517479235
1262.5084868592203 6395.163166174214
1263.34880919647 6364.702463935637
1264.1889253095997 6449.528447577381
1265.0288352563712 6610.552833487904
1265.8685390945266 6507.603656505403
1266.7080368817751 6518.909769137797
1267.5473286758115 6587.226626924593
1268.386414534294 6606.427692238794
1269.2252945148703 6269.345561526296
1270.0639686751547 6378.1839160086765
1270.9024370727402 6496.094743940117
1271.7406997651997 6296.233886212033
1272.5787568100714 6271.226980675061
1273.4166082648808 6331.265433166098
1274.2542541871244 6421.67435490342
1275.091694634275 6571.317114783155
1275.9289296637817 6330.2050725341915
1276.7659593330663 6249.390703747667
1277.6027836995308 6374.909862646227
1278.4394028205552 6438.8863542538675
1279.2758167534867 6382.608419296162
1280.112025555658 6429.338755936753
1280.9480292843746 6341.1508334704295
1281.7838279969128 6284.313506503922
1282.6194217505326 6246.807362344715
1283.4548106024686 6105.093260750013
1284.289994609926 6251.991161987314
1285.1249738300921 6447.989078276132
1285.959748320127 6239.416031183818
1286.7943181371702 6343.662394315378
1287.6286833383328 6255.064945157158
1288.4628439807038 6290.161112583546
1289.2968001213521 6087.701716701068
1290.1305518173194 6242.782592773689
1290.9640991256183 6294.9859574483335
1291.7974421032523 6026.33476708739
1292.630580807183 6223.329145939224
1293.463515294361 6252.2553343818745
1294.29624562171 6436.398141662035
1295.12877184613 6319.531986080254
1295.961094024493 6307.086730998464
1296.79321221365 6386.999742632566
1297.6251264704333 6478.434982302418
1298.4568368516466 6684.866918178983
1299.2883434140658 6519.616247160875
1300.1196462144526 6256.381673600423
1300.9507453095375 6427.541217590464
1301.7816407560313 6455.975813670148
1302.6123326106172 6405.921635437948
1303.4428209299622 6307.005568569807
1304.2731057707024 6582.599547790169
1305.1031871894502 6349.448450042797
1305.933065242798 6439.284375408913
1306.7627399873181 6432.744781649797
1307.5922114795467 6782.677641588418
1308.4214797760123 6940.874538263427
1309.2505449332057 6427.303707601337
1310.0794070076026 6661.336889489033
1310.9080660556538 6744.01423949188
1311.736522133786 6634.2731852181805
1312.5647752983987 6558.367431109417
1313.3928256058734 6515.915803864054
1314.2206731125661 6637.918062804291
1315.048317874809 6741.416543974209
1315.8757599489109 6652.533684498642
1316.7029993911547 6642.230076286876
1317.5300362578055 6943.430263745222
1318.356870605101 6671.775560394109
1319.183502489257 6583.844323548978
1320.0099319664623 6674.005035466458
1320.836159092889 6783.238069942347
1321.66218392468 6820.375790996637
1322.4880065179532 6649.826966850111
1323.3136269288134 6698.991861025221
1324.1390452133292 6781.940735599342
1324.9642614275563 6832.578669275247
1325.7892756275214 6716.311737505794
1326.6140878692295 6653.755816611652
1327.4386982086617 6963.247289563282
1328.2631067017755 6777.8278274737095
1329.0873134045069 6776.22004136812
1329.911318372764 6590.678940524364
1330.735121662441 6675.715466650136
1331.558723329399 6630.509497166468
1332.3821234294774 6588.062761417408
1333.2053220185007 6587.961529379725
1334.0283191522612 6640.109350234762
1334.851114886529 6697.98586250041
1335.6737092770582 6536.206313554471
1336.4961023795695 6492.5590150140215
1337.3182942497697 6549.32477534318
1338.1402849433325 6557.460567331704
1338.962074515921 6429.846891428167
1339.7836630231632 6357.336423163126
1340.6050505206676 6691.249434159213
1341.426237064028 6631.39253281664
1342.2472227088037 6693.8911006451435
1343.0680075105338 6307.768229966408
1343.888591524741 6288.356832190517
1344.7089748069138 6567.647393427529
1345.5291574125276 6340.5926296226235
1346.3491393970307 6253.1831342839205
1347.168920815846 6483.740062918572
1347.9885017243778 6389.996881410352
1348.8078821780036 6196.766752012404
1349.6270622320844 6298.070928216603
1350.4460419419447 6313.561141481243
1351.2648213629054 6485.275763385515
1352.0834005502438 6211.550530059927
1352.90177955923 6269.247213426586
1353.7199584451064 6675.831644510351
1354.5379372630887 6328.819195673541
1355.355716068374 6205.226783390287
1356.1732949161305 6191.006908011951
1356.9906738615155 6247.146976400161
1357.8078529596478 6210.822082016513
1358.6248322656375 6226.056111768143
1359.441611834567 6083.414692558873
1360.2581917214866 6366.432347133179
1361.0745719814367 6071.754888116064
1361.890752669433 6063.552151714214
1362.7067338404577 6094.778664947853
1363.5225155494845 6309.046382857818
1364.3380978514506 6274.192906951537
1365.1534808012839 6104.790592670904
1365.9686644538815 5921.690809241618
1366.783648864117 6271.973631016436
1367.5984340868417 6266.99976701835
1368.413020176893 6237.951822678485
1369.2274071890715 5933.647049822553
1370.0415951781652 6187.509708204427
1370.8555841989346 5818.969473189266
1371.6693743061223 5877.3699328982475
1372.48296555444 5913.817227039273
1373.2963579985844 6158.394226499806
1374.1095516932255 5987.058945728019
1374.9225466930166 5839.512677595906
1375.7353430525782 5929.753096260553
1376.5479408265164 5887.261428283756
1377.36034006941 6017.802491298662
1378.1725408358216 5987.172519364782
1378.9845431802805 5869.376323887465
1379.796347157304 6148.4028657475255
1380.6079528213813 6063.747787212067
1381.4193602269788 5779.726267233806
1382.230569428546 5794.405963745545
1383.0415804805016 6156.060803791135
1383.852393437246 6129.634788512921
1384.6630083531563 5998.492034192377
1385.4734252825892 5845.121120900924
1386.2836442798798 5903.830387395655
1387.0936653993322 5915.174461244902
1387.9034886952395 5859.158039018971
1388.713114221864 5982.225456946929
1389.5225420334482 5953.953478437275
1390.331772184214 5761.175728878139
1391.1408047283585 5703.9971014793155
1391.9496397200564 5704.920179326928
1392.758277213461 5942.118831851846
1393.5667172627054 5932.167435694389
1394.3749599218918 5760.076380618386
1395.1830052451114 5578.019912374526
1395.9908532864265 5709.757674231651
1396.7985040998774 5935.603783669906
1397.6059577394808 5672.685162393856
1398.4132142592352 5750.471325698286
1399.2202737131156 5603.827365407573
1400.027136155073 5764.328265424986
1400.8338016390353 5645.280161141423
1401.6402702189134 5597.077413044661
1402.446541948586 5699.115916144663
1403.2526168819204 5572.836900418913
1404.058495072757 5674.552740353233
1404.8641765749107 5646.315672538535
1405.6696614421799 5691.179752980416
1406.4749497283356 5906.711496037927
1407.280041487129 5593.423612957452
1408.084936772295 5378.17780345645
1408.8896356375335 5731.867732947632
1409.6941381365323 5645.20339668382
1410.498444322955 5338.276270663716
1411.3025542504402 5464.369266490907
1412.106467972606 5557.9139423545375
1412.9101855430508 5632.012157564664
1413.7137070153458 5371.6149492516815
1414.5170324430437 5427.077844630689
1415.320161879672 5472.6589772090865
1416.1230953787435 5717.183004586408
1416.925832993742 5437.747356935646
1417.7283747781275 5253.666789080219
1418.5307207853439 5567.143956139266
1419.3328710688093 5358.297157170937
1420.134825681922 5271.5468259828895
1420.9365846780584 5365.519720906994
1421.7381481105713 5534.843314191907
1422.539516032788 5411.652283179248
1423.3406884980232 5253.450480183824
1424.1416655595604 5274.275157482104
1424.942447270665 5403.292532107135
1425.7430336845828 5421.014896698089
1426.5434248545298 5184.621493222985
1427.3436208337116 5369.606679174572
1428.143621675301 5524.113660924442
1428.9434274324558 5638.560502819949
1429.7430381583108 5206.54944999121
1430.5424539059713 5349.003021566897
1431.3416747285337 5787.949842692188
1432.1407006790632 5474.685405491672
1432.9395318106053 5457.5067308114285
1433.7381681761835 5264.920074978947
1434.5366098288014 5296.946871279612
1435.3348568214424 5540.129937936235
1436.1329092070573 5322.224621722766
1436.9307670385879 5203.395033371459
1437.7284303689503 5453.669922729699
1438.5258992510335 5529.260967522318
1439.3231737377118 5371.881175780581
1440.1202538818306 5293.362716771938
1440.9171397362225 5414.564018784631
1441.7138313536925 5421.175983977415
1442.5103287870243 5118.910125682941
1443.3066320889775 5248.03746303015
1444.1027413122956 5393.370126156153
1444.8986565096966 5299.746247923109
1445.694377733882 5272.115697179253
1446.4899050375207 5071.624192852796
1447.2852384732687 5167.099283890626
1448.0803780937622 5453.7159062078335
1448.8753239516063 5007.748648918322
1449.6700760993954 5102.130895156146
1450.464634589689 4985.80237595751
1451.2589994750397 5324.892515909336
1452.0531708079689 5025.003142690521
1452.8471486409799 4974.432270372874
1453.6409330265524 5203.759422642534
1454.4345240171442 5072.237110088974
1455.2279216651987 5060.773883323999
1456.0211260231263 5040.641900421356
1456.8141371433194 5245.782833695847
1457.6069550781594 5187.634044217636
1458.3995798799897 4919.550857584882
1459.1920116011424 5054.431030027483
1459.98425029393 4992.630935217618
1460.7762960106338 5020.182548791784
1461.5681488035225 4945.906758697197
1462.3598087248392 4942.413208740769
1463.1512758268036 4998.229539472783
1463.942550161617 4907.759576668846
1464.7336317814625 4814.806386467161
1465.524520738496 4762.582558390416
1466.3152170848552 4720.223768019587
1467.1057208726506 4898.685115322969
1467.8960321539817 4736.966017238631
1468.6861509809169 4664.9830209532565
1469.4760774055085 4748.42388063764
1470.265811479785 4878.557386360314
1471.055353255755 4510.4635164991005
1471.844702785409 4663.125094741793
1472.6338601207044 4550.211544953849
1473.4228253135934 5172.620834818414
1474.2115984159936 4616.982191459389
1475.0001794798063 4437.0255487146715
1475.7885685569145 4736.258496609587
1476.576765699172 4636.098159507051
1477.3647709584238 4565.907976552128
1478.1525843864802 4775.395511880827
1478.9402060351367 4773.928283233899
1479.7276359561693 4774.544768024225
1480.514874201328 4423.10714400243
1481.3019208223468 4389.967561159293
1482.0887758709323 4504.982106815494
1482.8754393987747 4693.3532282992655
1483.6619114575406 4378.662633711012
1484.4481920988783 4573.820040796367
1485.2342813744108 4645.58507238892
1486.0201793357446 4671.365694271956
1486.8058860344572 4459.034588857758
1487.591401522117 4547.869511505306
1488.3767258502594 4559.756691582179
1489.1618590704056 4529.5427226737975
1489.9468012340494 4458.313051611876
1490.7315523926754 4542.764493199671
1491.5161125977356 4629.05292093002
1492.3004819006637 4561.128864351269
1493.084660352877 4397.684917497909
1493.8686480057622 4486.759008278677
1494.6524449106964 4773.935077044736
1495.4360511190262 4827.426065475481
1496.219466682087 4439.027201576564
1497.0026916511779 4604.124652082907
1497.7857260775945 4471.04566494759
1498.5685700125996 4602.834031399377
1499.3512235074395 4443.866194869802
1500.133686613337 4392.559138316219
1500.9159593814966 4466.53360852731
1501.698041863101 4824.389578977084
1502.4799341093094 4318.780722693326
1503.2616361712662 4286.510787405049
1504.043148100087 4720.268029849447
1504.8244699468742 4603.404392425325
1505.6056017626997 4554.662905032796
1506.3865435986281 4282.486149265683
1507.1672955056893 4553.530752230052
1507.9478575348967 4403.695243453732
1508.7282297372512 4535.271995350005
1509.5084121637192 4424.294303094009
1510.2884048652577 4481.244164706681
1511.0682078927948 4443.286514369254
1511.8478212972423 4356.247857288487
1512.6272451294917 4328.081086253582
1513.4064794404076 4482.267413899604
1514.1855242808433 4446.613799244074
1514.9643797016215 4452.640197123577
1515.743045753552 4557.142762492588
1516.5215224874191 4509.096512449191
1517.2998099539836 4237.202584920547
1518.077908203999 4413.614737074634
1518.8558172881785 4446.738470980037
1519.633537257234 4609.503907708642
1520.4110681618404 4506.069069804388
1521.1884100526604 4511.380130044323
1521.9655629803365 4415.321039710079
1522.7425269954856 4625.582422621281
1523.5193021487103 4645.725002098158
1524.2958884905856 4230.210280958027
1525.0722860716687 4390.924178543543
1525.848494942502 4387.366133308295
1526.624515153595 4498.540510384453
1527.4003467554485 4517.047517464722
1528.175989798534 4581.664592416355
1528.9514443333064 4458.670971229446
1529.726710410203 4640.22097805554
1530.5017880796331 4332.792241888675
1531.276677391992 4487.246961900403
1532.0513783976457 4617.754857886538
1532.825891146953 4503.870754561833
1533.6002156902414 4573.190059645587
1534.3743520778207 4476.3110557951995
1535.1483003599806 4488.783980892973
1535.9220605869923 4568.206888689282
1536.6956328091019 4631.213254287908
1537.4690170765407 4563.2378078935635
1538.242213439511 4557.4360564288545
1539.015221948208 4582.857143068488
1539.78804265279 4451.935848437453
1540.560675603405 4386.052896957756
1541.3331208501804 4794.5313315163085
1542.1053784432224 4694.161157523102
1542.8774484326168 4563.491260603472
1543.649330868422 4496.668719221134
1544.4210258006842 4681.699784659679
1545.1925332794308 4459.504341785323
1545.9638533546604 4424.641206606199
1546.7349860763552 4406.300921380132
1547.5059314944829 4795.581388420962
1548.27668965898 4528.890217786191
1549.0472606197673 4639.823603199264
1549.817644426752 4487.458671466131
1550.5878411298072 4718.50112522167
1551.3578507787988 4581.470946216474
1552.1276734235635 4484.407732209077
1552.8973091139233 4588.695208556955
1553.6667578996767 4720.293079726138
1554.436019830604 4718.346848434525
1555.20509495646 4663.873666862479
1555.9739833269869 4499.108931177505
1556.7426849919011 4526.103603264413
1557.511200000903 4997.842241141766
1558.2795284036674 4659.04661161768
1559.0476702498509 4612.481424290056
1559.8156255890954 4838.577538059204
1560.5833944710157 4841.717625355682
1561.3509769452048 4693.388023217968
1562.1183730612447 4702.2456062675365
1562.8855828686865 4581.114526497093
1563.6526064170703 4918.62995338096
1564.4194437559127 4793.6719698423385
1565.1860949347047 4589.469592750981
1565.9525600029283 4968.110841130072
1566.7188390100328 4925.988477644221
1567.4849320054564 4640.92623312228
1568.250839038612 4759.984356689718
1569.0165601588997 4710.927123561118
1569.7820954156887 4846.978502288629
1570.5474448583373 4668.23132981434
1571.31260853618 4559.117353635753
1572.0775864985299 4561.7267112265945
1572.8423787946813 4843.137958804995
1573.6069854739108 4591.789622081285
1574.371406585471 4695.655334420178
1575.1356421785986 4796.94127783213
1575.899692302506 4733.562508233744
1576.6635570063845 4699.015833091887
1577.4272363394157 4560.529504263473
1578.190730350747 4707.302628724632
1578.9540390895163 4618.15863704768
1579.7171626048384 4438.238031478492
1580.480100945806 4522.467956326734
1581.2428541614918 4673.5091647251675
1582.0054223009538 4655.260860004359
1582.767805413223 4680.776572993394
1583.5300035473156 4581.002347973259
1584.292016752228 4832.479859976144
1585.0538450769309 4629.305812892408
1585.8154885703807 4414.671377579513
1586.5769472815136 4480.792659281035
1587.3382212592405 4649.975278471285
1588.099310552463 4722.4041290687765
1588.8602152100484 4289.0356183925405
1589.6209352808564 4693.061529395809
1590.3814708137234 4764.501147353029
1591.14182185746 4298.806143612574
1591.9019884608679 4612.832724237215
1592.6619706727215 4312.936289747533
1593.4217685417734 4487.626159090483
1594.1813821167616 4862.887832095731
1594.9408114464022 4346.079119168173
1595.7000565793933 4616.047497779187
1596.459117564409 4529.057672889215
1597.2179944501113 4397.729015109477
1597.9766872851324 4542.789529366205
1598.735196118092 4637.9472407794665
1599.4935209975883 4699.059013742926
1600.2516619721973 4801.625966821691
1601.0096190904787 4515.8563378535855
1601.7673924009723 4512.527081111435
1602.524981952196 4531.097380799181
1603.2823877926476 4407.224669699922
1604.0396099708087 4383.423101863745
1604.7966485351371 4441.935514592891
1605.5535035340745 4527.637467151077
1606.3101750160404 4735.327953941129
1607.0666630294363 4401.232067256763
1607.822967622642 4267.620255184968
1608.5790888440224 4557.3415887477795
1609.3350267419137 4662.663663972027
1610.0907813646445 4441.432847970866
1610.8463527605145 4587.74039656499
1611.601740977805 4575.306966972149
1612.356946064785 4491.746966923805
1613.1119680696902 4220.582490369341
1613.8668070407512 4341.220613576898
1614.6214630261748 4470.724010745923
1615.375936074137 4433.394366057599
1616.1302262328118 4439.575076647004
1616.8843335503425 4447.643668514809
1617.638258074854 4464.95470902567
1618.391999854457 4398.935157268171
1619.1455589372363 4553.81821722341
1619.8989353712623 4371.872875913473
1620.65212920458 4195.599456524949
1621.4051404852235 4375.322035930243
1622.1579692611976 4410.597151625772
1622.9106155804966 4238.49705371393
1623.663079491087 4337.444381681007
1624.4153610409248 4428.749031048269
1625.1674602779385 4267.9797203279195
1625.9193772500403 4263.497434665023
1626.6711120051277 4484.576499518112
1627.4226645910676 4431.928670952474
1628.174035055721 4147.617577085973
1628.9252234469168 4349.294817620579
1629.676229812474 4189.438238752515
1630.4270542001905 4839.669954937837
1631.1776966578382 4307.963816066848
1631.9281572331747 4223.635818693025
1632.678435973945 4360.438588360584
1633.4285329278573 4322.101134122398
1634.1784481426203 4169.433278153422
1634.9281816659113 4308.166644376381
1635.677733545388 4535.718390091923
1636.4271038286934 4264.767735004429
1637.176292563452 4320.618031755233
1637.9252997972635 4369.92680368787
1638.674125577716 4468.156784630998
1639.4227699523672 4877.061845620012
1640.171232968767 4187.616938558944
1640.9195146744423 4438.209100626427
1641.6676151168977 4514.7930061664
1642.4155343436178 4522.532865936834
1643.1632724020765 4425.989648860227
1643.9108293397167 4458.256689528536
1644.658205203974 4406.003977452927
1645.4054000422566 4918.516495957245
1646.1524139019566 4448.30445157257
1646.8992468304423 4370.0320003734205
1647.6458988750728 4423.460914242822
1648.3923700831765 4548.146762613616
1649.1386605020743 4450.061420731254
1649.8847701790564 4661.889139221764
1650.6306991614038 4529.964169227756
1651.3764474963682 4571.310120965774
1652.1220152311944 4263.9704981883415
1652.867402413096 4590.7519550662455
1653.6126090892776 4475.585302673075
1654.3576353069184 4749.98711489418
1655.1024811131829 4536.26928285098
1655.8471465552066 4424.597327008169
1656.5916316801213 4512.863143574943
1657.3359365350298 4401.431980131041
1658.0800611670165 4429.724722617686
1658.824005623148 4481.470964604266
1659.5677699504722 4275.242898912256
1660.3113541960192 4499.741161708016
1661.054758406799 4557.789011874594
1661.7979826297997 4277.778452009569
1662.5410269119966 4194.6550429268045
1663.283891300338 4560.015192339479
1664.0265758417645 4194.351626004122
1664.7690805831826 4327.695435114332
1665.5114055714948 4502.794147477218
1666.2535508535748 4590.167332246272
1666.9955164762814 4097.800787037042
1667.7373024864555 4226.825336853057
1668.478908930916 4401.134617438193
1669.220335856462 4094.596036949136
1669.9615833098778 4165.496491158961
1670.7026513379296 3967.5987983263376
1671.44353998736 4230.558368747546
1672.1842493048916 4207.088854312079
1672.9247793372379 3978.6550869423263
1673.6651301310812 4080.411637382423
1674.4053017330934 4082.0670103256175
1675.1452941899242 4150.461076148635
1675.885107548207 3740.6178484227457
1676.6247418545518 3879.817200123467
1677.3641971555535 3991.9356970731133
1678.1034734977893 3960.530471784593
1678.8425709278108 3956.056114385433
1679.5814894921605 4090.688962154668
1680.320229237359 3823.275159676991
1681.0587902098978 3987.0498194314087
1681.7971724562685 3870.085654839434
1682.5353760229264 3994.2565824278267
1683.2734009563173 3943.3679342564888
1684.0112473028657 3883.7642721895704
1684.7489151089794 3929.555509981003
1685.4864044210462 3912.6678511547425
1686.2237152854377 3669.6841060637707
1686.960847748498 3901.0931005897996
1687.6978018565642 3649.4436472318084
1688.434577655944 3592.4726641382986
1689.1711751929379 3748.765378867766
1689.9075945138156 3809.580062223338
1690.6438356648396 3719.3504258349276
1691.3798986922448 3361.948366905771
1692.1157836422499 3616.662516687427
1692.851490561059 3543.736084207455
1693.587019494853 3654.1236353097565
1694.3223704897991 3292.436027984336
1695.0575435920364 3268.749848767996
1695.792538847696 3718.7898026723124
1696.527356302886 3451.7390201245703
1697.2619960036936 3351.7735629989293
1697.9964579961907 3392.1640222726346
1698.730742326432 2956.360102741462
1699.4648490404488 3099.2158562208047
1700.1987781842563 3264.2646248321093
1700.9325298038548 3567.3512478164143
1701.6661039452174 3429.4102244710302
1702.3995006543082 3309.7565442232567
1703.1327199770658 3358.9606688819913
1703.865761959416 3215.147939526013
1704.598626647261 3460.28624234736
1705.3313140864866 3117.973454919436
1706.0638243229587 3207.575594786901
1706.7961574025303 3391.757723804988
1707.528313371029 3274.434316669419
1708.260292274268 2878.3702079844247
1708.9920941580403 3182.1183105255104
1709.7237190681226 3236.102078702188
1710.4551670502697 3182.628287815579
1711.18643815022 2760.9209922261316
1711.9175324136959 3298.8654488014495
1712.6484498863938 3038.3629791136486
1713.379190614005 2922.3536686965967
1714.109754642188 3092.1841521315027
1714.8401420165883 3035.1887652862756
1715.570352782839 3201.363955361704
1716.3003869865497 3305.4487183740966
1717.0302446733076 2971.047444727151
1717.7599258886876 3016.2314631290087
1718.4894306782444 3318.1299320590974
1719.2187590875183 2938.6073857758197
1719.9479111620203 3128.7297518803507
1720.6768869472544 2951.834266958283
1721.4056864887025 3280.8279274951965
1722.1343098318284 3334.6273761943594
1722.8627570220742 2981.996536722024
1723.591028104871 2862.1958576505176
1724.3191231256242 2789.437178762753
1725.0470421297232 3036.7193482674697
1725.7747851625427 3035.0878822633613
1726.5023522694337 2949.6336209771976
1727.2297434957363 2965.567291636241
1727.9569588867635 2816.3121383902226
1728.6839984878152 3057.5118273912894
1729.4108623441734 2590.6344245567316
1730.1375505011038 3087.5551142867525
1730.8640630038426 2904.827950919016
1731.5903998976264 2815.983273602155
1732.316561227657 2902.9606198371484
1733.0425470391274 2807.754404484941
1733.7683573772065 2967.434262826576
1734.4939922870508 2832.745645797814
1735.2194518137949 2945.615405438918
1735.9447360025606 3080.6669366484894
1736.669844898439 2963.468740922113
1737.3947785465189 2826.727225796123
1738.1195369918605 2687.9532881270907
1738.8441202795093 2812.413590446775
1739.5685284544943 2855.002986596798
1740.292761561821 2787.2575087286664
1741.0168196464838 3047.0801097401204
1741.7407027534518 2873.418176822853
1742.464410927687 2850.619488851549
1743.187944214118 2813.2952278728417
1743.9113026576688 2661.669340227886
1744.634486303241 2736.669170838843
1745.3574951957125 2698.1655069107737
1746.0803293799509 2799.8580716700335
1746.8029889008048 2617.60233938323
1747.5254738031017 3052.8082863552795
1748.2477841316504 2624.344164366361
1748.969919931249 2734.392838142226
1749.6918812466665 2592.48896468951
1750.4136681226646 2931.9138986180496
1751.1352806039777 2864.3777308894473
1751.856718735331 2640.0579928227644
1752.5779825614281 2788.9641436568577
1753.2990721269507 2780.443096403998
1754.0199874765676 2958.771793300969
1754.7407286549314 2563.83601074576
1755.4612957066693 2769.4325580530162
1756.1816886763954 2674.5294884425884
1756.9019076087097 2862.8840941865287
1757.6219525481865 2875.9857759687334
1758.3418235393856 2923.2069774464435
1759.061520626854 2849.612631170131
1759.7810438551096 2889.3636945585854
1760.5003932686614 2619.4404878818
1761.2195689119999 2862.172723732917
1761.938570829594 2636.0330350412783
1762.657399065898 2816.4713952282646
1763.376053665348 2678.385267292984
1764.0945346723602 2613.436981795815
1764.812842131334 2848.3217594095913
1765.5309760866512 2544.4417389439386
1766.2489365826787 2560.9244066493325
1766.9667236637597 2761.3559746304504
1767.684337374223 2388.257458670665
1768.401777758383 2442.1134997291597
1769.1190448605284 2383.0244294196673
1769.836138724937 2549.6443027859104
1770.5530593958665 2769.037031823383
1771.2698069175603 2882.5399228513643
1771.9863813342326 2827.739900041146
1772.702782690094 2645.372254205042
1773.4190110293293 2614.5814652645213
1774.1350663961111 2896.814030149154
1774.8509488345844 2564.9108782362514
1775.5666583888924 2631.5300061836283
1776.2821951031437 2797.99288403449
1776.9975590214362 2623.994666654593
1777.7127501878585 2932.284107249166
1778.4277686464684 2686.20300237752
1779.1426144413108 2773.2788316621395
1779.8572876164162 2788.487613657272
1780.571788215797 2628.0838419129655
1781.2861162834415 2584.8244060993575
1782.0002718633277 2530.2863160632646
1782.7142549994132 2593.184765979554
1783.4280657356376 2637.5752324954456
1784.141704115922 2404.390099353136
1784.855170184177 2646.155462640256
1785.5684639842839 2689.3732421377786
1786.2815855601148 2449.5566008008855
1786.9945349555237 2652.7715593211024
1787.707312214343 2418.322523673115
1788.4199173803918 2848.1802424767675
1789.132350497468 2510.9023768642564
1789.8446116093583 2492.2933234238
1790.556700759822 2574.6119028967328
1791.2686179926077 2269.0834614881433
1791.9803633514493 2481.0030947530977
1792.6919368800554 2354.112308892857
1793.4033386221236 2597.5464418069773
1794.1145686213295 2589.717896851581
1794.8256269213307 2859.1844270971123
1795.536513565774 2720.4932097228957
1796.247228598284 2369.152297951066
1796.9577720624693 2504.571985779087
1797.6681440019165 2498.103672956155
1798.3783444602013 2596.8126651104512
1799.0883734808776 2646.214659976852
1799.7982311074884 2757.3546198214244
1800.5079173835475 2522.182502753826
1801.2174323525633 2622.35019798887
1801.9267760580187 2523.4886759627975
1802.635948543386 2479.73781406018
1803.3449498521113 2330.82426488297
1804.0537800276325 2669.041121448888
1804.7624391133668 2448.794085423167
1805.47092715271 2232.4413972169978
1806.1792441890484 2301.046991532642
1806.8873902657433 2711.593061381282
1807.5953654261448 2421.2844203954746
1808.3031697135812 2437.1490366704616
1809.0108031713662 2480.4638984701423
1809.71826584279 2537.095729423391
1810.425557771141 2422.2181323583673
1811.1326789996747 3017.603810138287
1811.839629571632 2628.3782808141887
1812.5464095302468 2432.893762654981
1813.2530189187182 2532.4379014130163
1813.959457780249 2379.9499757769545
1814.6657261580076 2652.2887202172296
1815.371824095153 2442.9076992415057
1816.0777516348262 2637.0214200140535
1816.78350882015 2329.757830972271
1817.4890956942272 2387.818475747526
1818.1945123001533 2363.997340603345
1818.8997586809928 2503.4859143560443
1819.6048348798067 2448.7544875906156
1820.3097409396287 2347.8093323624644
1821.0144769034796 2697.077763553414
1821.7190428143622 2475.0984101468216
1822.423438715261 2732.116109093916
1823.1276646491478 2496.2385439668024
1823.8317206589727 2545.6850027461815
1824.5356067876692 2469.0317204465314
1825.2393230781581 2510.7759745020444
1825.942869573335 2207.028086881167
1826.646246316086 2401.716696870067
1827.3494533492758 2517.460972750856
1828.052490715756 2520.5896043967286
1828.7553584583547 2423.658167930021
1829.458056619891 2478.232910812344
1830.1605852431585 2323.3028019843414
1830.8629443709433 2216.3693637280458
1831.5651340460063 2452.3819166644275
1832.2671543110919 2494.8616562485417
1832.9690052089318 2311.499423759701
1833.6706867822395 2210.8060448548254
1834.3721990737104 2557.7962901759697
1835.0735421260233 2521.0702664195314
1835.774715981841 2484.7123391906944
1836.4757206838058 2718.219622374221
1837.1765562745459 2057.9936465280375
1837.8772227966747 2140.7600655721676
1838.5777202927839 2393.964162473607
1839.2780488054523 2453.360113468999
1839.9782083772352 2311.4145376667175
1840.6781990506806 2630.4468000012275
1841.378020868313 2453.608963222542
1842.0776738726418 2383.9617205508757
1842.777158106157 2358.95340500759
1843.4764736113375 2271.4420463591396
1844.1756204306403 2554.8624912437876
1844.8745986065078 2391.522333093359
1845.5734081813607 2130.0939236383992
1846.2720491976124 2252.374334516464
1846.970521697649 2356.624902923305
1847.6688257238511 2343.586888990124
1848.3669613185684 2390.8161926635767
1849.0649285241452 2237.6927468660356
1849.7627273829057 2391.9637717025926
1850.460357937156 2423.05322421148
1851.1578202291857 2104.797354193287
1851.8551143012664 2375.332050969096
1852.5522401956569 2537.7630519186073
1853.2491979545957 2490.631336692054
1853.9459876203055 2083.0877395947437
1854.6426092349902 2121.9329259823207
1855.3390628408451 2265.424803686101
1856.0353484800362 2433.473483970244
1856.7314661947203 2451.691310251948
1857.4274160270397 2170.1859728586896
1858.123198019115 2232.437375258075
1858.8188122130487 2264.496833988744
1859.5142586509319 2315.645058093126
1860.209537374838 2216.036141501335
1860.9046484268183 2217.738910239018
1861.599591848917 2559.7128949245975
1862.294367683151 2234.1009030512355
1862.988975971528 2280.9336156358836
1863.6834167560355 2396.536807793435
1864.3776900786452 2382.5627295326694
1865.0717959813119 2225.683825141812
1865.7657345059724 2345.861854018403
1866.4595056945564 2329.288951038913
1867.1531095889586 2391.358298888799
1867.846546231076 2232.5121839119975
1868.5398156627743 2587.764735218051
1869.2329179259123 2329.1231148596203
1869.9258530623283 2536.15024976684
1870.618621113843 2263.815155834508
1871.3112221222636 2216.505848555654
1872.0036561293764 2258.637352222534
1872.695923176956 2367.5822701380775
1873.3880233067594 2362.317771807114
1874.0799565605212 2160.752926682772
1874.7717229799673 2216.1535253943216
1875.4633226068036 2543.230723519956
1876.1547554827175 2419.991952330795
1876.8460216493859 2229.4513721330677
1877.5371211484617 2195.032653249094
1878.2280540215852 2413.5122477345512
1878.9188203103804 2240.153046651386
1879.6094200564548 2254.3103305449094
1880.299853301396 2208.16988835362
1880.9901200867826 2461.82614935977
1881.6802204541673 2283.4159724426954
1882.3701544450942 2277.977652822633
1883.059922101087 2267.1608597412624
1883.7495234636517 2535.699081760094
1884.4389585742792 2228.4490372758437
1885.1282274744517 2114.108950345565
1885.8173302056166 2209.5838751971037
1886.506266809225 2305.1896807133235
1887.195037326701 2145.1534495358724
1887.8836417994517 2364.655228117899
1888.5720802688702 2531.771520318862
1889.260352776333 2339.4942501934474
1889.9484593632042 2343.0870096035906
1890.63640007082 2269.665965043384
1891.3241749405151 2258.9510959761838
1892.0117840135954 2253.6369899678257
1892.6992273313572 2204.3087027362426
1893.3865049350788 2215.1247578474936
1894.0736168660223 2578.65786557416
1894.7605631654333 2311.384829961331
1895.4473438745408 2004.8495846497433
1896.133959034556 2474.2429614551093
1896.820408686679 2076.9406591184224
1897.506692872088 2583.804661117858
1898.192811631945 2184.1639606903423
1898.8787650073991 2335.500542299225
1899.5645530395832 2362.2718768869795
1900.2501757696118 2492.3896228303342
1900.9356332385796 2044.0586162852737
1901.620925487574 2441.9016171174812
1902.3060525576602 2396.9207829953675
1902.9910144898859 2404.702375954804
1903.6758113252872 2031.692508460353
1904.3604431048789 2294.185751214524
1905.0449098696663 2162.7710417476364
1905.7292116606295 2268.2466744565418
1906.4133485187394 2377.5988539168548
1907.0973204849488 1860.9335664123707
1907.7811276001976 2059.683182723397
1908.4647699053967 2267.025616136564
1909.1482474414588 1992.343482134213
1909.8315602492694 2078.67915457392
1910.5147083696957 2398.408500960446
1911.1976918436012 2120.8970126444083
1911.880510711815 2254.159092382834
1912.5631650151681 2324.9102045375516
1913.2456547944657 2181.9002076249344
1913.927980090495 2133.6430425347553
1914.6101409440362 2273.58325450057
1915.2921373958416 2302.922209060802
1915.9739694866603 2123.472002832563
1916.655637257214 2542.1979140584126
1917.3371407482136 2205.3579801190526
1918.0184800003572 2426.5473838570333
1918.6996550543154 2343.0291305001538
1919.3806659507554 2343.7041582073844
1920.0615127303208 2393.4512323192816
1920.7421954336423 2288.9691089017383
1921.4227141013343 2377.5624256710653
1922.103068773993 2088.7426405458245
1922.783259492202 2394.9861829052234
1923.4632862965227 2198.11347643972
1924.1431492275078 2093.314276562656
1924.8228483256917 2194.4540848002844
1925.5023836315922 2152.21485067943
1926.1817551857057 1899.9910330441612
1926.8609630285227 2362.051577234165
1927.5400072005123 2277.11540464445
1928.218887742125 2052.7210694330092
1928.8976046938005 1910.4621897923917
1929.5761580959588 2211.5525830100796
1930.2545479890086 2344.4741654794243
1930.9327744133352 2088.749602094157
1931.6108374093164 2216.357515864191
1932.2887370173066 1978.3044838451174
1932.9664732776473 2367.7427986537673
1933.6440462306673 2198.57667694686
1934.3214559166754 2063.9207667207857
1934.9987023759659 2313.0591008458255
1935.675785648813 2241.588569446982
1936.3527057754836 1863.7118664590143
1937.029462796223 1943.0289988028992
1937.70605675126 2022.5609349595136
1938.3824876808085 2180.793782584063
1939.058755625072 2043.2641082547666
1939.7348606242267 2052.275529407369
1940.4108027184448 2115.72830449951
1941.0865819478713 2000.6305922310046
1941.7621983526478 1885.256333332644
1942.4376519728921 2008.083190534892
1943.1129428487038 2045.816174954284
1943.7880710201734 2291.885309157304
1944.4630365273733 2404.8547302583725
1945.1378394103576 1784.0267226932312
1945.8124797091714 2480.081450691944
1946.4869574638324 1788.5325465424053
1947.161272714353 2084.4760101465704
1947.8354255007234 2276.6310298476847
1948.5094158629272 2164.642900456667
1949.1832438409183 2323.303791343898
1949.8569094746435 2186.925131405952
1950.530412804037 2382.7044869201504
1951.2037538690092 2174.3426493411584
1951.8769327094578 2163.6331446212425
1952.5499493652678 2107.1803578431472
1953.222803876306 2321.8608036412297
1953.895496282421 2312.9371241157864
1954.5680266234522 2209.410063075169
1955.2403949392155 2014.0357194627973
1955.9126012695142 1927.5629111303635
1956.5846456541403 2190.2991777048555
1957.2565281328643 2010.1012158645997
1957.9282487454457 2190.274226905142
1958.5998075316202 2327.767854166351
1959.27120453112 2158.299644052664
1959.9424397836501 2108.112446425335
1960.613513328908 2371.5092973843894
1961.2844252065697 2337.118297182688
1961.9551754563017 2120.9989737084466
1962.6257641177453 1991.895500546202
1963.29619123054 2054.206976524968
1963.966456834296 1845.0014440198793
1964.6365609686181 1775.2326738183406
1965.306503673086 2126.819544642195
1965.976284987275 2036.3196747852166
1966.645904950734 2075.7985090446114
1967.315363603002 1934.7510519059717
1967.9846609836077 2145.7456396676616
1968.6537971320486 2086.34149611555
1969.3227720878222 2051.4898123788093
1969.9915858904042 2056.0870535041445
1970.660238579252 2218.8173576226154
1971.3287301938108 2049.6828875481633
1971.997060773514 1928.0636772523635
1972.665230357772 2024.2447108368135
1973.3332389859843 1884.1127107329332
1974.0010866975335 1952.059194996511
1974.6687735317864 2118.418798256155
1975.3362995280932 2241.3832631643495
1976.003664725793 2061.4019470134
1976.6708691642052 1730.840953490917
1977.3379128826364 2015.6042946213443
1978.004795920373 2221.945220338742
1978.6715183166925 2023.9703358551553
1979.3380801108524 1825.7631699092417
1980.0044813420973 2006.3864816759033
1980.6707220496555 1868.973296885774
1981.3368022727373 1933.2658917138228
1982.0027220505417 2155.7549096125103
1982.66848142225 1814.5153470018718
1983.3340804270283 1815.2548513661209
1983.999519104027 2087.73099016674
1984.6647974923835 2301.5779076730073
1985.329915631215 2312.927680112247
1985.99487355963 2052.756413784383
1986.6596713167146 2150.273717780249
1987.3243089415428 2065.5581207256664
1987.9887864731754 2241.7490006693324
1988.6531039506553 1918.7514979583477
1989.3172614130071 2309.1907972040117
1989.9812588992481 2102.9882820639586
1990.645096448372 1873.1910386238353
1991.3087740993633 2083.477949802146
1991.9722918911848 2136.07171180072
1992.635649862792 2010.2459227190138
1993.2988480531185 2282.264208424487
1993.9618865010852 2370.9167485687053
1994.6247652455968 1862.6008553934214
1995.287484325545 1835.0872378459153
1995.9500437798033 2154.3109974646068
1996.6124436472292 1941.4331241177356
1997.2746839666706 2197.2636010191936
1997.936764776954 2086.3314502593544
1998.598686116895 2129.8257543658483
1999.2604480252903 2415.4711397011056
1999.9220505409212 1944.777602870237
2000.5834937025593 1839.9676240880094
2001.2447775489582 1992.1064942493922
2001.9059021188514 2152.6266912774954
2002.5668674509616 2057.5513852707704
2003.2276735839987 1997.2295787950873
2003.8883205566508 2274.340952486312
2004.5488084075987 1961.7716423532565
2005.2091371755014 1923.8265083132906
2005.8693068990033 1960.410853189361
2006.5293176167397 2202.2401002891074
2007.1891693673224 1849.737610265502
2007.848862189354 1675.1887799278477
2008.5083961214223 2106.982431696347
2009.1677712020955 1846.3296449663344
2009.8269874699254 1763.207834379801
2010.4860449634598 1767.027434986651
2011.1449437212177 1770.9612139557407
2011.8036837817108 2120.463014666674
2012.4622651834325 2283.6944984077227
2013.1206879648653 2067.9979271378616
2013.7789521644736 1944.6228972320484
2014.4370578207036 1820.8841291517085
2015.0950049719922 1974.2476152215045
2015.7527936567585 2043.6458808214138
2016.4104239134067 2105.7872593409647
2017.067895780323 2459.979081279214
2017.725209295886 2477.1999000864735
2018.3823644984514 2494.408378398627
2019.0393614263648 2052.762065891443
2019.6962001179545 1841.75360288373
2020.3528806115355 2215.9386950900907
2021.0094029454067 1890.47172299109
2021.6657671578487 2068.2190597566523
2022.321973287133 1986.6546139366903
2022.9780213715148 1925.294282795529
2023.6339114492293 1905.6927614473236
2024.2896435585026 2012.9165972531341
2024.9452177375442 1964.5544920786833
2025.600634024544 2186.672835024551
2026.2558924576842 2099.7050980626873
2026.9109930751292 2051.404549615351
2027.565935915025 1966.0952363239019
2028.2207210155066 2152.885503498187
2028.8753484146964 2147.8296707662694
2029.529818150695 1786.5797774979553
2030.1841302615903 1797.059668491406
2030.8382847854573 1807.4189645674112
2031.4922817603601 1907.313836484651
2032.1461212243357 2024.7759133201769
2032.7998032154192 1740.9272231976763
2033.4533277716218 1990.8167410065482
2034.1066949309443 1860.8185047701204
2034.7599047313688 1987.741021532774
2035.4129572108704 2198.3866674385
2036.0658524074006 2108.634227166521
2036.7185903589016 2084.8977321806005
2037.3711711032956 1959.73703954459
2038.023594678496 2052.0111023926793
2038.675861122394 1907.0583130057955
2039.3279704728757 2123.774026717175
2039.9799227678031 1724.2123348384084
2040.6317180450278 1821.7515722617711
2041.2833563423865 2025.0893100321111
2041.9348376977014 2010.9988242489721
2042.5861621487784 2019.0543675479028
2043.2373297334088 1936.7068572038338
2043.8883404893695 1994.5928157039573
2044.5391944544208 2237.8074248687863
2045.1898916663158 2155.951241870697
2045.8404321627804 2211.3579468583494
2046.4908159815368 1955.4161649533241
2047.1410431602853 1924.1442520320154
2047.7911137367173 1729.0608795588585
2048.441027748504 1781.5149992100135
2049.090785233302 1833.9534846349857
2049.7403862287592 1838.140580335056
2050.389830772503 1719.3842065970653
2051.0391189021466 1600.5646112951972
2051.688250655294 2020.7086927281398
2052.337226069527 1805.964480455535
2052.986045182417 1755.9814484695362
2053.634708031521 1706.0700725876643
2054.283214654375 1994.9577961875286
2054.931565088511 1592.7596561964551
2055.579759371436 1882.1215851712554
2056.2277975406523 1927.7527573356042
2056.8756796336384 1833.0299200118384
2057.5234056878617 1737.9444522161211
2058.1709757407752 1935.7718642808381
2058.8183898298194 2093.8434258193847
2059.465647992416 2221.1779157965
2060.1127502659747 2178.429912616422
2060.759696687888 1854.5699200876425
2061.4064872955405 2198.1684804910187
2062.053122126292 2080.6235463832345
2062.699601217497 1689.936189521783
2063.345924606485 1959.1683778508552
2063.992092330587 2040.3698706230266
2064.638104427102 1875.4587276953175
2065.283960933324 2166.8547533319547
2065.92966188653 2090.530979599501
2066.5752073239855 2127.7862417428955
2067.2205972829397 1725.1645487009696
2067.86583180062 1992.044736932189
2068.5109109142522 1768.8081813792244
2069.15583466104 1879.4759196835978
2069.8006030781708 1990.248562276464
2070.445216202821 2109.6599922242012
2071.089674072153 2207.504986180238
2071.7339767233116 2029.4659534310063
2072.3781241934303 2025.8402483843752
2073.0221165196253 2142.1076526605534
2073.6659537390024 1909.0957864919485
2074.3096358886505 1952.4388440781943
2074.953163005637 1734.0757016300183
2075.596535127028 1872.4474065943937
2076.2397522898664 1656.1302296509348
2076.882814531182 1816.4304433214154
2077.5257218879924 1732.1983719092816
2078.1684743973 1647.8453170371274
2078.8110720960885 1710.845286349037
2079.453515021336 2171.238609047254
2080.095803209997 2049.5266119188136
2080.7379366990135 1901.1683002633417
2081.37991552532 1827.373245651173
2082.0217397258275 2033.1395025902523
2082.6634093374414 1655.3546653855392
2083.3049243970418 1992.6816638635064
2083.9462849415067 1995.073786718808
2084.587491007689 1949.1755512486484
2085.2285426324324 2030.3561823167734
2085.869439852564 1962.727415060615
2086.510182704902 1618.644055465992
2087.1507712262483 2066.8504317564084
2087.791205453381 1608.6992918042758
2088.4314854230743 2151.501693720204
2089.0716111720867 1752.9268771482798
2089.7115827371617 1841.482449416965
2090.351400155023 1780.8852286395752
2090.991063462385 1720.2707049378048
2091.6305726959527 1668.3744234791016
2092.2699278924047 1645.600406829136
2092.9091290884153 1622.8425356984178
2093.548176320641 1774.1431940172984
2094.187069625721 2039.2345019871232
2094.8258090402887 1700.763498805214
2095.464394600951 2009.7262700107572
2096.102826344313 1950.9262220972626
2096.741104306955 2128.1241875785186
2097.379228525453 1676.5539657912952
2098.017199036358 1670.17791159149
2098.6550158762147 2158.7901511982227
2099.2926790815527 2001.863278448141
2099.9301886888825 1995.7533138625517
2100.5675447347076 1950.5821297402017
2101.2047472555114 1881.6282880474687
2101.841796287761 1812.531620141976
2102.47869186792 2092.0434786343717
2103.1154340324265 1816.4296096826324
2103.752022817709 1767.2905228185925
2104.388458260184 1959.64631929891
2105.024740396251 1961.8212567692012
2105.660869262292 1823.2814536587186
2106.296844894685 2153.748729757875
2106.93266732978 1865.7543730383902
2107.5683366039284 1607.049284874789
2108.2038527534532 1902.6195950136457
2108.8392158146726 2131.76162925867
2109.4744258238843 1721.1678347910943
2110.1094828173755 1930.273281205495
2110.744386831422 1918.3211723881516
2111.3791379022787 1906.3690459748166
2112.01373606619 2110.5793743419686
2112.648181359389 1877.5611623501368
2113.28247381809 2021.680846782215
2113.916613478492 1849.660626357046
2114.550600376786 2009.7195274983387
2115.1844345491445 2127.5111897089864
2115.818116031729 1789.2073940703528
2116.451644860679 1838.5795772722518
2117.085021072133 1594.1469127733067
2117.718244702204 1711.5783930538648
2118.3513157869984 1913.4134331331275
2118.984234362604 1688.8946165704208
2119.617000465092 1892.122145863253
2120.249614130529 2105.4251715644286
2120.8820753949585 1726.0143133722565
2121.5143842944162 1804.6949913583617
2122.14654086492 1676.1971428090662
2122.7785451424734 2093.1355111559537
2123.4103971630702 2083.1510005222667
2124.042096962681 2073.372446918605
2124.6736445772767 2104.4492892754356
2125.305040042802 1687.4873561981167
2125.936283395191 2008.7915250524231
2126.567374670365 1792.2833421934222
2127.198313904233 1591.1778857002264
2127.8291011326855 1597.8990870487519
2128.4597363916037 1604.4444645505077
2129.0902197168507 1845.8005697570777
2129.720551144279 1666.8283471673737
2130.3507307097225 2101.3132648527826
2130.980758449008 2019.1848336727162
2131.6106343979427 2024.7366538799956
2132.2403585923203 2030.1899174369232
2132.8699310679276 2187.2018991742434
2133.499351860526 1847.4026543030145
2134.1286210058715 1934.492762614046
2134.7577385397053 1962.9823881118755
2135.3867044977487 1991.5935184433783
2136.0155189157176 2021.6113820425737
2136.644181829308 2055.55740538832
2137.2726932742025 2100.955115649592
2137.901053286074 2146.536005574088
2138.5292619005777 1896.067456661048
2139.1573191533535 1819.8438856351495
2139.7852250800315 1989.9739981359012
2140.4129797162295 1972.9294937034088
2141.0405830975433 1656.0700236707494
2141.6680352595613 1552.3582308135951
2142.2953362378576 1448.4653894514124
2142.9224860679915 1841.5211215445202
2143.549484785508 1576.490754682244
2144.1763324259373 1838.7870685851788
2144.803029024799 1798.712876064399
2145.429574617594 1810.4702362650223
2146.0559692398165 2093.7374009841114
2146.682212926942 1714.2511699195688
2147.308305714432 1696.3316787856663
2147.9342476377333 2081.4469557201865
2148.5600387322847 2062.3024293490166
2149.185679033506 2123.395414942548
2149.8111685768017 1898.011681101058
2150.4365073975678 1870.1210853988734
2151.061695531187 1879.3980302738705
2151.686733013021 1879.9299147389797
2152.311619878423 1730.9708938305357
2152.9363561627342 1927.3532948158147
2153.560941901278 1779.3706086936097
2154.1853771293663 1932.3501329366495
2154.809661882293 2093.0615448249614
2155.433796195348 1894.0827876128722
2156.0577801037944 2066.032199235219
2156.681613642895 2077.2276900319457
2157.3052968478896 1721.7393809710677
2157.928829754006 1793.1383344840274
2158.552212396462 1863.3636929515694
2159.1754448104566 1749.6284477651866
2159.7985270311783 1534.1526182638709
2160.4214590938027 1429.4545632566985
2161.0442410334927 1622.8261699508928
2161.6668728853874 1715.9077722117768
2162.289354684628 1722.6222390615228
2162.911686466332 1646.5663839050485
2163.533868265602 1951.0719053585933
2164.1559001175337 2118.653039472717
2164.7777820572046 1982.8872889730617
2165.399514119681 1867.6072259149307
2166.021096340013 1606.6166728746161
2166.6425287532384 2170.8938442898307
2167.263811394385 1611.8706099582892
2167.8849442984574 2094.024639898076
2168.505927500455 1510.747125565566
2169.126761035366 1879.3085701452815
2169.7474449381552 1769.2540712944824
2170.367979243778 1556.9593380740985
2170.9883639871823 2055.8006968955483
2171.608599203293 1720.044706721653
2172.2286849270276 2299.3169860207463
2172.8486211932886 2357.646851071402
2173.4684080369625 1755.9062880234935
2174.0880454929265 1537.7985848295282
2174.7075335960417 1700.8668293765518
2175.3268723811543 1706.9560956180558
2175.9460618831 1713.08558603882
2176.565102136701 1595.9552864079574
2177.1839931767627 1706.2573054128975
2177.802735038078 1816.8753394086918
2178.421327755432 1477.1630595734782
2179.0397713635866 1761.6891745781977
2179.658065897298 1605.110415493679
2180.276211391305 1802.1826130054287
2180.8942078803357 1527.3628988914866
2181.5120553991 1564.5927540362466
2182.129753982299 1601.868908499274
2182.7473036646206 1837.2396057551468
2183.3647044807367 1831.2816469640406
2183.9819564653044 1615.4768805432495
2184.599059652968 1924.6061885326485
2185.216014078367 2033.5418547931542
2185.832819776113 2087.3287674775192
2186.4494767808137 2141.1239234999707
2187.065985127063 1848.3605545311038
2187.682344849436 1745.8467097013847
2188.298555982501 2005.044981322838
2188.9146185608097 1942.9187246732267
2189.530532618901 1747.5373557307714
2190.1462981912937 1778.8550037599484
2190.761915312507 1829.3277540846848
2191.377384017036 1807.7964800732407
2191.9927043393654 1719.525683482058
2192.6078763139667 1352.844921797058
2193.2228999753006 1464.132240711266
2193.837775357808 1575.6700909747665
2194.452502495922 1380.2261587420567
2195.0670814240602 1711.756916348233
2195.6815121766285 1830.0377482966724
2196.2957947880186 1733.740372805721
2196.9099292926057 1637.2546353062526
2197.523915724758 1864.5013063884376
2198.137754118825 1625.5336235808068
2198.7514445091456 2112.508000011091
2199.3649869300443 2219.803061988876
2199.9783814158327 2327.4419500373087
2200.5916280008096 2326.1374801696847
2201.2047267192593 2076.968555568867
2201.8176776054515 1917.3394561086498
2202.430480693649 1675.406092625948
2203.0431360180955 1819.378149874377
2203.6556436130195 1952.6326478167234
2204.268003512645 1946.209868005264
2204.8802157511727 1939.8576713966947
2205.492280362796 1962.2309304275987
2206.1041973816937 1721.5117344141556
2206.715966842032 1851.6300602671174
2207.3275887779655 1557.999264076134
2207.93906322363 1814.534704878044
2208.550390213153 2074.268885242999
2209.1615697806465 1828.3804291675362
2209.7726019602105 1347.6529287027518
2210.3834867859277 1426.203960601954
2210.9942242918787 1849.1854061808856
2211.6048145121167 1602.8236311851283
2212.2152574806914 2541.8763574274594
2212.825553231638 1754.0426926873995
2213.435701798975 1710.3497979284118
2214.045703216707 1666.7955174213068
2214.655557518832 1459.8121090151176
2215.2652647393297 1360.4592149288683
2215.874824912169 1305.1056795527768
2216.4842380713 1769.8024782004657
2217.09350425067 1703.706638204872
2217.7026234842033 1711.568203974551
2218.311595805819 1929.0727767522117
2218.9204212494133 1668.6698380823077
2219.52909984888 2005.079349520482
2220.137631638092 2035.121663423967
2220.7460166509154 2065.097154781403
2221.354254921198 1857.7317764335698
2221.9623464827764 1723.1215932707807
2222.5702913694713 1874.1165128447508
2223.178089615096 1706.193444744797
2223.7857412534486 1860.3374393825197
2224.39324631831 1520.6551221585974
2225.000604843457 1494.631976424224
2225.607816862641 1638.058258720354
2226.214882409611 1781.627548401925
2226.8218015180973 1858.0914211087625
2227.4285742218217 1649.6093639721798
2228.0352005544864 1615.13855356438
2228.6416805497847 1580.552804355178
2229.248014241399 1752.3240295403666
2229.8542016629945 1814.8489564617344
2230.460242848223 1877.4739925068138
2231.0661378307304 2180.3750435661127
2231.671886644139 1531.2345255055802
2232.277489322065 1633.8916439723157
2232.8829458981127 1762.8682643734198
2233.48825640587 1892.020107334495
2234.0934208789095 2175.6518269418793
2234.6984393507955 2072.232768239933
2235.3033118550793 2129.0661273023225
2235.9080384252975 1682.7997202958327
2236.5126190949723 1508.913929795935
2237.1170538976166 1492.587594624123
2237.721342866729 1638.563139499693
2238.32548603579 1784.7800499251232
2238.9294834382763 1717.3873717132217
2239.533335107646 1745.1349254607594
2240.1370410773434 1706.8982093968903
2240.740601380803 1668.595613302457
2241.3440160514474 1509.7758001728423
2241.9472851226783 1774.1980532628172
2242.550408627896 1900.0186289949002
2243.1533866004793 2026.0817292202726
2243.756219073799 1771.3355700778004
2244.3589060812064 1635.6762910412347
2244.961447656049 1411.200082034608
2245.5638438316564 1876.615084882916
2246.166094641343 1786.6623225983105
2246.7682001184166 1509.9859817718282
2247.3701602961664 1671.576550322763
2247.971975207871 1981.8734160533863
2248.5736448867974 1937.7540025702626
2249.175169366197 1756.6957890924155
2249.7765486793123 1542.4745041599103
2250.3777828593684 1843.0433927638635
2250.9788719395783 1932.3342548235335
2251.579815953146 1805.4046244849058
2252.1806149332606 1512.5851321837163
2252.781268913097 1694.1856426949566
2253.381777925817 1508.4492081702078
2253.9821420045737 1750.0552225659296
2254.5823611825035 1974.0391425270482
2255.1824354927303 1804.6702844925355
2255.782364968365 1637.3778821869835
2256.38214964251 1469.9049569729468
2256.9817895482483 1548.9992209660538
2257.5812847186553 1499.911610409476
2258.180635186791 1450.7971985700685
2258.779840985704 1700.1372851229785
2259.37890214843 1770.852090415715
2259.97781870799 1799.5413411387603
2260.5765906973957 1828.296652049799
2261.175218149645 1510.0101233549885
2261.773701097718 1539.279174646666
2262.3720395745895 1568.5583653922504
2262.970233613216 1518.4032907389803
2263.568283246548 1580.1524389298781
2264.1661885075137 1646.4766142475596
2264.763949429038 1690.1008256618202
2265.3615660440246 1674.5816408806459
2265.959038385374 1411.548242586615
2266.5563664859637 1951.9950425824293
2267.153550378669 1608.3088454591896
2267.7505900963424 1525.9506717491604
2268.3474856718312 1443.5564131750493
2268.9442371379664 1598.9764417837264
2269.5408445275643 1464.7746229304162
2270.1373078734377 1855.9767337428627
2270.7336272083758 1763.116596904924
2271.32980256516 1587.3552803609675
2271.925833976562 1745.3479407911575
2272.5217214753357 1972.6713547911518
2273.117465094223 1598.3268953724842
2273.7130648659586 1535.3235589200092
2274.308520823257 1693.7954397908052
2274.903832998827 1978.8878416453124
2275.4990014253563 1427.249441870751
2276.094026135528 1897.7969831189616
2276.6889071620117 1443.8170574563096
2277.2836445374614 1853.260484981695
2277.878238294519 1825.374408605374
2278.472688465812 1563.519084338684
2279.066995083962 1301.2154740553183
2279.6611581815705 1572.0212485976522
2280.255177791232 1908.4436486152704
2280.8490539455233 1701.0400810748786
2281.442786677013 2020.4110667182795
2282.0363760182554 2076.737892146866
2282.6298220017943 1609.965214182281
2283.223124660155 1795.6560314278308
2283.816284025859 1569.7504745675742
2284.4093001314086 1330.1139338660028
2285.002173009292 1870.6873519237038
2285.5949026919952 1666.1171304108825
2286.1874892119777 1624.1309631640395
2286.7799326016993 1782.9406085376345
2287.3722328936 1431.1921258800626
2287.964390120109 1522.2711839700703
2288.556404313642 1663.8006295368948
2289.1482755066027 1718.007204320178
2289.7400037313873 1772.2289781066072
2290.3315890203703 1683.6476134092504
2290.9230314059205 1695.2535029712049
2291.5143309203904 1706.9309293382346
2292.1054875961236 1415.6756298999867
2292.6965014654506 2037.8887960176835
2293.287372560684 1840.149201723481
2293.878100914131 1669.0833546245444
2294.468686558086 1497.7059274083044
2295.059129524827 1597.9762807596705
2295.649429846617 1686.5102431341136
2296.239587555716 1775.1877567473261
2296.8296026843636 1764.226334412278
2297.419475264791 1822.6236761663108
2298.0092053292137 1881.016679052021
2298.598792909839 1847.3914111775116
2299.1882380388597 1699.903407993342
2299.777540748455 1770.8047181388276
2300.3667010707904 1841.6881656424437
2300.9557190380256 1853.9970084861957
2301.544594682302 1711.3426918978898
2302.1333280357503 2049.5202038959033
2302.721919130485 1921.2859183922574
2303.3103679986198 1887.0813015388117
2303.898674672242 2002.6516850521984
2304.486839183437 1501.8668960074215
2305.0748615642697 1559.6995332457961
2305.6627418468015 1609.731278535684
2306.2504800630704 1506.5221475462426
2306.8380762451143 1556.7596939336163
2307.425530424949 1663.7893626186556
2308.012842634582 1771.0517307890993
2308.6000129060103 2159.2805043083818
2309.187041271214 1954.6057739659823
2309.773927762164 1749.4943781378072
2310.3606724108213 1860.674829042903
2310.9472752491274 1637.9367740312434
2311.5337363090184 1773.8179259742512
2312.120055622414 1776.0255217893973
2312.706233221221 1403.4882585212956
2313.2922691373424 1370.8178492132074
2313.8781634026564 2013.9448907293765
2314.463916049037 1533.4911051562585
2315.049527108342 2053.3434679614306
2315.6349966124235 2019.5474472786955
2316.2203245931123 1937.8301185935986
2316.8055110822315 1529.1321584898897
2317.3905561115935 1658.0543780788278
2317.9754597129977 1431.6620942790246
2318.560221918229 1774.3568885441277
2319.1448427590603 1776.3903119954423
2319.729322267256 1360.2711895525115
2320.313660474563 1920.2810312753568
2320.8978574127195 1794.6550548736116
2321.481913113452 1668.7862109595383
2322.0658276084705 1399.157635826322
2322.6496009294806 1807.1330432922969
2323.233233108165 2291.5684006368792
2323.8167241762058 1855.813979026442
2324.4000741652617 1861.7066410624418
2324.983283106987 2032.1205209187988
2325.5663510330232 2024.478955773277
2326.1492779749933 1691.6058385144363
2326.7320639645204 1951.1094018709323
2327.3147090332004 1564.7638274613503
2327.897213212629 1578.5614190033684
2328.4795765343843 1592.2577311007549
2329.0617990300307 1388.7223166276292
2329.643880731124 1590.0112638498283
2330.22582166921 1791.643717439381
2330.807621875816 1792.9897320766636
2331.3892813824623 1394.4426253837732
2331.9708002206517 1538.2360592888563
2332.5521784218818 1641.6467678637205
2333.133416017634 1745.3403082291356
2333.7145130393765 1816.9606490501842
2334.295469518571 1767.8089390912544
2334.876285486658 1887.4228489966474
2335.456960975076 1524.1179960420745
2336.037496015242 1881.3854774558906
2336.6178906385667 1582.3474624356681
2337.198144876451 1812.0698415753996
2337.778258760278 1495.1439979479835
2338.3582323214214 1733.0359958998529
2338.938065591243 1531.2865479471534
2339.517758601087 1892.7450305480816
2340.0973113822965 1977.5004094896426
2340.676723966193 1838.987831154776
2341.255996384094 1700.1450826432513
2341.835128667295 1834.9655989639941
2342.4141208470883 1589.4107876619842
2342.992972954751 1492.3109973161195
2343.5716850215467 1359.4573196685947
2344.1502570787306 1226.2977997610028
2344.7286891575386 1448.048680996389
2345.3069812892045 1722.2611197775764
2345.885133504944 1996.8029204377751
2346.4631458359618 1554.241055003516
2347.04101831345 1807.9126550291244
2347.6187509685915 1840.421866796217
2348.196343832553 1555.437358374177
2348.7737969364935 1430.7021559073316
2349.351110311558 1773.9453058534132
2349.9282839888765 1631.7934632171675
2350.5053179995757 1568.2292259290932
2351.0822123747585 1326.1145993136688
2351.658967145526 1398.1367338196765
2352.2355823429643 1470.3616990739497
2352.812057998144 1857.8054447992035
2353.3883941421263 1559.238265890575
2353.9645908059647 1880.8714305581623
2354.540648020693 1738.5289665154553
2355.116565817336 1573.0128260454553
2355.6923442269126 1594.1548306018592
2356.2679832804224 1421.0603698285536
2356.8434830088518 1482.6971937474202
2357.41884344318 1710.7678700072768
2357.994064614377 1733.7190191669074
