#exp_cfg={"servo_angle": 0.0, "laser_lim": 100.0, "servo_angle_to": 18.0, "laser_wup": 0.0, "bt_dev": "EnSpectr-25AE3", "laser_wdn_max": 0.0, "frames": 10.0, "servo_used": 0, "servo_calib_use": 0, "laser_wdn_min": 0.0, "servo_pix_from": 90.0, "cooler_tout": 300.0, "servo_angle_from": 0.0, "servo_calib": "[-1.9174921013161362e-09, 3.9322238269163779e-05, -0.27385609119055809, 653.59552119713567]", "laser_autoctl": 0, "servo_pix_to": 3682.0, "laser_pw": 100.0, "cooler_on": 0, "laser_volt": 4.0, "cooler_autoctl": 0, "cooler_curr": 70.0, "cooler_startup": 10.0, "laser_fixed_pw": 0, "gain": 1.3, "offset": 2.53059635486, "servo_calib_degree": 3.0, "laser_curr": 55.0, "shutter": 8200.0, "servo_calib_step": 1.0, "laser_fixed_curr": 0, "exp": 2000.0, "ccd_volt": 4.7, "bt_addr": "00:06:66:62:5A:E3", "servo_delay": 500.0, "laser_autooff": 1}
#proc_cfg={"flat_auto_wnd": 200.0, "flat_auto_fr": 200.0, "flat_auto_shift": 5.0, "yconv": 1, "flatten": 1, "flatten_strength": 100.0, "xfrom": 300.0, "auto_max_frame": 2000.0, "auto_signal": 48000.0, "flat_auto_tol": 0.1, "autoclip": 1, "xrel_range": 0.0, "flat_auto_to": 4000.0, "intensity_adj": 1.0, "xrel": 7852.0, "rmhot": 1, "flat_auto_slit": 4.999999999999997, "auto_ini_exp": 300.0, "auto_off": 0, "xto": 2860.0, "flat_auto_ref": "", "flat_auto_rank": 1, "autobackg": 0, "xrel_adj": 0.0, "auto_black_lvl": 1, "base_wnd": 100.0, "sub_baseline": 0, "xconv": 2, "auto_max_exp": 1000.0, "auto_total_exp": 10000.0, "auto_exp": 0, "rmripple": 0, "black_lvl": 8288.675, "shutter_clip_adj": 0.0, "auto_bckg": 0, "flat_auto_thr": 0.9, "subbackg": 1}
316.8218498245369 30014.958612332073
317.89969571804795 29629.00475410574
318.977263876126 29631.47369602312
320.05455438786703 29287.149264134125
321.1315673423287 29185.88811896909
322.2083028285215 29286.78913716683
323.2847609354267 29035.27450631694
324.3609417519747 29008.83231820935
325.43684536705587 28891.209047511238
326.5124718695279 28658.607996229013
327.58782134820103 28737.074957983765
328.66289389184385 28404.95432701957
329.7376895891921 28237.200007879233
330.8122085289342 28257.0323441609
331.88645079971866 28177.220671887353
332.9604164901575 28079.295167696702
334.03410568881554 27971.75274459123
335.1075184842266 28106.418993063744
336.18065496487543 27868.478318936024
337.2535152192122 27859.830057410396
338.32609933564163 27712.69892981634
339.39840740253203 27689.295309938396
340.4704395082099 27543.580385147954
341.5421957409617 27472.391171885443
342.6136761890357 27587.37962793623
343.6848809406365 27331.951254351356
344.75581008392874 27286.252560193272
345.82646370703696 27206.30211424887
346.8968418980512 27115.57829059505
347.96694474501055 27076.30754221527
349.0367723359268 27031.679641500195
350.106324758759 26956.637010925373
351.1756021014353 26943.02791326319
352.2446044518383 26831.405593479052
353.31333189781435 26978.600020787795
354.38178452716966 26846.970639311407
355.449962427665 26865.525643526227
356.51786568702846 26632.494440653343
357.58549439294256 26753.342191259446
358.6528486330535 26732.324220027447
359.71992849496564 26651.653806227074
360.7867340662433 26661.43721744451
361.8532654344144 26665.10520015649
362.9195226869597 26779.574358844042
363.9855059113288 26564.773002090697
365.05121519492604 26460.835371462406
366.11665062511565 26654.11849473309
367.1818122892273 26653.521672383806
368.2467002745434 26632.07269734606
369.31131466831175 26501.2340325732
370.375655557742 26676.06666695376
371.4397230299983 26536.539427212043
372.5035171722102 26454.68516044665
373.5670380714637 26554.357341343468
374.6302858148101 26614.928124715625
375.6932604892554 26544.750726606893
376.7559621817709 26574.138297418696
377.81839097928605 26384.58906644255
378.8805469686886 26465.849566728622
379.94243023683157 26327.027162745275
381.0040408705263 26425.03972289625
382.0653789565458 26240.901589000066
383.1264445816196 26358.474638986147
384.1872378324406 26257.969448387437
385.2477587956637 26285.599223401183
386.3080075579037 26132.2376216595
387.3679842057336 25982.63030202363
388.4276888256918 26073.931649375907
389.48712150426945 26059.02524459485
390.54628232792857 25892.104328761634
391.6051713830857 25871.427119429158
392.66378875611736 25905.863008495297
393.7221345333637 25800.580344177324
394.7802088011249 25647.11824651609
395.838011645661 25708.68479610304
396.89554315319765 25526.34123956148
397.9528034099112 25462.378211459152
399.00979250194723 25295.527737412827
400.06651051541485 25221.16167996827
401.1229575363741 25319.81392835216
402.17913365085224 25333.408902762774
403.23503894483656 25187.830911074947
404.2906735042761 25104.49078243842
405.3460374150818 24851.87754747227
406.401130763119 24979.027243351848
407.455953634224 24961.35636662486
408.5105061141876 24823.347037145213
409.56478828876243 24557.79603914098
410.6188002436629 24585.01459563677
411.6725420645689 24508.623169217903
412.72601383711117 24632.789622834298
413.77921564689314 24601.082737433106
414.8321475794728 24408.11839461278
415.88480972036814 24256.756730379966
416.93720215506437 24580.516137301864
417.9893249690049 24237.209882195526
419.04117824759123 24131.293321002322
420.09276207619223 24058.409770004513
421.144076540133 24088.529158177076
422.1951217247042 24080.696458334325
423.24589771515275 24076.57507468981
424.2964045966928 23961.665173363526
425.34664245449494 23989.864533955733
426.3966113736933 23798.10445664288
427.4463114393875 23874.10841232644
428.49574273662984 23827.783053111052
429.5449053504417 23786.275826033623
430.5937993658026 23835.174527751275
431.6424248676558 23732.050936014253
432.6907819409007 23660.67618725304
433.73887067040596 23639.72265140148
434.7866911409965 23645.72460329753
435.8342434374608 23692.60751656442
436.88152764455117 23448.69253431447
437.9285438469724 23471.24384381141
438.9752921294057 23477.58892626376
440.02177257648145 23407.01144365147
441.06798527279716 23321.473927617953
442.1139303029122 23422.757628772066
443.1596077513459 23527.70544116287
444.2050177025794 23395.317076936004
445.25016024105753 23457.480765715114
446.2950354511886 23316.786103031052
447.33964341733736 23269.802699448235
448.383984223834 23186.828647200684
449.4280579549686 23149.069685362043
450.471864694995 23249.424096490464
451.5154045281306 23191.780834427987
452.5586775385509 23173.73585209866
453.60168381039693 23134.97608811975
454.64442342776783 23210.59011553278
455.6868964747264 23055.39394989913
456.7291030353008 22940.631211853026
457.77104319347563 23087.76293748234
458.8127170332027 22980.76870237723
459.854124638392 23015.531656404753
460.895266092919 23057.233535284646
461.93614148061897 23107.51398824211
462.97675088529104 23232.28185272903
464.01709439069236 23080.63816283823
465.0571720805492 23136.588272033874
466.0969840385442 23040.064940512526
467.1365303483253 23281.954444947365
468.17581109350067 23000.60228026551
469.2148263576437 23088.92590823037
470.2535762242878 23109.03696015959
471.29206077693016 23263.08758456052
472.33028009902773 23183.45246630537
473.3682342740012 23351.873091322464
474.40592338523857 23246.369093112946
475.4433475160804 23314.77457587263
476.4805067498364 23308.316797280982
477.51740116978 23478.153971410422
478.5540308591426 23503.630121628543
479.59039590112116 23663.540470510103
480.6264963788726 23595.347582570346
481.6623323755193 23969.61001313491
482.6979039741436 23950.37866339772
483.7332112577915 24256.850993480497
484.76825430947247 24358.14662718639
485.80303321215797 24589.564290818584
486.837548048783 24568.00883497447
487.8717989022425 24882.746719193186
488.90578585539697 24931.93095645443
489.9395089910686 24998.5249301275
490.97296839203955 24777.248353015573
492.00616414106116 24555.15469176629
493.0390963208429 24514.99877222995
494.0717650140559 24567.762614366635
495.10417030333883 24415.838723134173
496.1363122712901 24167.39685711734
497.16819100046814 23885.439059759825
498.1998065734024 23740.155601075567
499.2311590725767 23455.543634453243
500.26224858044407 23315.92383819566
501.2930751794156 23099.50875948223
502.3236389518679 23127.01178371847
503.35393998014115 22713.2864123644
504.38397834653733 22827.987511723575
505.4137541333221 22546.37424419065
506.4432674227228 22430.744904896863
507.4725182969323 22319.875199492853
508.5015068381035 22312.017144417074
509.53023312835467 22329.525084319823
510.55869724976765 22276.36908679497
511.58689928438434 21873.207334513314
512.6148393142121 21970.806882219196
513.6425174212218 22011.34431930349
514.6699336873462 22006.271919175964
515.6970881944835 21890.47505254503
516.7239810244901 21981.03686267585
517.7506122591931 21856.5828756514
518.7769819803761 21878.938653918965
519.8030902697901 21902.526885646694
520.8289372091476 21952.49756224058
521.8545228801249 22030.763233098514
522.8798473643619 21834.319278942137
523.9049107434621 21809.417620495828
524.9297130989908 21802.069198752466
525.9542545124805 21874.774563941806
526.9785350654201 21706.643620051997
528.0025548392696 21624.860705447296
529.0263139154504 21586.605634992902
530.0498123753423 21577.787133545233
531.073050300296 21403.51509604141
532.0960277716204 21332.422959721654
533.1187448705896 21346.274662590098
534.1412016784416 21214.467326646532
535.1633982763833 21163.171595670956
536.1853347455726 20995.890786362404
537.2070111671401 20883.702033620564
538.2284276221817 20764.621225593313
539.2495841917516 20689.376156704715
540.2704809568677 20647.463049958344
541.2911179985167 20706.297378589767
542.3114953976419 20520.459964094254
543.3316132351592 20444.478890369108
544.3514715919409 20373.594953353495
545.3710705488247 20319.24508620433
546.3904101866156 20398.983647879053
547.4094905860784 20469.803591993143
548.4283118279418 20146.790650823437
549.4468739929034 20311.01190529703
550.4651771616191 20155.10408830258
551.4832214147063 20058.433596204683
552.501006832761 20065.851443184027
553.5185334963226 20164.27392729163
554.5358014859103 20187.3963230746
555.5528108820035 20283.231786123248
556.5695617650363 20015.825901751356
557.5860542154242 20125.78999794587
558.6022883135283 20065.814638506017
559.6182641396881 19989.426746707777
560.6339817741991 20036.682141301753
561.6494412973225 20161.77479620035
562.6646427892883 20001.540886542105
563.6795863302796 20019.404530157066
564.694272000459 19908.65384313252
565.7086998799423 20160.97074018842
566.7228700488104 20025.709055441985
567.7367825871115 20095.751868970776
568.7504375748576 20086.97466441653
569.7638350920224 19988.070751874424
570.7769752185486 19984.99130902894
571.7898580343353 20055.162151983848
572.802483619258 19877.45936171158
573.8148520531431 20254.202924754994
574.8269634157932 20241.701647904858
575.8388177869692 20092.176059547655
576.8504152463938 20172.138980320717
577.8617558737587 20407.268520898615
578.8728397487175 20338.757297379678
579.883666950891 20428.67514652502
580.8942375598654 20501.104509633726
581.9045516551851 20661.346322866848
582.9146093163617 20860.260594832856
583.924410622878 20834.26718801331
584.9339556541727 20695.588322583713
585.9432444896538 21031.235226394692
586.9522772086875 20680.7323951698
587.9610538906127 20844.20182272335
588.9695746147318 20593.89334951435
589.9778394603054 20719.142996210077
590.985848506567 20586.223730766822
591.9936018327098 20515.96457620686
593.0010995178891 20200.813935805225
594.0083416412344 20332.590902251566
595.0153282818283 20094.177821249337
596.0220595187293 20142.99841163242
597.0285354309508 19819.31311975932
598.0347560974806 19778.35576266793
599.0407215972609 19702.518534126542
600.0464320092051 19727.39249060681
601.0518874121954 19710.58374591987
602.0570878850685 19678.19556405164
603.062033506636 19693.62367833651
604.0667243556636 19608.72541897693
605.0711605108936 19541.716689054978
606.0753420510264 19945.402598949604
607.0792690547278 19839.02797217537
608.082941600629 19833.598971453517
609.0863597673306 19818.26356523312
610.0895236333909 19998.476322587445
611.0924332773357 20182.301425886028
612.0950887776617 20390.823326384107
613.0974902128219 20361.560692857198
614.0996376612384 20787.721239315368
615.1015312013005 20810.904380094733
616.1031709113595 21117.30699189104
617.1045568697336 21121.380538320536
618.1056891547069 21457.650755787934
619.1065678445229 21617.76054311229
620.1071930173985 22171.118963599747
621.1075647515099 22239.888241340333
622.1076831250048 22509.9008015485
623.1075482159849 22767.02151735464
624.1071601025305 22935.202643321707
625.1065188626781 23195.352636683154
626.105624574433 23516.588405444476
627.1044773157682 23485.280755283722
628.1030771646128 23751.298983237357
629.1014241988742 23813.433211115414
630.0995184964158 23959.58034714825
631.0973601350688 23903.18924832151
632.0949491926294 24189.986226196987
633.0922857468631 23759.5909600105
634.089369875499 23704.691827706964
635.0862016562278 23674.11137459524
636.0827811667077 23344.98484106821
637.0791084845641 23086.295335471004
638.0751836873878 22877.858577410305
639.0710068527369 22824.68931770826
640.0665780581294 22465.72332334621
641.0618973810506 22123.075424834078
642.0569648989604 22045.84749799793
643.0517806892676 21685.81174056381
644.0463448293649 21439.27072589029
645.040657396592 21228.267604517772
646.0347184682723 21118.17141326116
647.0285281216875 20822.808365967845
648.0220864340772 20776.19855309066
649.0153934826558 20523.964497393048
650.0084493446047 20494.465961950307
651.0012540970674 20294.34570529071
651.9938078171526 20113.22797628047
652.9861105819346 20082.38279203238
653.9781624684565 20054.78996437775
654.9699635537254 19822.45069169819
655.9615139147136 19861.278476471853
656.9528136283589 19477.058021673125
657.9438627715699 19704.732184119464
658.9346614212154 19546.07438890049
659.925209654135 19271.558250565875
660.9155075471263 19370.389965217302
661.9055551769616 19270.939879076708
662.895352620375 19379.528296724246
663.8848999540678 19289.87169025134
664.8741972547068 18969.244454090876
665.863244598926 18921.501697431064
666.8520420633213 19021.594213141
667.8405897244611 18973.863832648953
668.8288876588758 18698.254857620974
669.8169359430613 18994.322484602963
670.8047346534822 18819.827108530262
671.7922838665672 18792.47968174768
672.7795836587156 18770.16931588359
673.766634106285 18820.203357412065
674.7534352856092 18497.496481920745
675.7399872729766 18619.99664351643
676.7262901446538 18499.51275896582
677.712343976862 18543.366017006458
678.6981488457986 18535.793624793387
679.6837048276229 18310.07244867777
680.6690119984596 18396.364992306662
681.6540704344043 18275.79891587814
682.6388802115107 18260.26941013535
683.6234414058108 18222.620186034437
684.6077540932874 18054.597122035273
685.591818349907 18031.753477024562
686.575634251587 17927.147446952767
687.5592018742263 17859.585278909733
688.5425212936734 17758.009050752145
689.5255925857564 17936.072878235376
690.5084158262707 17711.972875783795
691.4909910909646 17880.323231521837
692.4733184555644 17595.098566183886
693.4553979957618 17819.76633317193
694.4372297872123 17668.860797314475
695.4188139055404 17687.008376465004
696.4001504263324 17465.27176762014
697.3812394251509 17668.13173021609
698.3620809775111 17506.86302318452
699.3426751589104 17596.36339724232
700.3230220448004 17398.86181931488
701.3031217106054 17560.95121034739
702.2829742317172 17801.89184993018
703.2625796834873 17521.776338998054
704.2419381412474 17460.89254488497
705.22104968028 17611.543312922247
706.1999143758458 17563.23483311608
707.178532303169 17599.701393892996
708.1569035374378 17601.495380461758
709.1350281538107 17770.789832522267
710.1129062274158 17814.727658616142
711.0905378333373 18133.73154724422
712.0679230466376 18243.623919721464
713.0450619423427 18494.97007168129
714.0219545954424 18575.903128171405
714.9986010808989 18614.633116267454
715.9750014736292 18909.226248342045
716.9511558485392 19243.546533136854
717.9270642804786 19255.072901201165
718.9027268442787 19478.777858924008
719.8781436147328 19270.47404318865
720.8533146666014 19310.359022421635
721.828240074612 19107.364670161674
722.8029199134635 19046.63374263164
723.7773542578125 18788.685342532313
724.751543182294 18570.527984259927
725.7254867615029 18451.063275179164
726.6991850700015 18144.008640322485
727.6726381823228 18066.10353321264
728.6458461729599 18121.86489241645
729.6188091163858 17886.505733103862
730.5915270870246 17922.46060702305
731.5640001592856 17766.082304576594
732.536228407529 18034.826230404797
733.5082119060917 17797.408575920876
734.4799507292755 17916.570046754256
735.4514449513481 17834.850861810704
736.4226946465496 17974.803828128475
737.3936998890786 17980.712070439786
738.3644607531078 17747.963056526063
739.3349773127793 17602.171957538467
740.3052496421951 17599.685402367413
741.27527781543 17316.588450798186
742.2450619065221 17228.444334763808
743.2146019894826 17183.69452547023
744.183898138288 16993.50757470079
745.1529504268801 16682.566763483137
746.1217589291682 16666.495795681803
747.0903237190341 16478.014859799856
748.058644870318 16526.634842078216
749.0267224568397 16246.336895020795
749.994556552374 16093.951495117328
750.9621472306771 16165.409836116563
751.9294945654583 16007.06557749745
752.8965986304011 16067.50755074248
753.8634594991636 16028.155991907324
754.8300772453586 16023.142158001307
755.7964519425768 16110.154763873745
756.762583664371 16011.730230917805
757.7284724842611 15991.038103464478
758.6941184757416 15819.999270290744
759.6595217122667 15929.100757293698
760.6246822672638 16014.540851770154
761.5896002141235 15883.580338444954
762.5542756262093 15840.625643205849
763.5187085768503 15863.772115779944
764.4828991393406 15878.31823732708
765.4468473869474 15796.53682365365
766.4105533929032 15669.142897905836
767.3740172304078 15645.83761320305
768.3372389726283 15769.1091784825
769.3002186926988 15485.676518665845
770.2629564637282 15344.270763043995
771.2254523587872 15544.330076634866
772.1877064509154 15273.371218030894
773.1497188131179 15157.112707491231
774.1114895183728 15175.33638682015
775.0730186396268 15196.714460450958
776.0343062497905 15079.715365675587
776.9953524217381 15015.947646004195
777.9561572283274 15022.775752474665
778.9167207423689 15085.418903402617
779.8770430366476 14952.630965547141
780.8371241839159 14951.394373849791
781.7969642568951 14920.158551913224
782.7565633282757 15171.338840824532
783.7159214707099 14933.04151616136
784.6750387568281 14945.548764357667
785.6339152592227 14865.326998455304
786.5925510504512 14945.077985668651
787.5509462030477 14910.730870943586
788.5091007895098 14925.53110300712
789.4670148823006 14909.605481096743
790.4246885538596 14876.685061910228
791.3821218765861 14956.650343784084
792.3393149228505 14861.129592239236
793.2962677649975 14865.739444621242
794.2529804753303 15024.6812789525
795.20945312613 15089.972975275028
796.1656857896378 14993.220934147515
797.1216785380675 14950.227477457209
798.0774314435985 15207.900921911107
799.0329445783846 15348.992574651846
799.9882180145414 15360.925878935295
800.9432518241574 15403.743801035493
801.89804607929 15640.921046493391
802.852600851962 15616.393443600644
803.8069162141637 15755.245510549148
804.760992237856 15790.46607723476
805.714828994971 15963.459582118996
806.6684265574077 15920.849662953167
807.6217849970271 15784.911186607063
808.574904385674 15874.21512750288
809.527784795142 15704.23584182068
810.4804262972102 15768.59371842864
811.4328289636178 15533.245367418724
812.3849928660748 15336.889905127511
813.3369180762638 15265.182026105884
814.2886046658241 15058.97449191728
815.2400527063783 14946.972747608082
816.1912622695108 14706.03157589812
817.1422334267718 14815.544120049182
818.0929662496856 14604.057373173473
819.0434608097457 14364.488377708054
819.9937171784059 14275.074396007116
820.9437354271013 14174.217156082765
821.8935156272255 14260.2150754699
822.8430578501484 14120.181749771236
823.7923621672016 13850.053649665719
824.7414286496896 14004.619185889245
825.6902573688876 13876.55291044034
826.6388483960363 13929.229816455836
827.5872018023492 13809.531427776941
828.5353176590033 13835.580276470011
829.4831960371503 13743.862308790867
830.4308370079016 13762.844556182408
831.3782406423525 13790.678583722945
832.3254070115545 13735.20946044368
833.2723361865319 13517.52085386706
834.2190282382799 13585.664676673705
835.1654832377644 13650.378533027533
836.1117012559116 13625.816074818105
837.0576823636256 13698.287303251065
838.003426631778 13533.223534451283
838.9489341312074 13335.96000416003
839.8942049327197 13568.935469796837
840.8392391070975 13663.99669655452
841.7840367250865 13490.025509843685
842.7285978573982 13382.377922443204
843.672922574724 13547.7553427726
844.6170109477152 13391.875958415738
845.560863046996 13571.177688054784
846.5044789431595 13301.258577517317
847.4478587067697 13391.553879037314
848.3910024083561 13439.322751372834
849.333910118421 13370.470124299793
850.2765819074339 13325.641839291366
851.2190178458332 13446.097132018258
852.161218004032 13466.697533840526
853.1031824524016 13391.504089992017
854.0449112612987 13293.660316797657
854.9864045010327 13381.605058744171
855.9276622418947 13299.130738988551
856.8686845541379 13284.048824263871
857.8094715079915 13226.93881227418
858.7500231736467 13445.27762651133
859.690339621271 13363.143262236033
860.6304209209939 13410.042124280464
861.5702671429244 13222.552437816625
862.5098783571284 13397.811985697757
863.4492546336569 13460.005717554264
864.3883960425155 13361.249262251114
865.3273026536863 13361.97233097051
866.2659745371238 13427.138412972208
867.2044117627465 13541.814008772635
868.1426144004472 13480.884986351815
869.0805825200823 13576.876762798685
870.0183161914847 13739.310930709462
870.9558154844526 13800.126592622057
871.8930804687552 13719.867045749395
872.8301112141307 13660.719723755456
873.7669077902865 13859.717419087168
874.7034702669062 13937.846662714466
875.6397987136315 13993.399021232335
876.5758932000863 13940.140534080367
877.5117537958522 14198.776424698826
878.4473805704911 13973.001440034586
879.3827735935283 14014.881790843641
880.3179329344603 14113.821555419543
881.2528586627541 14236.834694138883
882.1875508478479 14170.98707549739
883.1220095591489 13901.633260145652
884.0562348660296 13940.829888943219
884.9902268378391 14072.654465453412
885.9239855438955 13844.29841498383
886.8575110534839 13672.004053894978
887.7908034358588 13704.630625676156
888.7238627602474 13634.403003819581
889.6566890958475 13549.575486914746
890.5892825118208 13316.076626505
891.5216430773125 13287.37338715129
892.4537708614189 13325.451336700111
893.3856659332196 13147.11179442493
894.3173283617652 13084.174423707269
895.2487582160684 13060.99046038988
896.179955565116 12941.041552436076
897.110920477864 12808.79982697163
898.0416530232451 12834.923177940265
898.9721532701478 12627.46224909952
899.9024212874428 12836.085611952492
900.8324571439662 12572.209778981909
901.7622609085302 12531.350985721403
902.6918326499072 12407.29169770975
903.6211724368477 12551.042918149584
904.5502803380696 12508.606307869446
905.4791564222614 12642.107156322783
906.4078007580792 12417.866021675354
907.3362134141571 12449.347049139436
908.2643944590909 12563.300587321926
909.1923439614493 12281.14460540242
910.1200619897754 12355.723930112803
911.0475486125779 12489.973869219586
911.9748038983344 12372.439577057803
912.9018279155007 12308.201435345503
913.8286207324982 12248.67357318976
914.7551824177117 12325.646825798487
915.6815130395116 12249.18847901834
916.6076126662283 12130.429649637137
917.533481366163 12245.801846151915
918.4591192075914 12280.030022635017
919.3845262587565 12308.155003435219
920.3097025878706 12193.081621714906
921.2346482631237 12119.445358410017
922.1593633526682 12151.714459340863
923.0838479246304 12195.907208266388
924.0081020471061 12232.313166855443
924.9321257881656 12029.12759938585
925.8559192158464 12062.243746531736
926.7794823981512 12100.122588793778
927.7028154030686 11925.208562077358
928.6259182985414 11885.375762412843
929.5487911524906 12088.490471773086
930.4714340328119 12051.414489059389
931.3938470073608 11884.739098626258
932.3160301439748 11969.452060226271
933.2379835104548 11957.943568612944
934.1597071745709 12025.978666464976
935.0812012040769 12035.42625025225
936.002465666681 11960.789671585779
936.9235006300696 11907.608335391324
937.8443061619055 11875.482713285435
938.7648823298077 11885.32343799286
939.6852292013809 11840.053580558779
940.6053468441951 11957.300381273664
941.5252353257874 11753.512767847129
942.4448947136698 11841.278380587255
943.364325075323 11898.746468402538
944.2835264782043 11942.480670732639
945.2024989897309 11865.482946262786
946.1212426773054 11878.792498698042
947.0397576082851 11938.097824843586
947.9580438500125 12040.45220102628
948.8761014697939 12015.272334471338
949.7939305349064 11952.651793978941
950.7115311125999 11916.425137302718
951.6289032700952 11915.596708649224
952.5460470745875 12050.049576731577
953.4629625932339 11854.984802115137
954.3796498931715 12059.168825142111
955.2961090415029 11993.129825747272
956.2123401053068 11923.442834881213
957.1283431516276 11897.922744577867
958.0441182474842 11832.820622065454
958.9596654598663 11997.500430586533
959.8749848557309 11899.548073097929
960.7900765020167 11813.558290116034
961.7049404656209 11804.812729792922
962.6195768134185 11849.42734419246
963.5339856122537 11784.319811701198
964.4481669289453 11817.321183396682
965.3621208302793 11723.306658547765
966.2758473830145 11707.495655040997
967.1893466538822 11898.173786082614
968.1026187095813 11756.723313060362
969.0156636167867 11812.061263226331
969.9284814421426 11755.425112861712
970.8410722522622 11793.589894485069
971.753436113735 11715.435419279956
972.6655730931161 11748.832650454346
973.5774832569368 11864.320162575934
974.4891666716958 11725.449510186165
975.4006234038698 11646.982627494795
976.3118535198955 11725.22089093574
977.2228570861935 11767.626969954254
978.1336341691494 11802.096869067218
979.0441848351202 11708.73976340171
979.9545091504333 11791.014249133546
980.864607181391 11901.236675773489
981.7744789942699 11887.65158951072
982.6841246553086 11858.30683877206
983.5935442307236 11850.782350602778
984.5027377867027 11934.141628747067
985.4117053894024 11900.32771364328
986.3204471049557 11944.822650174701
987.2289629994648 11986.308512678454
988.1372531390007 12110.01088896328
989.0453175896091 11911.392138713318
989.9531564173067 11967.511982517875
990.860769688079 11944.394558120935
991.7681574678918 11965.54106875035
992.6753198226706 12118.998249515793
993.582256818323 12024.733399091854
994.4889685207218 12102.11457878997
995.3954549957143 12280.408356832653
996.301716309119 12284.104465553832
997.2077525267232 12268.474602363432
998.1135637142943 12136.721176900726
999.0191499375615 12247.864743459893
999.924511262232 12023.14160154579
1000.8296477539861 12117.63627808443
1001.7345594784656 11994.71868815554
1002.6392465012996 12032.484642517751
1003.5437088880753 12088.615713854782
1004.4479467043584 11901.308198514322
1005.3519600156869 11686.984354161834
1006.2557488875718 11834.160302789289
1007.1593133854858 11838.232310870877
1008.0626535748888 11778.114554620504
1008.9657695212009 11626.828346281645
1009.8686612898182 11907.580947015404
1010.7713289461135 11725.954202139836
1011.6737725554212 11713.929601948734
1012.5759921830577 11710.7761397953
1013.4779878943027 11568.437381058195
1014.379759754418 11578.447744287027
1015.2813078286254 11434.988984242704
1016.18263218213 11311.638026465744
1017.0837328801026 11444.114445695404
1017.9846099876886 11542.618357902891
1018.8852635700023 11306.936123675765
1019.7856936921362 11195.163743618692
1020.6859004191447 11421.198606992732
1021.5858838160675 11105.879203525443
1022.4856439479063 11226.342536969383
1023.3851808796389 11110.83235318535
1024.2844946762143 11323.621913956205
1025.183585402554 11209.173623528355
1026.082453123554 11115.234903886165
1026.9810979040776 11088.019903739643
1027.8795198089647 11144.960053484014
1028.777718903024 11206.747499308907
1029.6756952510368 10985.255895886678
1030.5734489177648 10939.31037555513
1031.4709799679313 11100.226742348326
1032.3682884662358 11050.767447398628
1033.2653744773506 10889.484007225898
1034.1622380659192 10895.196871682776
1035.058879296559 10971.710719054388
1035.9552982338591 11120.163745488888
1036.8514949423825 10934.513688401565
1037.7474694866614 10911.135414309903
1038.6432219312028 11024.073086495117
1039.5387523404825 11001.325258349929
1040.4340607789582 10925.345677092102
1041.3291473110476 10971.558341328371
1042.2240120011465 11146.752049976096
1043.1186549136273 11112.026311004913
1044.0130761128294 10920.926425219275
1044.9072756630649 11017.035258586227
1045.8012536286205 11163.335637361592
1046.6950100737577 11053.580921420695
1047.588545062701 11099.033014801369
1048.481858659663 11085.82285752018
1049.3749509288118 11206.487187383735
1050.2678219343034 10961.079193210764
1051.1604717402515 10997.01582448794
1052.0529004107575 10993.336358900817
1052.9451080098825 11114.138271616797
1053.8370946016694 11048.654454464513
1054.7288602501267 11069.319458535381
1055.6204050192446 10989.308620928228
1056.511728972977 11169.812935481836
1057.402832175254 11124.327619978365
1058.2937146899785 10956.413235338554
1059.1843765810263 10931.601352541511
1060.0748179122456 11092.329158519338
1060.9650387474576 11147.454727348437
1061.855039150456 11092.7123027762
1062.7448191850071 11057.47244359239
1063.6343789148505 11102.50428464623
1064.5237184037014 11097.774721426415
1065.412837715241 11013.630656513731
1066.3017369131267 10986.089770124547
1067.190416060992 11055.081924915667
1068.0788752224398 10906.832961768527
1068.9671144610438 10964.621282024329
1069.8551338403558 11052.87992682451
1070.7429334239023 11129.661029607452
1071.6305132751695 10924.890234909686
1072.517873457633 10951.041664373484
1073.4050140347335 10903.676705240026
1074.2919350698776 10962.08339490867
1075.1786366264623 10898.266840881652
1076.0651187678395 10917.537146779094
1076.95138155735 10729.476874743403
1077.8374250582929 10774.50103746325
1078.7232493339507 10874.33772967455
1079.608854447577 10820.398552521248
1080.4942404623907 10747.671872540612
1081.3794074415982 10870.29641264382
1082.2643554483657 10731.222762936746
1083.149084545841 10736.402746880103
1084.033594797138 10654.266041404297
1084.9178862653516 10641.345063089018
1085.8019590135427 10865.191542061624
1086.6858131047484 10622.331043898215
1087.5694486019802 10783.130752258374
1088.4528655682225 10699.550688050198
1089.3360640664287 10890.829700047118
1090.2190441595321 10737.256616657458
1091.1018059104317 10788.51261372353
1091.98434938201 10832.27177942816
1092.866674637111 10858.395341956984
1093.748781738559 10808.24887240121
1094.6306707491512 10648.380839528822
1095.5123417316554 10784.991477422293
1096.3937947488157 10717.131124692325
1097.2750298633455 10688.635176871716
1098.156047137938 10652.967381609278
1099.0368466352556 10768.049673144309
1099.9174284179317 10748.860410652173
1100.7977925485757 10612.642363407878
1101.6779390897755 10612.209395060283
1102.5578681040806 10676.265727468464
1103.4375796540226 10590.647565031391
1104.3170738021054 10602.340950924
1105.1963506108077 10530.079967171407
1106.0754101425773 10533.431966791857
1106.9542524598382 10619.087971197298
1107.8328776249855 10528.661908414839
1108.7112857003904 10519.382995124213
1109.5894767483987 10478.400177872853
1110.4674508313292 10698.93555904956
1111.3452080114657 10671.956641072662
1112.2227483510815 10713.231631817109
1113.1000719124077 10817.42425346892
1113.9771787576592 11047.323622588243
1114.854068949022 11008.14392422044
1115.7307425486542 11072.681867061956
1116.6071996186893 11260.30310464444
1117.483440221229 11520.672522957984
1118.3594644183577 11246.315310250882
1119.235272272128 11394.270587917266
1120.1108638445658 11688.02628076253
1120.9862391976712 11902.666419704472
1121.8613983934229 11866.74406531764
1122.7363414937627 11759.110368162928
1123.6110685606182 12037.902294964199
1124.485579655884 12183.407921690045
1125.359874841426 12102.657934463465
1126.2339541790916 12118.89189408386
1127.1078177306936 12447.16355949969
1127.9814655580267 12221.591333899829
1128.854897722851 12219.15632675134
1129.7281142869106 12303.654007504261
1130.6011153119125 12313.069459961105
1131.473900859548 12331.575826213257
1132.3464709914697 12157.3901568808
1133.2188257693178 12002.131684757813
1134.0909652546961 11911.639920693418
1134.96288950919 11800.004613827216
1135.8345985943506 11924.851762516006
1136.7060925717087 11664.117376539125
1137.57737150277 11711.138229392072
1138.4484354490069 11602.099856262796
1139.3192844718778 11369.78048547544
1140.1899186327992 11202.613449446599
1141.060337993178 11341.793843669882
1141.930542614382 11113.136257478183
1142.8005325577597 11016.649066053938
1143.670307884635 10709.435527791991
1144.5398686563003 10872.433418065355
1145.409214934025 10703.103454079785
1146.2783467790541 10565.753304955611
1147.1472642526023 10479.433201658785
1148.0159674158622 10550.641001509488
1148.8844563300026 10385.740144610852
1149.7527310561618 10252.872641972403
1150.6207916554504 10158.456891653506
1151.4886381889592 10200.405839404635
1152.3562707177498 10229.441923983111
1153.2236893028585 10041.192561518847
1154.090894005296 10010.850828146045
1154.9578848860474 10124.430216989218
1155.8246620060709 10094.278362537563
1156.6912254262988 9984.078351932814
1157.5575752076438 9921.38542377272
1158.42371141098 10116.633705482687
1159.2896340971656 9956.043457286982
1160.1553433270346 9937.98937925332
1161.0208391613887 9950.670289047112
1161.8861216610057 9941.807842208913
1162.75119088664 9973.688984504002
1163.6160468990201 9770.369744550013
1164.4806897588442 9683.540027754236
1165.3451195267917 9900.461510337376
1166.2093362635114 9860.057272565831
1167.0733400296285 9773.70036026235
1167.9371308857444 9716.624091637665
1168.8007088924278 9711.954543486154
1169.6640741102328 9825.091338043549
1170.5272265996773 9615.461796935779
1171.390166421259 9641.616353835228
1172.252893635452 9808.168367854725
1173.1154083026995 9871.942071410067
1173.977710483421 9824.751627185244
1174.8398002380145 9688.155300225375
1175.7016776268483 9771.300164256398
1176.563342710264 9858.196938501096
1177.4247955485826 9731.425742832418
1178.2860362020947 9797.989242657433
1179.147064731069 9754.980886594192
1180.0078811957483 9864.102426967038
1180.8684856563486 9734.874320050245
1181.7288781730604 9686.928992696034
1182.589058806052 9922.0945609995
1183.4490276154593 10110.90786795189
1184.3087846614017 9921.419899826553
1185.1683300039676 9936.720675091081
1186.027663703222 10210.684555179912
1186.8867858192025 10030.394419891036
1187.7456964119228 10108.530378896747
1188.6043955413716 10149.00168421592
1189.4628832675116 10227.923225395396
1190.3211596502842 10218.435176629035
1191.179224749596 10301.089184692724
1192.0370786253388 10157.818186393653
1192.8947213373758 10360.56323744116
1193.7521529455407 10553.986090551578
1194.6093735096438 10336.97846052851
1195.466383089477 10370.101253580639
1196.3231817447977 10474.77014592579
1197.1797695353398 10596.314747751301
1198.0361465208189 10349.356135566963
1198.8923127609214 10278.422911153622
1199.7482683153048 10484.598578029072
1200.6040132436028 10587.532652782244
1201.459547605431 10396.809640586629
1202.3148714603722 10236.77828949098
1203.1699848679855 10457.987476755483
1204.0248878878065 10370.181812737657
1204.8795805793507 10181.348922657236
1205.7340630020935 10372.730367495718
1206.5883352155033 10460.701935469855
1207.4423972790064 10308.401326417948
1208.2962492520237 10203.457274103524
1209.1498911939307 10143.289722207086
1210.0033231640937 10259.43211629006
1210.8565452218427 10180.01012596553
1211.7095574264913 10121.316269660549
1212.5623598373222 9949.065425054761
1213.4149525135963 9971.011555538249
1214.2673355145507 9993.693632151813
1215.1195088993936 9756.587981221486
1215.9714727273113 9803.726860917242
1216.8232270574663 9982.765345866548
1217.6747719489904 9678.75641501971
1218.5261074609934 9603.04185466021
1219.3772336525653 9672.88938916817
1220.2281505827668 9688.624672682718
1221.0788583106296 9846.650732545077
1221.9293568951707 9466.391649884008
1222.7796463953746 9494.388303334163
1223.629726870202 9768.384469647925
1224.4795983785934 9668.510826271175
1225.3292609794553 9597.183670120041
1226.1787147316809 9401.490852331655
1227.0279596941327 9658.87740606458
1227.8769959256424 9538.1886412229
1228.7258234850306 9549.651261333895
1229.5744424310833 9355.817127456701
1230.422852822563 9583.79363295292
1231.2710547182105 9705.969283609462
1232.119048176739 9486.267706976456
1232.9668332568417 9340.23326025133
1233.8144100171812 9550.809076926898
1234.6617785163999 9575.790428465718
1235.508938813111 9348.524638718285
1236.3558909659114 9476.212973147929
1237.2026350333617 9615.754937606864
1238.049171074008 9640.244792892221
1238.8954991463652 9403.913891638967
1239.741619308932 9459.505354587436
1240.587531620169 9666.878299554188
1241.4332361385277 9501.54572998948
1242.2787329224248 9249.025950913281
1243.1240220302534 9405.542708359004
1243.9691035203869 9317.475324602641
1244.813977451171 9516.305456916325
1245.6586438809263 9431.214642131468
1246.5031028679496 9132.508586657788
1247.3473544705157 9499.566473554089
1248.1913987468706 9562.70295687694
1249.0352357552383 9372.984922501357
1249.8788655538228 9363.065919829229
1250.7222882007918 9437.009182813787
1251.565503754302 9453.045054091857
1252.4085122724755 9338.592701739017
1253.2513138134182 9492.145631468778
1254.0939084352049 9364.88082475675
1254.9362961958905 9444.501052808966
1255.7784771535007 9343.785898626798
1256.6204513660432 9329.17277490776
1257.4622188915 9561.241036398353
1258.3037797878242 9375.286962782859
1259.1451341129468 9275.397897332217
1259.9862819247755 9340.159217478908
1260.8272232811978 9343.777995484297
1261.6679582400666 9533.252569056333
1262.5084868592203 9190.464256308067
1263.34880919647 9244.904207624828
1264.1889253095997 9356.116092665092
1265.0288352563712 9408.304333866017
1265.8685390945266 9272.733617395139
1266.7080368817751 9301.705702563555
1267.5473286758115 9369.54174080793
1268.386414534294 9385.338444332523
1269.2252945148703 9147.514450341801
1270.0639686751547 9297.077667748152
1270.9024370727402 9300.781809408223
1271.7406997651997 9240.592220582894
1272.5787568100714 9217.938694895342
1273.4166082648808 9264.497231928472
1274.2542541871244 9367.811531430107
1275.091694634275 9517.746610878085
1275.9289296637817 9094.412509452417
1276.7659593330663 9232.557956080942
1277.6027836995308 9115.638270317419
1278.4394028205552 9362.864827568006
1279.2758167534867 9135.994958518777
1280.112025555658 9241.557042716007
1280.9480292843746 9238.475564495222
1281.7838279969128 9077.436180934057
1282.6194217505326 9083.33157048058
1283.4548106024686 9052.253809580163
1284.289994609926 9082.54157461613
1285.1249738300921 9106.653333546437
1285.959748320127 9020.1758610469
1286.7943181371702 9103.67728990838
1287.6286833383328 9119.996050376929
1288.4628439807038 9206.39563149076
1289.2968001213521 8995.076107311867
1290.1305518173194 9053.466154530945
1290.9640991256183 9129.01515580984
1291.7974421032523 8855.211788424274
1292.630580807183 9156.677562592002
1293.463515294361 9311.402243426317
1294.29624562171 9193.860221471889
1295.12877184613 9092.85399610675
1295.961094024493 9209.828789245748
1296.79321221365 9351.702068702292
1297.6251264704333 9327.173408540382
1298.4568368516466 9470.38797969107
1299.2883434140658 9376.581711652143
1300.1196462144526 9182.948716559808
1300.9507453095375 9420.884559248352
1301.7816407560313 9334.890501323383
1302.6123326106172 9285.586849633266
1303.4428209299622 9155.571537550622
1304.2731057707024 9426.412105419004
1305.1031871894502 9237.358029333704
1305.933065242798 9357.86416819569
1306.7627399873181 9266.577819580558
1307.5922114795467 9579.571748391461
1308.4214797760123 9558.540036877015
1309.2505449332057 9478.095129247184
1310.0794070076026 9461.96030656092
1310.9080660556538 9618.166584179666
1311.736522133786 9551.351999192348
1312.5647752983987 9614.86357077426
1313.3928256058734 9455.456001803594
1314.2206731125661 9588.649158333203
1315.048317874809 9494.297528532206
1315.8757599489109 9487.552301487794
1316.7029993911547 9482.3334272719
1317.5300362578055 9698.792786321254
1318.356870605101 9474.157469276675
1319.183502489257 9563.292826424167
1320.0099319664623 9677.038507098947
1320.836159092889 9608.94901958417
1321.66218392468 9668.233170256191
1322.4880065179532 9536.193121344908
1323.3136269288134 9658.030053775696
1324.1390452133292 9890.586974711043
1324.9642614275563 9822.074243222853
1325.7892756275214 9605.777454449668
1326.6140878692295 9578.5214486558
1327.4386982086617 9958.489899592341
1328.2631067017755 9802.717385982638
1329.0873134045069 9636.00063733217
1329.911318372764 9667.398616610382
1330.735121662441 9613.918039221337
1331.558723329399 9543.537956041091
1332.3821234294774 9413.778041620959
1333.2053220185007 9525.101053114859
1334.0283191522612 9614.908090974564
1334.851114886529 9639.666675125713
1335.6737092770582 9419.088467272337
1336.4961023795695 9467.20443298827
1337.3182942497697 9480.17734252183
1338.1402849433325 9379.701127372426
1338.962074515921 9359.696732910486
1339.7836630231632 9134.246225634319
1340.6050505206676 9614.69408476172
1341.426237064028 9598.908592734022
1342.2472227088037 9544.907968347983
1343.0680075105338 9101.039510518465
1343.888591524741 9212.10614966569
1344.7089748069138 9427.907441567859
1345.5291574125276 9133.114164702249
1346.3491393970307 9000.671139029055
1347.168920815846 9298.729870623387
1347.9885017243778 9213.361584623188
1348.8078821780036 9151.147302447103
1349.6270622320844 9165.683026616725
1350.4460419419447 9099.447565793042
1351.2648213629054 9209.605952548476
1352.0834005502438 8961.278908161834
1352.90177955923 9008.966081160605
1353.7199584451064 9450.98456205451
1354.5379372630887 9099.297885641716
1355.355716068374 8915.165106069428
1356.1732949161305 8878.597093745218
1356.9906738615155 9023.467625983943
1357.8078529596478 9118.060008137398
1358.6248322656375 9061.501214484626
1359.441611834567 8866.966363493937
1360.2581917214866 9062.301196526645
1361.0745719814367 8929.74002378694
1361.890752669433 8867.483307533892
1362.7067338404577 8779.125421690893
1363.5225155494845 9040.809306351259
1364.3380978514506 8964.632538050424
1365.1534808012839 8682.373248807984
1365.9686644538815 8623.741292989398
1366.783648864117 9109.227258042776
1367.5984340868417 9053.55503455747
1368.413020176893 9029.869076052852
1369.2274071890715 8572.106404952156
1370.0415951781652 9028.10264343338
1370.8555841989346 8545.02706636368
1371.6693743061223 8672.140883942342
1372.48296555444 8521.823064781205
1373.2963579985844 8860.53388981069
1374.1095516932255 8749.312766549705
1374.9225466930166 8656.078458687423
1375.7353430525782 8675.36353330661
1376.5479408265164 8642.455744848576
1377.36034006941 8848.30378622202
1378.1725408358216 8748.28386407178
1378.9845431802805 8520.924772139151
1379.796347157304 8887.1341277941
1380.6079528213813 8743.08909767593
1381.4193602269788 8524.937230559848
1382.230569428546 8532.132648152668
1383.0415804805016 8871.277970274838
1383.852393437246 8792.255474091995
1384.6630083531563 8650.335426401882
1385.4734252825892 8503.343473614854
1386.2836442798798 8688.27699444081
1387.0936653993322 8610.814433820999
1387.9034886952395 8601.98308023303
1388.713114221864 8649.471739113518
1389.5225420334482 8708.706473685244
1390.331772184214 8417.008693353433
1391.1408047283585 8286.11774547755
1391.9496397200564 8315.700073479094
1392.758277213461 8605.289977336444
1393.5667172627054 8610.479389222586
1394.3749599218918 8385.982633806712
1395.1830052451114 8172.5011767498
1395.9908532864265 8335.988134708019
1396.7985040998774 8548.704876695907
1397.6059577394808 8161.232765484322
1398.4132142592352 8273.999616600282
1399.2202737131156 8161.335992423921
1400.027136155073 8165.900454866768
1400.8338016390353 8186.181045281631
1401.6402702189134 8192.039833779294
1402.446541948586 8254.642534819694
1403.2526168819204 8050.603312375029
1404.058495072757 8124.657655498867
1404.8641765749107 8003.609805557224
1405.6696614421799 8181.500477616192
1406.4749497283356 8309.069816619107
1407.280041487129 7962.151129651744
1408.084936772295 7783.024646952834
1408.8896356375335 8032.3756415456055
1409.6941381365323 8064.879104316773
1410.498444322955 7796.304835667713
1411.3025542504402 7815.079064151146
1412.106467972606 7945.979910997759
1412.9101855430508 7959.276294334649
1413.7137070153458 7725.393807688694
1414.5170324430437 7684.732324193817
1415.320161879672 7736.955880840939
1416.1230953787435 8024.453797807189
1416.925832993742 7745.4981727753275
1417.7283747781275 7622.549224271592
1418.5307207853439 7857.900049642565
1419.3328710688093 7779.3332734844735
1420.134825681922 7588.355838691498
1420.9365846780584 7627.887131406014
1421.7381481105713 7951.9211288785355
1422.539516032788 7794.542334888906
1423.3406884980232 7495.469304251163
1424.1416655595604 7495.952528918295
1424.942447270665 7589.5684958774045
1425.7430336845828 7696.729858155179
1426.5434248545298 7430.441650844701
1427.3436208337116 7656.962845658862
1428.143621675301 7856.969500258888
1428.9434274324558 7865.19431890379
1429.7430381583108 7390.0971590176105
1430.5424539059713 7653.290404783707
1431.3416747285337 8112.682127061172
1432.1407006790632 7762.548568357395
1432.9395318106053 7696.595752352082
1433.7381681761835 7583.635494324709
1434.5366098288014 7671.1313863945925
1435.3348568214424 7747.256811160014
1436.1329092070573 7510.598198936617
1436.9307670385879 7616.869290919951
1437.7284303689503 7747.082127390264
1438.5258992510335 7900.878343990003
1439.3231737377118 7660.158235561105
1440.1202538818306 7584.584380879676
1440.9171397362225 7630.333680282046
1441.7138313536925 7612.6531146775305
1442.5103287870243 7471.375331223792
1443.3066320889775 7353.188480393115
1444.1027413122956 7727.742485252888
1444.8986565096966 7498.815234911618
1445.694377733882 7385.314068082352
1446.4899050375207 7390.437181212697
1447.2852384732687 7340.085252428597
1448.0803780937622 7557.444840794157
1448.8753239516063 7298.922440026128
1449.6700760993954 7189.232257429105
1450.464634589689 7224.789965270375
1451.2589994750397 7566.73268604847
1452.0531708079689 7255.823469386002
1452.8471486409799 7177.453860427096
1453.6409330265524 7423.951200278485
1454.4345240171442 7227.553287726065
1455.2279216651987 7141.862745185887
1456.0211260231263 7218.678291296892
1456.8141371433194 7267.316762323205
1457.6069550781594 7371.740897924491
1458.3995798799897 7072.819327363669
1459.1920116011424 7088.6224410243785
1459.98425029393 6984.804871562432
1460.7762960106338 7097.534537911367
1461.5681488035225 7023.610728328509
1462.3598087248392 7044.2829568826255
1463.1512758268036 7185.41453976179
1463.942550161617 6986.845790562938
1464.7336317814625 6832.876950327923
1465.524520738496 7002.021317331504
1466.3152170848552 6823.340743578954
1467.1057208726506 7045.8638075554645
1467.8960321539817 6858.6414375976865
1468.6861509809169 6664.501777743212
1469.4760774055085 6810.550537162375
1470.265811479785 7067.680872190818
1471.055353255755 6630.87143796765
1471.844702785409 6714.111577343183
1472.6338601207044 6582.743480456188
1473.4228253135934 7363.376168322202
1474.2115984159936 6576.386895835276
1475.0001794798063 6469.857531626565
1475.7885685569145 6781.021795861108
1476.576765699172 6778.211560830557
1477.3647709584238 6570.653968932386
1478.1525843864802 6885.863313245322
1478.9402060351367 6905.876620461738
1479.7276359561693 6834.672827593652
1480.514874201328 6568.220775668122
1481.3019208223468 6468.870291276968
1482.0887758709323 6508.689904869569
1482.8754393987747 6704.526428668449
1483.6619114575406 6475.990951230831
1484.4481920988783 6709.5070867066515
1485.2342813744108 6792.502105986207
1486.0201793357446 6834.922210959569
1486.8058860344572 6612.050110085865
1487.591401522117 6633.449618752404
1488.3767258502594 6638.9897180263015
1489.1618590704056 6562.651355311835
1489.9468012340494 6502.898254925526
1490.7315523926754 6623.802461790739
1491.5161125977356 6753.110468122419
1492.3004819006637 6597.212859250899
1493.084660352877 6504.134656454227
1493.8686480057622 6654.682263005472
1494.6524449106964 6930.598520263178
1495.4360511190262 6896.994452427132
1496.219466682087 6549.806621656547
1497.0026916511779 6759.742693353712
1497.7857260775945 6651.223228788402
1498.5685700125996 6705.888486077978
1499.3512235074395 6531.373630665619
1500.133686613337 6604.6737525194785
1500.9159593814966 6487.003097834459
1501.698041863101 6957.6847704640995
1502.4799341093094 6467.331561791206
1503.2616361712662 6454.651530331313
1504.043148100087 6787.963150216101
1504.8244699468742 6785.361378743713
1505.6056017626997 6492.974263101018
1506.3865435986281 6397.474559055194
1507.1672955056893 6694.212819979877
1507.9478575348967 6511.5926357996605
1508.7282297372512 6664.120946560737
1509.5084121637192 6715.077924301031
1510.2884048652577 6511.324022360085
1511.0682078927948 6471.48473875565
1511.8478212972423 6569.828823613709
1512.6272451294917 6497.547952788938
1513.4064794404076 6694.204762777199
1514.1855242808433 6601.815710722289
1514.9643797016215 6633.627556133843
1515.743045753552 6583.266027376851
1516.5215224874191 6717.363496381887
1517.2998099539836 6331.416278773169
1518.077908203999 6441.93005325876
1518.8558172881785 6604.861248340538
1519.633537257234 6649.549940851223
1520.4110681618404 6594.595352509437
1521.1884100526604 6735.273030864913
1521.9655629803365 6582.907568228913
1522.7425269954856 6767.971927473131
1523.5193021487103 6841.212496706803
1524.2958884905856 6372.84697811109
1525.0722860716687 6499.591691999761
1525.848494942502 6469.342202791503
1526.624515153595 6578.922662372596
1527.4003467554485 6535.5985666206525
1528.175989798534 6690.154123698967
1528.9514443333064 6569.219826601404
1529.726710410203 6739.876140732986
1530.5017880796331 6399.3418414130465
1531.276677391992 6544.649963648964
1532.0513783976457 6732.58402599869
1532.825891146953 6598.367790920005
1533.6002156902414 6578.732733472301
1534.3743520778207 6573.222821668924
1535.1483003599806 6597.415703721667
1535.9220605869923 6568.600316423575
1536.6956328091019 6562.3235483392145
1537.4690170765407 6670.419831699823
1538.242213439511 6728.234184829029
1539.015221948208 6660.481098966474
1539.78804265279 6377.907153948155
1540.560675603405 6277.588224209338
1541.3331208501804 6755.389752855214
1542.1053784432224 6713.759312224381
1542.8774484326168 6616.887123449876
1543.649330868422 6429.856799483769
1544.4210258006842 6551.884663248189
1545.1925332794308 6609.947133889301
1545.9638533546604 6535.420475331464
1546.7349860763552 6361.86116998286
1547.5059314944829 6734.711563486757
1548.27668965898 6625.771163867136
1549.0472606197673 6661.621664600432
1549.817644426752 6464.158607464758
1550.5878411298072 6641.1994589711685
1551.3578507787988 6675.080814813913
1552.1276734235635 6539.056650539379
1552.8973091139233 6590.448050158896
1553.6667578996767 6614.840520048934
1554.436019830604 6755.988687963411
1555.20509495646 6541.675502432852
1555.9739833269869 6430.98953333219
1556.7426849919011 6459.524870972626
1557.511200000903 6974.441881707959
1558.2795284036674 6544.457149588974
1559.0476702498509 6606.815292143983
1559.8156255890954 6771.978902051924
1560.5833944710157 6861.420509333872
1561.3509769452048 6524.632642253874
1562.1183730612447 6629.037244664789
1562.8855828686865 6613.330490564564
1563.6526064170703 6890.4123733140605
1564.4194437559127 6828.056087901331
1565.1860949347047 6520.7274593753755
1565.9525600029283 6959.5715994298125
1566.7188390100328 6944.475828717988
1567.4849320054564 6609.580942629225
1568.250839038612 6665.1314718729045
1569.0165601588997 6602.352539255851
1569.7820954156887 6756.63010561033
1570.5474448583373 6435.448466932959
1571.31260853618 6543.592079144571
1572.0775864985299 6388.733115479687
1572.8423787946813 6627.701810179453
1573.6069854739108 6480.172264227271
1574.371406585471 6711.3835216096995
1575.1356421785986 6606.775969930917
1575.899692302506 6409.647272635551
1576.6635570063845 6534.89610058994
1577.4272363394157 6467.381827829091
1578.190730350747 6566.099048099098
1578.9540390895163 6359.313133465037
1579.7171626048384 6265.551783400469
1580.480100945806 6374.162769963905
1581.2428541614918 6435.37283065991
1582.0054223009538 6478.873776732353
1582.767805413223 6528.1443902723795
1583.5300035473156 6368.316128455578
1584.292016752228 6496.0789309267475
1585.0538450769309 6473.177005498577
1585.8154885703807 6264.203388850384
1586.5769472815136 6286.210258863435
1587.3382212592405 6387.663592800371
1588.099310552463 6638.254914527283
1588.8602152100484 5988.899749296819
1589.6209352808564 6400.599456992605
1590.3814708137234 6421.911786975294
1591.14182185746 5988.212875334965
1591.9019884608679 6422.435034991734
1592.6619706727215 6079.590051711479
1593.4217685417734 6377.282992931347
1594.1813821167616 6615.9435272816145
1594.9408114464022 6067.228363766182
1595.7000565793933 6402.2711716056965
1596.459117564409 6374.495328414369
1597.2179944501113 6234.404765470017
1597.9766872851324 6313.218521850608
1598.735196118092 6314.983434746951
1599.4935209975883 6399.213581244947
1600.2516619721973 6611.193652645998
1601.0096190904787 6214.205055503227
1601.7673924009723 6388.313539229998
1602.524981952196 6259.674192370997
1603.2823877926476 6155.216783051563
1604.0396099708087 6196.031162928632
1604.7966485351371 6210.583365555087
1605.5535035340745 6160.856392660276
1606.3101750160404 6502.33220866987
1607.0666630294363 6163.326646641438
1607.822967622642 5951.96336538785
1608.5790888440224 6283.3934768273475
1609.3350267419137 6337.4688533787585
1610.0907813646445 6182.558127817289
1610.8463527605145 6229.200171289882
1611.601740977805 6326.448501556168
1612.356946064785 6160.428161403427
1613.1119680696902 5869.7014457041805
1613.8668070407512 5976.809837165393
1614.6214630261748 6092.801370364822
1615.375936074137 6068.1043054598695
1616.1302262328118 6176.774592070446
1616.8843335503425 6097.490785326852
1617.638258074854 6197.117904678043
1618.391999854457 6217.442483340198
1619.1455589372363 6114.307259648948
1619.8989353712623 5952.3187303587565
1620.65212920458 5637.6084376193585
1621.4051404852235 5951.879911789645
1622.1579692611976 5974.104356882472
1622.9106155804966 5719.804015681022
1623.663079491087 5797.213886944477
1624.4153610409248 5951.344937810185
1625.1674602779385 5780.7006250588
1625.9193772500403 5605.382578783252
1626.6711120051277 5939.321732215515
1627.4226645910676 5804.544333809482
1628.174035055721 5501.502668611842
1628.9252234469168 5695.139928062859
1629.676229812474 5691.982598883898
1630.4270542001905 6064.071759042314
1631.1776966578382 5812.105801376001
1631.9281572331747 5696.0866626899615
1632.678435973945 5775.420414087136
1633.4285329278573 5785.055104118531
1634.1784481426203 5525.90978486328
1634.9281816659113 5594.117890828498
1635.677733545388 5784.440965681472
1636.4271038286934 5524.655717203669
1637.176292563452 5627.226602558101
1637.9252997972635 5664.612345596529
1638.674125577716 5742.769630433338
1639.4227699523672 6003.610835845712
1640.171232968767 5378.350825910708
1640.9195146744423 5632.217624441789
1641.6676151168977 5715.498381515679
1642.4155343436178 5593.765355757439
1643.1632724020765 5592.412213867561
1643.9108293397167 5554.638211840918
1644.658205203974 5436.256329590307
1645.4054000422566 6087.199515705517
1646.1524139019566 5531.305411330979
1646.8992468304423 5462.43219214215
1647.6458988750728 5570.114750874843
1648.3923700831765 5630.352446663671
1649.1386605020743 5416.703912797806
1649.8847701790564 5570.990785400969
1650.6306991614038 5571.742672561812
1651.3764474963682 5654.678694782105
1652.1220152311944 5296.259182915754
1652.867402413096 5682.867865770659
1653.6126090892776 5441.014773742156
1654.3576353069184 5752.442857616004
1655.1024811131829 5514.664968165008
1655.8471465552066 5541.773137028398
1656.5916316801213 5719.695459502107
1657.3359365350298 5598.454087434186
1658.0800611670165 5468.264688916632
1658.824005623148 5596.136032423421
1659.5677699504722 5409.578527342458
1660.3113541960192 5563.400789369935
1661.054758406799 5396.146306101694
1661.7979826297997 5378.042224754025
1662.5410269119966 5283.67994217273
1663.283891300338 5777.252513458901
1664.0265758417645 5345.313392292025
1664.7690805831826 5407.213203659571
1665.5114055714948 5576.407498515837
1666.2535508535748 5736.359818741602
1666.9955164762814 5165.714117562721
1667.7373024864555 5336.782490424914
1668.478908930916 5584.339292168419
1669.220335856462 5135.888427483844
1669.9615833098778 5198.942553004937
1670.7026513379296 5082.049897939116
1671.44353998736 5222.624973288914
1672.1842493048916 5401.332824930443
1672.9247793372379 5141.7274217896
1673.6651301310812 5297.947349338579
1674.4053017330934 5157.9717079257025
1675.1452941899242 5278.174638899129
1675.885107548207 4784.382285702835
1676.6247418545518 4871.677086436144
1677.3641971555535 5047.146295635115
1678.1034734977893 5108.559705335739
1678.8425709278108 5022.504800800745
1679.5814894921605 5135.70500013599
1680.320229237359 4764.059910839133
1681.0587902098978 5099.016201107914
1681.7971724562685 4929.483011805272
1682.5353760229264 4954.881189705899
1683.2734009563173 4952.888870324802
1684.0112473028657 4779.205987178134
1684.7489151089794 4806.078558132636
1685.4864044210462 4874.288616271351
1686.2237152854377 4671.747404422602
1686.960847748498 4952.392523121893
1687.6978018565642 4717.533763155671
1688.434577655944 4539.75284168194
1689.1711751929379 4689.651182681393
1689.9075945138156 4760.772702041946
1690.6438356648396 4635.813484680673
1691.3798986922448 4259.595217310778
1692.1157836422499 4515.801085957224
1692.851490561059 4514.240984006593
1693.587019494853 4548.040317247581
1694.3223704897991 4315.29867613101
1695.0575435920364 4294.3795286320665
1695.792538847696 4762.471661334476
1696.527356302886 4383.417234885289
1697.2619960036936 4231.996719764138
1697.9964579961907 4266.96554462972
1698.730742326432 3803.80427016613
1699.4648490404488 3987.372846402951
1700.1987781842563 4224.692524713993
1700.9325298038548 4378.82494785385
1701.6661039452174 4455.492550206169
1702.3995006543082 4153.774272363547
1703.1327199770658 4243.926616073296
1703.865761959416 4000.817857386476
1704.598626647261 4287.004650201581
1705.3313140864866 3999.8338254637288
1706.0638243229587 4108.609976926138
1706.7961574025303 4253.773801742003
1707.528313371029 4087.024562855656
1708.260292274268 3752.9309773774667
1708.9920941580403 4096.5211857637605
1709.7237190681226 4032.0694804341074
1710.4551670502697 4052.358593353788
1711.18643815022 3605.2376401555543
1711.9175324136959 4264.418666543902
1712.6484498863938 3937.7606757581657
1713.379190614005 3736.2769641821674
1714.109754642188 3971.2645019377696
1714.8401420165883 3809.4706660039433
1715.570352782839 3656.590567449427
1716.3003869865497 4078.856554598514
1717.0302446733076 3666.206811123243
1717.7599258886876 3797.7583301087666
1718.4894306782444 4017.5181824337947
1719.2187590875183 3714.7798865014347
1719.9479111620203 3919.765322416981
1720.6768869472544 3832.5684702281424
1721.4056864887025 4094.1789870317057
1722.1343098318284 4135.942166091444
1722.8627570220742 3686.4996644355683
1723.591028104871 3662.6460286534007
1724.3191231256242 3566.5087661531784
1725.0470421297232 3836.197350569092
1725.7747851625427 3821.582811498424
1726.5023522694337 3743.392912618233
1727.2297434957363 3827.562115490372
1727.9569588867635 3511.416375403673
1728.6839984878152 3844.2058407528116
1729.4108623441734 3373.228783833434
1730.1375505011038 3742.3051641972424
1730.8640630038426 3679.4613304240966
1731.5903998976264 3551.245212642658
1732.316561227657 3887.3005607552964
1733.0425470391274 3540.8381707873496
1733.7683573772065 3713.53744043226
1734.4939922870508 3583.548122437243
1735.2194518137949 3667.6386903200755
1735.9447360025606 3757.052515261935
1736.669844898439 3610.0749232280664
1737.3947785465189 3383.927362554262
1738.1195369918605 3443.4479190266115
1738.8441202795093 3522.6586096872315
1739.5685284544943 3654.491783821353
1740.292761561821 3669.1762852178995
1741.0168196464838 3744.972409215614
1741.7407027534518 3593.951947735328
1742.464410927687 3590.7588147959236
1743.187944214118 3599.1726047926954
1743.9113026576688 3425.8207586425697
1744.634486303241 3583.6122357480112
1745.3574951957125 3467.36713099072
1746.0803293799509 3500.472018884947
1746.8029889008048 3315.026133276514
1747.5254738031017 3726.2403078424745
1748.2477841316504 3340.1357962106695
1748.969919931249 3489.540784328807
1749.6918812466665 3307.398277519638
1750.4136681226646 3699.420491429628
1751.1352806039777 3531.1339474962856
1751.856718735331 3427.0030188601586
1752.5779825614281 3457.1504356201817
1753.2990721269507 3527.9210691831186
1754.0199874765676 3639.3720209723047
1754.7407286549314 3286.507117927887
1755.4612957066693 3506.140433657217
1756.1816886763954 3372.130967597632
1756.9019076087097 3637.6928333728765
1757.6219525481865 3509.0096740281488
1758.3418235393856 3585.593135270603
1759.061520626854 3605.554392752313
1759.7810438551096 3561.8280559985114
1760.5003932686614 3394.895993103682
1761.2195689119999 3639.54812871295
1761.938570829594 3331.403583035573
1762.657399065898 3483.961671885616
1763.376053665348 3353.357600297785
1764.0945346723602 3255.078651575365
1764.812842131334 3515.6344284706474
1765.5309760866512 3220.9780215223873
1766.2489365826787 3294.812425633735
1766.9667236637597 3404.4398406022347
1767.684337374223 3058.0394611725924
1768.401777758383 3077.8119363216833
1769.1190448605284 3233.8431793415525
1769.836138724937 3285.7527243522027
1770.5530593958665 3471.0855142410683
1771.2698069175603 3546.481809023705
1771.9863813342326 3482.0912925316065
1772.702782690094 3309.176984985372
1773.4190110293293 3377.819023343719
1774.1350663961111 3516.4565923104747
1774.8509488345844 3224.9637690154054
1775.5666583888924 3336.7980139095343
1776.2821951031437 3478.987975004652
1776.9975590214362 3372.6222541014713
1777.7127501878585 3469.391098275807
1778.4277686464684 3403.070979536956
1779.1426144413108 3546.8117606162677
1779.8572876164162 3442.3730706835813
1780.571788215797 3227.177374931424
1781.2861162834415 3298.6067956280576
1782.0002718633277 3169.9716545410906
1782.7142549994132 3211.764761000332
1783.4280657356376 3330.8945384819867
1784.141704115922 3166.0912027506447
1784.855170184177 3281.7333240379266
1785.5684639842839 3291.5003693158715
1786.2815855601148 3014.9244113748077
1786.9945349555237 3447.520841152099
1787.707312214343 3173.991379059357
1788.4199173803918 3350.8181612863746
1789.132350497468 3113.7622812791515
1789.8446116093583 3224.0372197419824
1790.556700759822 3216.918696240056
1791.2686179926077 2964.9940376458317
1791.9803633514493 3216.801508981946
1792.6919368800554 3002.657864220288
1793.4033386221236 3373.3507890594287
1794.1145686213295 3271.5506020307776
1794.8256269213307 3499.1950199637913
1795.536513565774 3402.945613893024
1796.247228598284 2889.9825085401267
1796.9577720624693 3121.9690369574973
1797.6681440019165 3093.951463726622
1798.3783444602013 3194.076494107392
1799.0883734808776 3300.0252891129458
1799.7982311074884 3345.8401947536177
1800.5079173835475 2994.892011014443
1801.2174323525633 3357.858514406818
1801.9267760580187 3138.953576191482
1802.635948543386 3225.363622928598
1803.3449498521113 3014.9075938552305
1804.0537800276325 3210.399820525171
1804.7624391133668 3175.1216663157657
1805.47092715271 3030.474212866401
1806.1792441890484 3002.604664699766
1806.8873902657433 3299.974224342672
1807.5953654261448 3056.569348251348
1808.3031697135812 3046.3064890164896
1809.0108031713662 3080.0816744210706
1809.71826584279 3022.322957094397
1810.425557771141 3069.2668219233597
1811.1326789996747 3574.2481622655177
1811.839629571632 3141.9897963088156
1812.5464095302468 3021.8081090411956
1813.2530189187182 3371.057032694197
1813.959457780249 3050.337848671476
1814.6657261580076 3301.2452095065987
1815.371824095153 3080.44218706339
1816.0777516348262 3208.820004017101
1816.78350882015 2936.103093399989
1817.4890956942272 2964.357910667693
1818.1945123001533 2997.758277425714
1818.8997586809928 3049.6743786747234
1819.6048348798067 3144.388861936318
1820.3097409396287 3035.4382026575986
1821.0144769034796 3271.8252970733292
1821.7190428143622 3163.389115210323
1822.423438715261 3399.6938901768167
1823.1276646491478 3146.4089128045453
1823.8317206589727 3125.4858930396194
1824.5356067876692 3061.5825293605362
1825.2393230781581 3232.8827503159036
1825.942869573335 2789.7549504775943
1826.646246316086 2955.983264029422
1827.3494533492758 3113.8981333583283
1828.052490715756 3014.5507257188756
1828.7553584583547 2964.866453118474
1829.458056619891 3154.258070420109
1830.1605852431585 2949.8800037334368
1830.8629443709433 2823.8101668777554
1831.5651340460063 3079.4586584217823
1832.2671543110919 3064.0740846412696
1832.9690052089318 3007.532226298426
1833.6706867822395 2797.5552561676345
1834.3721990737104 3144.1184906645303
1835.0735421260233 3061.3977188510926
1835.774715981841 3094.1241852051153
1836.4757206838058 3261.46114572066
1837.1765562745459 2833.67854890918
1837.8772227966747 2777.6013893619124
1838.5777202927839 3102.8373398696162
1839.2780488054523 2965.8241295148523
1839.9782083772352 2831.1484799941845
1840.6781990506806 3270.7635133960216
1841.378020868313 2984.5200127117364
1842.0776738726418 2858.275821968501
1842.777158106157 2858.3136050517533
1843.4764736113375 2817.331844775056
1844.1756204306403 3080.484901884635
1844.8745986065078 3068.938110058834
1845.5734081813607 2639.532456170915
1846.2720491976124 2866.412290315552
1846.970521697649 2875.9930604265273
1847.6688257238511 2936.9137057093208
1848.3669613185684 2936.986117350464
1849.0649285241452 2874.012684237227
1849.7627273829057 2917.378681039581
1850.460357937156 3149.7645144142384
1851.1578202291857 2568.414797906843
1851.8551143012664 2963.6489203604183
1852.5522401956569 3015.8065393289144
1853.2491979545957 3151.25512756608
1853.9459876203055 2760.260817379173
1854.6426092349902 2695.1488557360344
1855.3390628408451 2866.563643653803
1856.0353484800362 3034.158053246302
1856.7314661947203 2956.1243420835103
1857.4274160270397 2564.41176298133
1858.123198019115 2913.2048467816003
1858.8188122130487 2854.0686939819916
1859.5142586509319 2855.446182954144
1860.209537374838 2924.413606574221
1860.9046484268183 2761.8455865984465
1861.599591848917 3064.29829326278
1862.294367683151 2795.531013816554
1862.988975971528 2814.0824230259286
1863.6834167560355 2926.5871958310627
1864.3776900786452 3127.161194588282
1865.0717959813119 2810.5016624472646
1865.7657345059724 2958.1290733389787
1866.4595056945564 2901.877188757427
1867.1531095889586 2964.3936299931943
1867.846546231076 2818.250322099409
1868.5398156627743 3209.8603600180304
1869.2329179259123 2824.8209166126894
1869.9258530623283 3154.061020125026
1870.618621113843 2758.603400323781
1871.3112221222636 2596.7290245563427
1872.0036561293764 2748.065501554574
1872.695923176956 3017.3517047102896
1873.3880233067594 2943.084002697743
1874.0799565605212 2722.5905008357604
1874.7717229799673 2795.161487457593
1875.4633226068036 3052.1634045970086
1876.1547554827175 2961.983678038535
1876.8460216493859 2827.5187848288624
1877.5371211484617 2740.5594156298894
1878.2280540215852 2926.752609362834
1878.9188203103804 2624.5586620659033
1879.6094200564548 2852.5214817756214
1880.299853301396 2773.1510723348874
1880.9901200867826 3029.89721918996
1881.6802204541673 2661.00704512291
1882.3701544450942 2900.2035444366747
1883.059922101087 2812.47101211125
1883.7495234636517 3063.5943242057406
1884.4389585742792 2818.1460054336485
1885.1282274744517 2729.1508145154303
1885.8173302056166 3292.697928118438
1886.506266809225 2816.6609602019926
1887.195037326701 2568.58158478061
1887.8836417994517 2835.7323429434455
1888.5720802688702 3166.809960192246
1889.260352776333 2930.267718163127
1889.9484593632042 2839.3965591465285
1890.63640007082 2738.5876238791575
1891.3241749405151 2852.0252583521833
1892.0117840135954 2739.48454618195
1892.6992273313572 2615.995273841804
1893.3865049350788 2654.126092473924
1894.0736168660223 3057.6077103556113
1894.7605631654333 2744.776521158483
1895.4473438745408 2576.440683852575
1896.133959034556 3051.630197710659
1896.820408686679 2744.0251677822116
1897.506692872088 3072.5075040235633
1898.192811631945 2846.6067399369967
1898.8787650073991 2897.0873483966247
1899.5645530395832 2951.3417317944204
1900.2501757696118 3012.1607394167686
1900.9356332385796 2625.8108552745684
1901.620925487574 2955.2346871226873
1902.3060525576602 2891.662109613727
1902.9910144898859 2881.760087288645
1903.6758113252872 2543.7922144021977
1904.3604431048789 2816.848252631807
1905.0449098696663 2924.735245723185
1905.7292116606295 2802.099332668251
1906.4133485187394 2870.948618506064
1907.0973204849488 2385.9030969065943
1907.7811276001976 2701.4395090259936
1908.4647699053967 2784.8560872266053
1909.1482474414588 2548.2876676443066
1909.8315602492694 2595.6813221794887
1910.5147083696957 2827.6759645271277
1911.1976918436012 2779.4750152701313
1911.880510711815 2683.2050389352635
1912.5631650151681 2843.603346174736
1913.2456547944657 2734.1429400759107
1913.927980090495 2606.9662006009776
1914.6101409440362 2768.4674273052506
1915.2921373958416 2839.7204582027503
1915.9739694866603 2659.7408150380334
1916.655637257214 3072.3957235937205
1917.3371407482136 2735.958247514571
1918.0184800003572 3000.1559986219204
1918.6996550543154 2879.9757202206283
1919.3806659507554 2846.6967193464347
1920.0615127303208 2817.865629906364
1920.7421954336423 2905.877454223229
1921.4227141013343 2890.7321357992964
1922.103068773993 2742.57150026378
1922.783259492202 2944.9830098771954
1923.4632862965227 2683.2737578536635
1924.1431492275078 2618.8256855167647
1924.8228483256917 2605.6885127529836
1925.5023836315922 2715.770811254934
1926.1817551857057 2378.1097467939294
1926.8609630285227 2912.484675018626
1927.5400072005123 2727.045828451539
1928.218887742125 2604.1215550052475
1928.8976046938005 2418.3732628646108
1929.5761580959588 2719.990502618841
1930.2545479890086 2756.789976374509
1930.9327744133352 2534.434096236513
1931.6108374093164 2817.81425962272
1932.2887370173066 2974.698302206964
1932.9664732776473 2864.986469289644
1933.6440462306673 2754.9184266450457
1934.3214559166754 2589.677673922543
1934.9987023759659 2805.3100584426106
1935.675785648813 2779.8160894758194
1936.3527057754836 2414.825391357864
1937.029462796223 2797.9759955284103
1937.70605675126 2569.1476648135085
1938.3824876808085 2559.6176739374696
1939.058755625072 2551.07445988977
1939.7348606242267 2591.175125480775
1940.4108027184448 2586.526471169282
1941.0865819478713 2847.515236025728
1941.7621983526478 2392.5355826822843
1942.4376519728921 2378.0216069632484
1943.1129428487038 2615.6099587572407
1943.7880710201734 2597.3740268744127
1944.4630365273733 2816.374250055844
1945.1378394103576 2275.8154465467946
1945.8124797091714 2286.2968772576305
1946.4869574638324 2296.7191603056835
1947.161272714353 2511.1393670397474
1947.8354255007234 2718.1726398992637
1948.5094158629272 2699.370225199716
1949.1832438409183 2679.5445121734992
1949.8569094746435 2612.231175556736
1950.530412804037 2760.9038569015784
1951.2037538690092 2627.568145534615
1951.8769327094578 2559.97763115066
1952.5499493652678 2713.743197607323
1953.222803876306 2670.24324766174
1953.895496282421 2602.2215337906055
1954.5680266234522 2503.770828545209
1955.2403949392155 2655.5352717939586
1955.9126012695142 2412.470598506357
1956.5846456541403 2723.3284925442063
1957.2565281328643 2447.7855294288993
1957.9282487454457 2699.58351850133
1958.5998075316202 2849.178075530155
1959.27120453112 2571.489567408283
1959.9424397836501 2588.224926239525
1960.613513328908 2808.885346961404
1961.2844252065697 2782.6923957064737
1961.9551754563017 2477.5869411713766
1962.6257641177453 2431.2643496279056
1963.29619123054 2381.8085676846
1963.966456834296 2344.9531848652528
1964.6365609686181 2304.0253851684843
1965.306503673086 2547.57946844766
1965.976284987275 2428.7296719947794
1966.645904950734 2518.684816050033
1967.315363603002 2387.709400513793
1967.9846609836077 2583.1092102983184
1968.6537971320486 2648.2433929344165
1969.3227720878222 2478.3023851004223
1969.9915858904042 2457.353067068576
1970.660238579252 2684.4417070931
1971.3287301938108 2642.0139360083413
1971.997060773514 2181.4797533161795
1972.665230357772 2500.4648230715666
1973.3332389859843 2479.512627862255
1974.0010866975335 2356.6682786329015
1974.6687735317864 2630.5094998539257
1975.3362995280932 2544.4372429355326
1976.003664725793 2665.77513940764
1976.6708691642052 2273.02610531335
1977.3379128826364 2438.7505957815915
1978.004795920373 2553.749732601279
1978.6715183166925 2376.3874927166635
1979.3380801108524 2831.7832227207628
1980.0044813420973 2640.9796086087526
1980.6707220496555 2211.553943921909
1981.3368022727373 2383.965915548947
1982.0027220505417 2582.832535593821
1982.66848142225 2205.9574199301137
1983.3340804270283 2309.2204843218283
1983.999519104027 2547.1044857523148
1984.6647974923835 2720.2746789309776
1985.329915631215 2699.9014117286597
1985.99487355963 2471.2759054822945
1986.6596713167146 2602.39351779793
1987.3243089415428 2469.7301150889334
1987.9887864731754 2798.50020000359
1988.6531039506553 2374.0655653763215
1989.3172614130071 2827.5058583377604
1989.9812588992481 2605.5828982279972
1990.645096448372 2330.708434002289
1991.3087740993633 2399.6512028612406
1991.9722918911848 2531.5889340438757
1992.635649862792 2409.1756945523584
1993.2988480531185 2624.7117271569973
1993.9618865010852 2879.378718868901
1994.6247652455968 2419.4097693512504
1995.287484325545 2249.9012405450057
1995.9500437798033 2479.8603902534715
1996.6124436472292 2237.7591422733512
1997.2746839666706 2548.1204858478673
1997.936764776954 2440.684146146191
1998.598686116895 2463.0873222809328
1999.2604480252903 2716.299047209668
1999.9220505409212 2409.2442585692615
2000.5834937025593 2288.4894518499113
2001.2447775489582 2340.2266216913586
2001.9059021188514 2425.8739149953185
2002.5668674509616 2500.121473402297
2003.2276735839987 2511.337237889515
2003.8883205566508 2630.832054623943
2004.5488084075987 2369.134059891091
2005.2091371755014 2462.7822718112025
2005.8693068990033 2160.3709494505442
2006.5293176167397 2585.6548523643637
2007.1891693673224 2344.4002281819894
2007.848862189354 2183.8278133626254
2008.5083961214223 2324.3148976929997
2009.1677712020955 2223.0042884800573
2009.8269874699254 2245.4905293544516
2010.4860449634598 2798.75984632979
2011.1449437212177 2045.7452938637045
2011.8036837817108 2605.730106691569
2012.4622651834325 2716.2788112327917
2013.1206879648653 2715.0908720847447
2013.7789521644736 2873.5586377063983
2014.4370578207036 2224.940854266294
2015.0950049719922 2341.004557010336
2015.7527936567585 2565.994437676742
2016.4104239134067 2562.3558431268484
2017.067895780323 2899.218560344495
2017.725209295886 2807.4226031072476
2018.3823644984514 2715.302672685137
2019.0393614263648 2459.8358964343033
2019.6962001179545 2273.8404583931597
2020.3528806115355 2593.2273861015246
2021.0094029454067 2159.4916748277747
2021.6657671578487 2365.376203435624
2022.321973287133 2401.8722460534627
2022.9780213715148 2417.160717326561
2023.6339114492293 2179.4860928253183
2024.2896435585026 2435.4021276393078
2024.9452177375442 2460.905472959912
2025.600634024544 2614.87212454997
2026.2558924576842 2588.0211644502174
2026.9109930751292 2439.972181302856
2027.565935915025 2323.9118385397696
2028.2207210155066 2674.1146990643874
2028.8753484146964 2662.330343561024
2029.529818150695 2124.430520945569
2030.1841302615903 2453.9319454652014
2030.8382847854573 2273.0304074302103
2031.4922817603601 2279.505983800675
2032.1461212243357 2361.303007440198
2032.7998032154192 2146.9288321348877
2033.4533277716218 2341.2575678402873
2034.1066949309443 2252.2372617702563
2034.7599047313688 2401.48145959471
2035.4129572108704 2721.399376881037
2036.0658524074006 2486.665799132263
2036.7185903589016 2425.744688462554
2037.3711711032956 2523.68022477905
2038.023594678496 2259.8481270885814
2038.675861122394 2304.0800871150786
2039.3279704728757 2561.058227568885
2039.9799227678031 2147.615636848836
2040.6317180450278 2294.483697778295
2041.2833563423865 2361.840743724475
2041.9348376977014 2431.5726332321356
2042.5861621487784 2423.449707825951
2043.2373297334088 2353.835145130478
2043.8883404893695 2384.2783151149674
2044.5391944544208 2530.7090392785876
2045.1898916663158 2487.12010850065
2045.8404321627804 2540.5514336669594
2046.4908159815368 2347.5349722387473
2047.1410431602853 2235.849739625587
2047.7911137367173 2150.783045304922
2048.441027748504 2566.7889802922773
2049.090785233302 2238.1328791993374
2049.7403862287592 2268.316827896867
2050.389830772503 2154.8099400335987
2051.0391189021466 2041.257052309879
2051.688250655294 2345.8543651412483
2052.337226069527 2132.4299941665317
2052.986045182417 2057.344501319608
2053.634708031521 1982.3191014245872
2054.283214654375 2366.1323978091964
2054.931565088511 2031.9568198726934
2055.579759371436 2077.773015235559
2056.2277975406523 2296.4911008054414
2056.8756796336384 2548.1448706805522
2057.5234056878617 2063.0398002985503
2058.1709757407752 2150.055596277708
2058.8183898298194 2512.074102665045
2059.465647992416 2513.747477418149
2060.1127502659747 2456.310381282531
2060.759696687888 2192.537065075737
2061.4064872955405 2507.841503520816
2062.053122126292 2458.3520022673138
2062.699601217497 2118.761926166891
2063.345924606485 2274.7105824016116
2063.992092330587 2466.0554882205197
2064.638104427102 2186.687564285857
2065.283960933324 2500.9156669047766
2065.92966188653 2425.8677655970578
2066.5752073239855 2404.1811437141705
2067.2205972829397 2224.4832394295104
2067.86583180062 2454.054684483007
2068.5109109142522 2173.0015440454426
2069.15583466104 2203.0377518707805
2069.8006030781708 2233.1041553845143
2070.445216202821 2427.825145982985
2071.089674072153 2669.4381924796207
2071.7339767233116 2412.9219775041543
2072.3781241934303 2372.9641600047603
2073.0221165196253 2374.1110525956806
2073.6659537390024 2454.1438469739837
2074.3096358886505 2404.08941288171
2074.953163005637 2104.8160271907427
2075.596535127028 2093.5429302020416
2076.2397522898664 2149.8353443399283
2076.882814531182 2111.126056435761
2077.5257218879924 2419.6901237846005
2078.1684743973 2023.2093681989822
2078.8110720960885 2069.226127045045
2079.453515021336 2553.950816103121
2080.095803209997 2403.730313999674
2080.7379366990135 2190.029762469806
2081.37991552532 2198.0529393555344
2082.0217397258275 2206.056341344479
2082.6634093374414 2028.7126344325866
2083.3049243970418 2332.8358945526443
2083.9462849415067 2391.9270340011194
2084.587491007689 2292.087400095973
2085.2285426324324 2166.877395513992
2085.869439852564 2392.854888903467
2086.510182704902 1971.6608263374715
2087.1507712262483 2450.2703578435267
2087.791205453381 2010.9827225930308
2088.4314854230743 2300.2009687459317
2089.0716111720867 2182.564395568901
2089.7115827371617 1996.2337534042322
2090.351400155023 2011.3236697444431
2090.991063462385 2026.5425879878526
2091.6305726959527 2160.1088971299528
2092.2699278924047 2086.5449593010185
2092.9091290884153 2012.908238211458
2093.548176320641 2142.435986453847
2094.187069625721 2202.0925731903385
2094.8258090402887 2095.6227983299077
2095.464394600951 2298.357949818382
2096.102826344313 2317.3207565532402
2096.741104306955 2548.962103924343
2097.379228525453 2014.3637872194752
2098.017199036358 2090.7760674931974
2098.6550158762147 2509.134993861798
2099.2926790815527 2155.5464388506284
2099.9301886888825 2298.4310007322883
2100.5675447347076 2298.5150185337484
2101.2047472555114 2583.8542733485056
2101.841796287761 2261.9245216301474
2102.47869186792 2251.2932267421975
2103.1154340324265 2176.538969255246
2103.752022817709 2109.9603240142264
2104.388458260184 2215.815070671621
2105.024740396251 2370.776025697177
2105.660869262292 2130.1187446579534
2106.296844894685 2451.3836987188015
2106.93266732978 2251.0098615200054
2107.5683366039284 1946.0841679886769
2108.2038527534532 2328.3533867645933
2108.8392158146726 2450.0335055189175
2109.4744258238843 2210.4414414353128
2110.1094828173755 2167.5538948802064
2110.744386831422 2553.395240760589
2111.3791379022787 2254.023219167219
2112.01373606619 2497.340289660195
2112.648181359389 2155.9982979309234
2113.28247381809 2261.7336897107607
2113.916613478492 2296.125206877149
2114.550600376786 2232.161870066294
2115.1844345491445 2523.9984589085902
2115.818116031729 2053.520394571354
2116.451644860679 1995.9937764027898
2117.085021072133 2002.8556423458147
2117.718244702204 1986.4437583763015
2118.3513157869984 2172.647136911956
2118.984234362604 1882.3389832200323
2119.617000465092 2160.349919551457
2120.249614130529 2462.0174990882433
2120.8820753949585 2167.4353135620554
2121.5143842944162 2063.7567883001466
2122.14654086492 2053.3223214840946
2122.7785451424734 2210.1631184272746
2123.4103971630702 2296.8627054987187
2124.042096962681 2384.0165628798304
2124.6736445772767 2192.30808184022
2125.305040042802 2026.1270030927176
2125.936283395191 2176.0233808735143
2126.567374670365 2167.732732415445
2127.198313904233 2105.9206003069216
2127.8291011326855 2062.9511657762696
2128.4597363916037 2019.6466805776108
2129.0902197168507 2074.8744133052746
2129.720551144279 1938.3859000417074
2130.3507307097225 2578.5095073561997
2130.980758449008 2542.7867936270295
2131.6106343979427 2176.5178823013853
2132.2403585923203 2428.400888109982
2132.8699310679276 2563.1491623516154
2133.499351860526 2334.6537387614085
2134.1286210058715 2330.7913041843462
2134.7577385397053 1997.039702923526
2135.3867044977487 2338.2974211125106
2136.0155189157176 2544.962382763227
2136.644181829308 2248.701229209929
2137.2726932742025 2046.1326083449353
2137.901053286074 2418.9875923474583
2138.5292619005777 2079.6337722831768
2139.1573191533535 2125.4281639547635
2139.7852250800315 2343.6144290501875
2140.4129797162295 2441.4235557597635
2141.0405830975433 2040.6020192782391
2141.6680352595613 2438.474382060832
2142.2953362378576 1928.394777830804
2142.9224860679915 2012.3920462946421
2143.549484785508 1906.8693446036207
2144.1763324259373 2161.892067643
2144.803029024799 2130.9924933914317
2145.429574617594 1976.917460507932
2146.0559692398165 2352.975630370187
2146.682212926942 1981.3040983075207
2147.308305714432 1990.2544666243364
2147.9342476377333 2271.2619458011386
2148.5600387322847 2404.932543719844
2149.185679033506 2347.815438559143
2149.8111685768017 2320.075200016708
2150.4365073975678 2187.9444421094636
2151.061695531187 1983.0911564667247
2151.686733013021 2048.872907161798
2152.311619878423 2114.9206663839523
2152.9363561627342 2110.72787977712
2153.560941901278 1927.0508410471527
2154.1853771293663 2266.138648391234
2154.809661882293 2175.532501823047
2155.433796195348 2430.019749980573
2156.0577801037944 2167.8799882341405
2156.681613642895 2348.8342506628155
2157.3052968478896 2388.3124945676727
2157.928829754006 1922.1272074104054
2158.552212396462 2269.1493102232953
2159.1754448104566 2266.3555907706377
2159.7985270311783 1816.6621922727768
2160.4214590938027 1717.3118019506285
2161.0442410334927 1790.8994100948973
2161.6668728853874 2042.9779713369117
2162.289354684628 2097.8148888224136
2162.911686466332 2121.7271771388205
2163.533868265602 2218.164632799204
2164.1559001175337 2463.7422016717605
2164.7777820572046 2243.9428564967047
2165.399514119681 2027.6090266580118
2166.021096340013 1630.3269765478894
2166.6425287532384 1762.2970692247236
2167.263811394385 1894.5864359858908
2167.8849442984574 2262.380248144294
2168.505927500455 1809.6693640257286
2169.126761035366 2095.0284563771183
2169.7474449381552 2025.7624185040434
2170.367979243778 1891.0258473046658
2170.9883639871823 2255.335739434299
2171.608599203293 2089.153012885098
2172.2286849270276 2521.7414483392495
2172.8486211932886 2465.8818073265466
2173.4684080369625 2043.4789715324532
2174.0880454929265 1887.7405255274648
2174.7075335960417 1845.1787999498072
2175.3268723811543 2302.448188249168
2175.9460618831 2089.504237372502
2176.565102136701 1857.5003525572727
2177.1839931767627 1960.1794605808514
2177.802735038078 2063.1580845841863
2178.421327755432 1891.5075473889524
2179.0397713635866 1932.642838922966
2179.658065897298 1685.5244286178815
2180.276211391305 1771.781534539678
2180.8942078803357 1858.1549512299687
2181.5120553991 1958.0430453134195
2182.129753982299 1737.6347153303311
2182.7473036646206 2028.1957361185916
2183.3647044807367 2049.335364766015
2183.9819564653044 1747.6751968479862
2184.599059652968 2121.6303586772983
2185.216014078367 2264.5303583224318
2185.832819776113 2264.578683033637
2186.4494767808137 2264.4975492127323
2187.065985127063 2007.0573234235683
2187.682344849436 1926.3756254586528
2188.298555982501 2325.404691754841
2188.9146185608097 2232.329302189382
2189.530532618901 2056.1959501851134
2190.1462981912937 2026.5931445071074
2190.761915312507 2231.007790818721
2191.377384017036 2177.151377141213
2191.9927043393654 2041.5214767824732
2192.6078763139667 2227.6835010002483
2193.2228999753006 1661.125199295946
2193.837775357808 1849.4173511137512
2194.452502495922 1811.621669009434
2195.0670814240602 1998.3910143743353
2195.6815121766285 2052.514942011113
2196.2957947880186 1973.5987638183287
2196.9099292926057 1894.5301460257288
2197.523915724758 2314.5948444359187
2198.137754118825 1957.696661538558
2198.7514445091456 2235.526572069481
2199.3649869300443 1868.2638094958052
2199.9783814158327 2279.4320916036536
2200.5916280008096 2511.8411636382225
2201.2047267192593 2153.48936090032
2201.8176776054515 2153.431702670442
2202.430480693649 1817.3808345474258
2203.0431360180955 2100.56583222195
2203.6556436130195 2280.1306108495255
2204.268003512645 2313.8795628294297
2204.8802157511727 2347.826299239231
2205.492280362796 2312.073865926401
2206.1041973816937 1954.2667010473592
2206.715966842032 2094.5414907952977
2207.3275887779655 1929.0266882348528
2207.93906322363 2063.736662409963
2208.550390213153 2140.7778036094305
2209.1615697806465 2124.6270221604846
2209.7726019602105 1521.4640193111118
2210.3834867859277 1608.602834474857
2210.9942242918787 1965.3220862674584
2211.6048145121167 1834.8507603442401
2212.2152574806914 2745.73522993224
2212.825553231638 1884.4692425315607
2213.435701798975 2884.060328130913
2214.045703216707 1975.7038045901422
2214.655557518832 1763.2830556314802
2215.2652647393297 1769.1108952240315
2215.874824912169 1585.0372769884548
2216.4842380713 1652.230050647158
2217.09350425067 1719.7105623712887
2217.7026234842033 1743.2606142842847
2218.311595805819 1878.087210339576
2218.9204212494133 2013.1486900984432
2219.52909984888 2299.9176818178526
2220.137631638092 2357.4640416862494
2220.7460166509154 2414.9800855403437
2221.354254921198 1958.4597318948013
2221.9623464827764 2149.7309788822245
2222.5702913694713 2204.8746441717635
2223.178089615096 2198.2989595147596
2223.7857412534486 1837.6701424709831
2224.39324631831 1729.891504864138
2225.000604843457 1835.2631636232813
2225.607816862641 2318.8237986840822
2226.214882409611 2115.6037328728503
2226.8218015180973 2079.5809769939683
2227.4285742218217 2053.4698920942456
2228.0352005544864 2111.1302563164836
2228.6416805497847 1751.7657841925763
2229.248014241399 1909.1404612425426
2229.8542016629945 1673.893332210239
2230.460242848223 2118.5708748119278
2231.0661378307304 2434.670510755173
2231.671886644139 2010.7321687894182
2232.277489322065 1769.368265779957
2232.8829458981127 1529.1760070819842
2233.48825640587 2158.594011933473
2234.0934208789095 2624.3561344804484
2234.6984393507955 2282.351089525311
2235.3033118550793 2051.4467716984896
2235.9080384252975 1820.282761698266
2236.5126190949723 1545.774567577865
2237.1170538976166 1625.9032613408256
2237.721342866729 1508.7940565052945
2238.32548603579 2044.164913181639
2238.9294834382763 2067.7849230893125
2239.533335107646 1893.5401002243514
2240.1370410773434 2204.5372404746818
2240.740601380803 1897.9747529294305
2241.3440160514474 1997.913992224833
2241.9472851226783 2001.0042687115188
2242.550408627896 2124.0696203895936
2243.1533866004793 2247.3766168643224
2243.756219073799 2090.113322728856
2244.3589060812064 1895.7172844303586
2244.961447656049 1888.553046343502
2245.5638438316564 1933.1518788155904
2246.166094641343 2180.575038376636
2246.7682001184166 1887.9915444514986
2247.3701602961664 1974.3540786707727
2247.971975207871 1985.2120890986796
2248.5736448867974 2380.743467946582
2249.175169366197 2024.6694829326
2249.7765486793123 1902.9370133920227
2250.3777828593684 2159.1213324581413
2250.9788719395783 2262.058696261657
2251.579815953146 2089.124380650732
2252.1806149332606 2022.5626573274185
2252.781268913097 1955.8633193566652
2253.381777925817 1728.4508383824777
2253.9821420045737 1958.2305047803925
2254.5823611825035 2162.8976756285274
2255.1824354927303 1960.719534597955
2255.782364968365 1782.2984631832928
2256.38214964251 1603.6859817375976
2256.9817895482483 1717.380930253975
2257.5812847186553 1975.4246869486494
2258.180635186791 1675.0369209121607
2258.779840985704 1965.166977994554
2259.37890214843 1694.471983254472
2259.97781870799 1853.3938914752348
2260.5765906973957 2012.6151888712302
2261.175218149645 1777.4922413958848
2261.773701097718 1723.924707923305
2262.3720395745895 1670.218936477786
2262.970233613216 1523.32027735739
2263.568283246548 1703.173050416813
2264.1661885075137 1787.7709377525268
2264.763949429038 1922.4731047087407
2265.3615660440246 2158.994542773178
2265.959038385374 1846.1919800510964
2266.5563664859637 2038.9867453656102
2267.153550378669 1684.722999326888
2267.7505900963424 1944.8689337104684
2268.3474856718312 1768.4089710007497
2268.9442371379664 1918.047435173398
2269.5408445275643 1756.699225390171
2270.1373078734377 2047.3617998342847
2270.7336272083758 1783.384502693008
2271.32980256516 1699.5209856897422
2271.925833976562 1707.4097596212541
2272.5217214753357 1772.0477050963004
2273.117465094223 1836.779988952379
2273.7130648659586 1763.2486735625341
2274.308520823257 1857.307776397527
2274.903832998827 2100.967718224385
2275.4990014253563 1786.9047367432456
2276.094026135528 2179.0807079728243
2276.6889071620117 2164.084226683545
2277.2836445374614 2148.962700230625
2277.878238294519 1889.2054518224736
2278.472688465812 1778.3892321182975
2279.066995083962 1667.345777161549
2279.6611581815705 2015.9636162494742
2280.255177791232 2119.1348961903627
2280.8490539455233 2222.555165855968
2281.442786677013 2226.0083456052603
2282.0363760182554 2097.355501640878
2282.6298220017943 1842.4357022381093
2283.223124660155 2213.9212917604173
2283.816284025859 1941.6515814073252
2284.4093001314086 1625.0870635675249
2285.002173009292 2029.886463734043
2285.5949026919952 1774.5939067944328
2286.1874892119777 1674.7074011237644
2286.7799326016993 1623.9772741495792
2287.3722328936 1573.0343653976201
2287.964390120109 1543.116132361858
2288.556404313642 1898.8151748660152
2289.1482755066027 1742.8287738356398
2289.7400037313873 1586.5086869311235
2290.3315890203703 1893.9802462340788
2290.9230314059205 1570.0594760773502
2291.5143309203904 1704.1641083343286
2292.1054875961236 1613.8741741447525
2292.6965014654506 2122.2316141565675
2293.287372560684 1991.1662929150043
2293.878100914131 1814.704082342887
2294.468686558086 1637.9234562175159
2295.059129524827 1811.516970760403
2295.649429846617 2173.374878411588
2296.239587555716 2202.794999533246
2296.8296026843636 1956.107140936259
2297.419475264791 2053.8207642373577
2298.0092053292137 2151.5889284344107
2298.598792909839 1983.7907770347233
2299.1882380388597 2049.371363999038
2299.777540748455 2011.558849029323
2300.3667010707904 1973.5665869062075
2300.9557190380256 2070.9818395496964
2301.544594682302 2166.81788366811
2302.1333280357503 1740.7571444785365
2302.721919130485 2080.773740577668
2303.3103679986198 2135.101146687272
2303.898674672242 2289.463104444027
2304.486839183437 1792.1352332333568
2305.0748615642697 1998.535030392075
2305.6627418468015 1811.830105887238
2306.2504800630704 1794.4594994294944
2306.8380762451143 1854.7292808519583
2307.425530424949 1887.6247883644573
2308.012842634582 1920.5810955439733
2308.6000129060103 2244.069536793201
2309.187041271214 2028.9315623578318
2309.773927762164 1813.3341497514352
2310.3606724108213 1937.6177330335183
2310.9472752491274 1856.8174627595695
2311.5337363090184 1914.6133209957898
2312.120055622414 1864.6939994675981
2312.706233221221 1705.0101493623376
2313.2922691373424 1585.8721957952882
2313.8781634026564 1645.2377414032976
2314.463916049037 1704.7230748577338
2315.049527108342 2040.5987192364723
2315.6349966124235 1998.5555141672692
2316.2203245931123 2000.8791368062134
2316.8055110822315 1778.727452132513
2317.3905561115935 1970.7078004740629
2317.9754597129977 2021.692941509687
2318.560221918229 2072.8081463629346
2319.1448427590603 1839.7958217902171
2319.729322267256 1415.453763354703
2320.313660474563 1880.816088501715
2320.8978574127195 1958.9588552386772
2321.481913113452 2037.406152728961
2322.0658276084705 1516.3623744363074
2322.6496009294806 1790.843158006639
2323.233233108165 1839.4034939857036
2323.8167241762058 1888.067150538695
2324.4000741652617 1954.4039864887795
2324.983283106987 2341.652984268422
2325.5663510330232 2194.7799168467377
2326.1492779749933 1974.9082472042996
2326.7320639645204 1916.1364874221065
2327.3147090332004 1578.680336370183
2327.897213212629 1585.7357390469608
2328.4795765343843 1592.6800246244522
2329.0617990300307 1564.927156437068
2329.643880731124 1767.172471017247
2330.22582166921 1969.7714786961951
2330.807621875816 1766.3140081137801
2331.3892813824623 1579.633759646867
2331.9708002206517 1883.0825824384053
2332.5521784218818 2165.1565221055325
2333.133416017634 1890.2717693532402
2333.7145130393765 1882.0572371088845
2334.295469518571 1790.383056371543
2334.876285486658 2152.2120931459567
2335.456960975076 2111.0560284066883
2336.037496015242 2069.8445338007054
2336.6178906385667 1834.342232038104
2337.198144876451 2021.525497533412
2337.778258760278 1649.9545481442324
2338.3582323214214 1528.2402148905055
2338.938065591243 2042.3601494935858
2339.517758601087 2079.071868840072
2340.0973113822965 1962.4230727437243
2340.676723966193 1578.0926176834103
2341.255996384094 1874.9727476097403
2341.835128667295 2184.5445862622096
2342.4141208470883 1830.3420187758024
2342.992972954751 1839.1385350646215
2343.5716850215467 2064.650069262347
2344.1502570787306 1939.9931405028565
2344.7286891575386 1815.0005884613608
2345.3069812892045 2086.054825078228
2345.885133504944 2028.5568934672835
2346.4631458359618 1885.504867594939
2347.04101831345 1824.0294525802813
2347.6187509685915 1917.5692132551703
2348.196343832553 1929.1958936683502
2348.7737969364935 1583.0020041341609
2349.351110311558 1683.5559696536207
2349.9282839888765 1766.8113183876333
2350.5053179995757 1740.0719934713027
2351.0822123747585 1393.065773606687
2351.658967145526 1517.6954897578978
2352.2355823429643 1642.6234810790363
2352.812057998144 1889.832790996002
2353.3883941421263 1684.3989209472752
2353.9645908059647 2152.1108071280782
2354.540648020693 2187.848818385416
2355.116565817336 1684.4740345567284
2355.6923442269126 1788.6553923103722
2356.2679832804224 1624.6051361765303
2356.8434830088518 1575.0757042536688
2357.41884344318 1780.2339389562337
2357.994064614377 1767.8220628444783
