#exp_cfg={"servo_angle": 0.0, "laser_lim": 100.0, "servo_angle_to": 18.0, "laser_wup": 0.0, "bt_dev": "EnSpectr-25AE3", "laser_wdn_max": 0.0, "frames": 10.0, "servo_used": 0, "servo_calib_use": 0, "laser_wdn_min": 0.0, "servo_pix_from": 90.0, "cooler_tout": 300.0, "servo_angle_from": 0.0, "servo_calib": "[-1.9174921013161362e-09, 3.9322238269163779e-05, -0.27385609119055809, 653.59552119713567]", "laser_autoctl": 0, "servo_pix_to": 3682.0, "laser_pw": 100.0, "cooler_on": 0, "laser_volt": 4.0, "cooler_autoctl": 0, "cooler_curr": 70.0, "cooler_startup": 10.0, "laser_fixed_pw": 0, "gain": 1.3, "offset": 2.53059635486, "servo_calib_degree": 3.0, "laser_curr": 55.0, "shutter": 8200.0, "servo_calib_step": 1.0, "laser_fixed_curr": 0, "exp": 2000.0, "ccd_volt": 4.7, "bt_addr": "00:06:66:62:5A:E3", "servo_delay": 500.0, "laser_autooff": 1}
#proc_cfg={"flat_auto_wnd": 200.0, "flat_auto_fr": 200.0, "flat_auto_shift": 5.0, "yconv": 1, "flatten": 1, "flatten_strength": 100.0, "xfrom": 300.0, "auto_max_frame": 2000.0, "auto_signal": 48000.0, "flat_auto_tol": 0.1, "autoclip": 1, "xrel_range": 0.0, "flat_auto_to": 4000.0, "intensity_adj": 1.0, "xrel": 7852.0, "rmhot": 1, "flat_auto_slit": 4.999999999999997, "auto_ini_exp": 300.0, "auto_off": 0, "xto": 2860.0, "flat_auto_ref": "", "flat_auto_rank": 1, "autobackg": 0, "xrel_adj": 0.0, "auto_black_lvl": 1, "base_wnd": 100.0, "sub_baseline": 0, "xconv": 2, "auto_max_exp": 1000.0, "auto_total_exp": 10000.0, "auto_exp": 0, "rmripple": 0, "black_lvl": 8281.7625, "shutter_clip_adj": 0.0, "auto_bckg": 0, "flat_auto_thr": 0.9, "subbackg": 1}
316.8218498245369 11875.108428588366
317.89969571804795 11728.465590495642
318.977263876126 11717.790364000768
320.05455438786703 11555.768448027371
321.1315673423287 11584.764706710695
322.2083028285215 11658.95287489219
323.2847609354267 11570.222760161198
324.3609417519747 11456.356481264049
325.43684536705587 11438.512261754511
326.5124718695279 11355.795856517998
327.58782134820103 11512.205880022175
328.66289389184385 11394.999383968669
329.7376895891921 11226.123846736304
330.8122085289342 11317.962299863026
331.88645079971866 11259.401868486526
332.9604164901575 11165.524485651475
334.03410568881554 11177.726812296398
335.1075184842266 11364.213603773602
336.18065496487543 11098.281073451955
337.2535152192122 11200.23912709204
338.32609933564163 11188.250626026702
339.39840740253203 11118.33800792632
340.4704395082099 11078.82260509646
341.5421957409617 11066.049711897245
342.6136761890357 11158.194699087011
343.6848809406365 11060.296184457637
344.75581008392874 11043.08854846735
345.82646370703696 11027.944099910363
346.8968418980512 10910.409370830836
347.96694474501055 11006.305845911542
349.0367723359268 10875.502184849316
350.106324758759 10883.967093219155
351.1756021014353 10839.619310559749
352.2446044518383 10826.587778093071
353.31333189781435 10928.804294994934
354.38178452716966 10870.011332135067
355.449962427665 10818.987024222048
356.51786568702846 10838.317493649029
357.58549439294256 10889.925447634561
358.6528486330535 10899.145147794832
359.71992849496564 10763.867702870846
360.7867340662433 10762.066200901394
361.8532654344144 10746.009923619979
362.9195226869597 10904.691445795559
363.9855059113288 10625.937729064593
365.05121519492604 10694.797164063899
366.11665062511565 10797.27685677238
367.1818122892273 10758.478291329184
368.2467002745434 10672.28148459227
369.31131466831175 10792.010941986622
370.375655557742 10730.639742017316
371.4397230299983 10707.447633071122
372.5035171722102 10689.579442597493
373.5670380714637 10687.229148104258
374.6302858148101 10821.76041836633
375.6932604892554 10734.08153265558
376.7559621817709 10775.021948461605
377.81839097928605 10601.052856449778
378.8805469686886 10682.018405056191
379.94243023683157 10589.19692433457
381.0040408705263 10662.399120117396
382.0653789565458 10519.923680341546
383.1264445816196 10621.5561421922
384.1872378324406 10567.509470689478
385.2477587956637 10553.088596322366
386.3080075579037 10552.038312451303
387.3679842057336 10521.435952763468
388.4276888256918 10560.678617130825
389.48712150426945 10504.575006190162
390.54628232792857 10523.925557638433
391.6051713830857 10490.440873429501
392.66378875611736 10484.57779814248
393.7221345333637 10404.736467321618
394.7802088011249 10494.876866851126
395.838011645661 10481.244379017024
396.89554315319765 10410.620652771726
397.9528034099112 10403.009087430362
399.00979250194723 10306.340570777014
400.06651051541485 10269.260969071742
401.1229575363741 10319.886103489389
402.17913365085224 10315.243910121888
403.23503894483656 10374.81513897598
404.2906735042761 10226.43105576737
405.3460374150818 10278.696108711867
406.401130763119 10291.821838112675
407.455953634224 10153.423801872344
408.5105061141876 10195.485501240211
409.56478828876243 10104.747252633231
410.6188002436629 10102.309927524691
411.6725420645689 10141.305450427408
412.72601383711117 10080.952990814772
413.77921564689314 10184.727158895537
414.8321475794728 10067.062812865313
415.88480972036814 10104.201608654916
416.93720215506437 10182.408123661857
417.9893249690049 10086.950747541103
419.04117824759123 9936.438993369256
420.09276207619223 9964.598465505145
421.144076540133 9997.711958242846
422.1951217247042 9976.951909227455
423.24589771515275 10078.68579052416
424.2964045966928 9948.165958205416
425.34664245449494 9907.771155884668
426.3966113736933 9943.123241007084
427.4463114393875 9917.83321150528
428.49574273662984 9930.11101632832
429.5449053504417 9830.172036265272
430.5937993658026 9911.861416229749
431.6424248676558 9767.476904378967
432.6907819409007 9864.305699997127
433.73887067040596 9859.694160509143
434.7866911409965 9841.47136710825
435.8342434374608 9791.362423157167
436.88152764455117 9806.096651500453
437.9285438469724 9823.232119056982
438.9752921294057 9679.410113027321
440.02177257648145 9744.78188569579
441.06798527279716 9712.161937278268
442.1139303029122 9822.934987785691
443.1596077513459 9837.24324526232
444.2050177025794 9763.105719949328
445.25016024105753 9801.404964248477
446.2950354511886 9717.273784406767
447.33964341733736 9788.405166527114
448.383984223834 9792.037542896313
449.4280579549686 9743.984006982713
450.471864694995 9693.270507908492
451.5154045281306 9806.10074975705
452.5586775385509 9712.477907022403
453.60168381039693 9733.01401016277
454.64442342776783 9833.188122123129
455.6868964747264 9765.686315906049
456.7291030353008 9725.04242438111
457.77104319347563 9866.812943422552
458.8127170332027 9796.731087746299
459.854124638392 9866.359043633904
460.895266092919 9902.284575252728
461.93614148061897 9935.339562931094
462.97675088529104 9960.118065703327
464.01709439069236 9930.445481512841
465.0571720805492 9915.318673038822
466.0969840385442 10006.817907832545
467.1365303483253 10057.064031846945
468.17581109350067 10025.030673609832
469.2148263576437 9925.042838230049
470.2535762242878 9985.9702245862
471.29206077693016 10028.989542074098
472.33028009902773 10087.70779369284
473.3682342740012 10133.709197126384
474.40592338523857 9986.865372827437
475.4433475160804 10086.238885307797
476.4805067498364 10122.062647958643
477.51740116978 10093.199045244419
478.5540308591426 10102.533355151241
479.59039590112116 10190.846900932916
480.6264963788726 10142.633540273064
481.6623323755193 10263.373000857471
482.6979039741436 10180.978823694975
483.7332112577915 10271.365143335479
484.76825430947247 10410.31277935812
485.80303321215797 10384.191216178151
486.837548048783 10404.308122807497
487.8717989022425 10540.047156954637
488.90578585539697 10489.206706485227
489.9395089910686 10533.879607598401
490.97296839203955 10466.942768125487
492.00616414106116 10352.102090359058
493.0390963208429 10382.05884587162
494.0717650140559 10416.511717430087
495.10417030333883 10293.941414334713
496.1363122712901 10337.067422609032
497.16819100046814 10223.827662843545
498.1998065734024 10143.505667631729
499.2311590725767 10106.262816236458
500.26224858044407 10037.675267591481
501.2930751794156 9974.943942000838
502.3236389518679 9936.528638903364
503.35393998014115 9800.57473433013
504.38397834653733 9904.404268426726
505.4137541333221 9846.606147303351
506.4432674227228 9659.840814144514
507.4725182969323 9736.978658204429
508.5015068381035 9697.975629857452
509.53023312835467 9782.167604183396
510.55869724976765 9634.942657940974
511.58689928438434 9529.643621969362
512.6148393142121 9598.637781967693
513.6425174212218 9587.194350233221
514.6699336873462 9560.707608417619
515.6970881944835 9642.23935178736
516.7239810244901 9485.971648816454
517.7506122591931 9595.841105977615
518.7769819803761 9594.240944752812
519.8030902697901 9639.140629925863
520.8289372091476 9609.101467413302
521.8545228801249 9711.695474228833
522.8798473643619 9664.373904352484
523.9049107434621 9537.862190663942
524.9297130989908 9620.643354936748
525.9542545124805 9639.233139832078
526.9785350654201 9609.68537158577
528.0025548392696 9649.319832167766
529.0263139154504 9582.345357655493
530.0498123753423 9604.210316750068
531.073050300296 9599.649529657298
532.0960277716204 9591.263547920786
533.1187448705896 9545.567399144804
534.1412016784416 9549.990510697799
535.1633982763833 9531.85005819263
536.1853347455726 9512.098090374702
537.2070111671401 9429.217687539443
538.2284276221817 9428.385538998244
539.2495841917516 9389.680946213737
540.2704809568677 9252.522218460026
541.2911179985167 9330.298620094496
542.3114953976419 9286.975950878359
543.3316132351592 9267.159124583537
544.3514715919409 9230.124405389
545.3710705488247 9262.347103299968
546.3904101866156 9237.190799614633
547.4094905860784 9241.635630917
548.4283118279418 9241.599357122734
549.4468739929034 9302.8629961987
550.4651771616191 9206.77080942511
551.4832214147063 9078.193658931705
552.501006832761 9180.557926911117
553.5185334963226 9147.001094848963
554.5358014859103 9211.667389462287
555.5528108820035 9162.85184619293
556.5695617650363 9034.258389883129
557.5860542154242 9141.316330272344
558.6022883135283 9104.96792452686
559.6182641396881 9013.821702345465
560.6339817741991 9095.441582118816
561.6494412973225 9103.868068624735
562.6646427892883 9082.139295256182
563.6795863302796 9085.186602065261
564.694272000459 9045.281861090976
565.7086998799423 9089.003579888093
566.7228700488104 9056.2062314018
567.7367825871115 8985.751539975905
568.7504375748576 9041.21884867716
569.7638350920224 9055.270369998023
570.7769752185486 9034.960446348468
571.7898580343353 8924.955787919831
572.802483619258 8997.666532079544
573.8148520531431 9107.060979223685
574.8269634157932 9066.773956570596
575.8388177869692 9008.671570697452
576.8504152463938 9039.770327804314
577.8617558737587 9164.232991954534
578.8728397487175 9065.943727539303
579.883666950891 9093.014595363258
580.8942375598654 9159.477575742527
581.9045516551851 9164.80021326149
582.9146093163617 9360.418570476726
583.924410622878 9115.880198296156
584.9339556541727 9207.492691267758
585.9432444896538 9426.883475780198
586.9522772086875 9282.251086571769
587.9610538906127 9279.488999814803
588.9695746147318 9268.01247521972
589.9778394603054 9315.40890448522
590.985848506567 9291.84485160157
591.9936018327098 9228.582580457823
593.0010995178891 9040.989346911263
594.0083416412344 9166.580411988567
595.0153282818283 9098.903843084548
596.0220595187293 9075.882138206927
597.0285354309508 9005.542884093154
598.0347560974806 9042.937522960985
599.0407215972609 8976.066189006222
600.0464320092051 8943.49429124652
601.0518874121954 9014.439498993643
602.0570878850685 8977.992643898477
603.062033506636 8999.76075204386
604.0667243556636 8975.560827295534
605.0711605108936 8886.904446344059
606.0753420510264 9145.862755757378
607.0792690547278 9062.2575059475
608.082941600629 8982.83397150927
609.0863597673306 8951.060545035
610.0895236333909 9114.212702897104
611.0924332773357 9171.47016797702
612.0950887776617 9204.91343396036
613.0974902128219 9258.142777979792
614.0996376612384 9449.732544958419
615.1015312013005 9453.1686367607
616.1031709113595 9459.199066661009
617.1045568697336 9387.786686105612
618.1056891547069 9549.837002707807
619.1065678445229 9693.345610027998
620.1071930173985 9829.940360896531
621.1075647515099 9879.500598584713
622.1076831250048 9869.802333344513
623.1075482159849 10069.029028217674
624.1071601025305 9985.88427251666
625.1065188626781 10132.311114641332
626.105624574433 10314.792480170912
627.1044773157682 10369.379516630679
628.1030771646128 10323.041902040186
629.1014241988742 10460.578812281732
630.0995184964158 10548.518636321676
631.0973601350688 10543.094538300948
632.0949491926294 10683.845780112088
633.0922857468631 10434.976300736234
634.089369875499 10532.777807533732
635.0862016562278 10555.92816063761
636.0827811667077 10391.260939957694
637.0791084845641 10459.098630594302
638.0751836873878 10200.31423952533
639.0710068527369 10310.997485852216
640.0665780581294 10144.975865750985
641.0618973810506 10168.817367981263
642.0569648989604 10085.264144426543
643.0517806892676 9918.576224484217
644.0463448293649 9920.474093401554
645.040657396592 9706.24258865265
646.0347184682723 9792.357769278276
647.0285281216875 9629.540182531948
648.0220864340772 9583.163637467089
649.0153934826558 9421.446645516315
650.0084493446047 9536.048916952279
651.0012540970674 9434.309211384294
651.9938078171526 9352.245906170956
652.9861105819346 9257.989667976222
653.9781624684565 9318.32025932954
654.9699635537254 9201.876081096303
655.9615139147136 9223.458298615597
656.9528136283589 9141.315486308256
657.9438627715699 9232.73987220734
658.9346614212154 9082.288677091337
659.925209654135 8957.219338446703
660.9155075471263 9097.99022776724
661.9055551769616 9083.637383863042
662.895352620375 9187.470876576102
663.8848999540678 9066.65889556432
664.8741972547068 8934.997541288501
665.863244598926 8859.441517760282
666.8520420633213 8941.938477586531
667.8405897244611 8918.283611131992
668.8288876588758 8768.96343763962
669.8169359430613 8911.474629226968
670.8047346534822 8798.51450084133
671.7922838665672 8701.47385761629
672.7795836587156 8847.78389165743
673.766634106285 8927.356553039117
674.7534352856092 8758.38138730701
675.7399872729766 8705.377852401845
676.7262901446538 8778.032860130783
677.712343976862 8862.400659612766
678.6981488457986 8846.261965816155
679.6837048276229 8711.568187275941
680.6690119984596 8776.748100754321
681.6540704344043 8726.427645042037
682.6388802115107 8714.205640660579
683.6234414058108 8712.066162653826
684.6077540932874 8644.614240387067
685.591818349907 8651.41708600448
686.575634251587 8687.946364155221
687.5592018742263 8713.492938575688
688.5425212936734 8598.814638563843
689.5255925857564 8659.85951195181
690.5084158262707 8613.144406429285
691.4909910909646 8610.825271197311
692.4733184555644 8540.919658099687
693.4553979957618 8640.270701027157
694.4372297872123 8645.511184603554
695.4188139055404 8546.77640428354
696.4001504263324 8490.25239767351
697.3812394251509 8603.317398223178
698.3620809775111 8453.595872980812
699.3426751589104 8558.87730832714
700.3230220448004 8464.578107502619
701.3031217106054 8555.765528268004
702.2829742317172 8696.240144796608
703.2625796834873 8511.781072198168
704.2419381412474 8480.09004458853
705.22104968028 8582.794760951532
706.1999143758458 8553.641092179188
707.178532303169 8556.84605256096
708.1569035374378 8595.193427912449
709.1350281538107 8632.201281635917
710.1129062274158 8609.82023700324
711.0905378333373 8774.584240393122
712.0679230466376 8724.804812492299
713.0450619423427 8844.236298656975
714.0219545954424 8974.743426736679
714.9986010808989 8890.995256868699
715.9750014736292 8938.26265059417
716.9511558485392 9142.332445873832
717.9270642804786 9193.31012980601
718.9027268442787 9253.824211814728
719.8781436147328 9220.321669525749
720.8533146666014 9203.73519585923
721.828240074612 9165.277853024423
722.8029199134635 9227.997741328469
723.7773542578125 9155.940972920325
724.751543182294 9068.517059010168
725.7254867615029 9135.885381345788
726.6991850700015 8924.33311459844
727.6726381823228 8900.377501258805
728.6458461729599 8987.055643781161
729.6188091163858 8854.203843992296
730.5915270870246 8883.151004161085
731.5640001592856 8825.711580449812
732.536228407529 8917.848393508064
733.5082119060917 8963.156721276364
734.4799507292755 8872.77459616295
735.4514449513481 8832.857966604819
736.4226946465496 8872.268209541624
737.3936998890786 8906.260349786333
738.3644607531078 8802.769414072356
739.3349773127793 8794.24321942203
740.3052496421951 8794.98764008527
741.27527781543 8709.669097568152
742.2450619065221 8612.77981283024
743.2146019894826 8596.676195401058
744.183898138288 8530.829745922802
745.1529504268801 8530.701054969093
746.1217589291682 8381.802185342865
747.0903237190341 8361.652819967587
748.058644870318 8404.65095689563
749.0267224568397 8305.83562605678
749.994556552374 8147.675992650906
750.9621472306771 8260.315078874004
751.9294945654583 8275.076963804282
752.8965986304011 8252.067470268761
753.8634594991636 8162.575620340172
754.8300772453586 8170.936955778148
755.7964519425768 8210.944066706437
756.762583664371 8279.81818154373
757.7284724842611 8197.074054738056
758.6941184757416 8156.341275442059
759.6595217122667 8165.491820449568
760.6246822672638 8159.149829848025
761.5896002141235 8094.057839267685
762.5542756262093 8149.817239060962
763.5187085768503 8109.950612973119
764.4828991393406 8136.5970226014415
765.4468473869474 8171.144170798395
766.4105533929032 8068.698490785236
767.3740172304078 8030.129836560956
768.3372389726283 8201.243078811993
769.3002186926988 8055.742024367095
770.2629564637282 7957.111159568254
771.2254523587872 8072.532326617344
772.1877064509154 7903.528145263344
773.1497188131179 7912.9984999791
774.1114895183728 7851.055549001967
775.0730186396268 7920.269375165527
776.0343062497905 7877.423972094318
776.9953524217381 7830.495967950577
777.9561572283274 7847.110877411843
778.9167207423689 7819.227506053472
779.8770430366476 7833.529106592544
780.8371241839159 7777.5750927106665
781.7969642568951 7757.535469112445
782.7565633282757 8011.002939678928
783.7159214707099 7764.951785280599
784.6750387568281 7792.0959922921365
785.6339152592227 7818.045564376407
786.5925510504512 7786.744189550662
787.5509462030477 7778.813068883533
788.5091007895098 7827.25779000183
789.4670148823006 7843.529412242041
790.4246885538596 7800.993915551975
791.3821218765861 7875.335694298803
792.3393149228505 7695.733542246478
793.2962677649975 7947.020131252425
794.2529804753303 7888.303980350507
795.20945312613 7932.1047158202855
796.1656857896378 7830.178768258828
797.1216785380675 7889.51161409263
798.0774314435985 7971.291332916369
799.0329445783846 8087.474084037499
799.9882180145414 7998.088484236039
800.9432518241574 8027.066404518223
801.89804607929 8183.576625842969
802.852600851962 8129.686613099494
803.8069162141637 8158.910951845035
804.760992237856 8193.179433566045
805.714828994971 8251.072020699281
806.6684265574077 8324.548610691958
807.6217849970271 8286.475348494514
808.574904385674 8230.133447130156
809.527784795142 8242.160145917363
810.4804262972102 8397.597093576178
811.4328289636178 8167.873100312218
812.3849928660748 8034.40767759385
813.3369180762638 8095.838744758787
814.2886046658241 8091.353877198412
815.2400527063783 7956.893046530595
816.1912622695108 7875.7902677115
817.1422334267718 7999.845339879338
818.0929662496856 7895.389882460555
819.0434608097457 7788.515333245804
819.9937171784059 7737.215114599343
820.9437354271013 7747.324682653301
821.8935156272255 7743.006482353373
822.8430578501484 7714.949484271749
823.7923621672016 7541.143196883102
824.7414286496896 7657.413685507161
825.6902573688876 7628.189204675507
826.6388483960363 7616.259362481904
827.5872018023492 7560.342119593553
828.5353176590033 7634.475620524863
829.4831960371503 7481.785553508644
830.4308370079016 7505.605123140483
831.3782406423525 7553.9940771848
832.3254070115545 7572.383435009337
833.2723361865319 7435.90099430414
834.2190282382799 7397.406194481393
835.1654832377644 7500.9197452029675
836.1117012559116 7417.669876433623
837.0576823636256 7464.146371357929
838.003426631778 7389.29434555192
838.9489341312074 7328.9139043652585
839.8942049327197 7461.775772128791
840.8392391070975 7534.635023191602
841.7840367250865 7401.284370232123
842.7285978573982 7338.745747831565
843.672922574724 7440.155979086247
844.6170109477152 7329.856373363643
845.560863046996 7378.270611800128
846.5044789431595 7366.495568645606
847.4478587067697 7370.573379433071
848.3910024083561 7484.503876321682
849.333910118421 7441.269468415002
850.2765819074339 7387.023269856256
851.2190178458332 7503.087966060595
852.161218004032 7564.5074253055955
853.1031824524016 7522.473027224488
854.0449112612987 7492.82441033449
854.9864045010327 7518.152797047948
855.9276622418947 7415.704867528531
856.8686845541379 7415.879288925718
857.8094715079915 7391.157000234297
858.7500231736467 7589.077042686268
859.690339621271 7425.69649030405
860.6304209209939 7431.621972361871
861.5702671429244 7336.222151375517
862.5098783571284 7455.613278710599
863.4492546336569 7448.300463015925
864.3883960425155 7443.37116847876
865.3273026536863 7442.706429712336
866.2659745371238 7421.034890565303
867.2044117627465 7552.105283126
868.1426144004472 7447.914835469577
869.0805825200823 7501.479175290308
870.0183161914847 7597.188911655359
870.9558154844526 7575.541479328871
871.8930804687552 7625.461498575588
872.8301112141307 7575.330036494392
873.7669077902865 7620.317804223547
874.7034702669062 7792.674410359212
875.6397987136315 7659.206393930843
876.5758932000863 7779.65377116125
877.5117537958522 7865.735988061106
878.4473805704911 7765.543298588011
879.3827735935283 7714.834561743926
880.3179329344603 7794.4699596635455
881.2528586627541 7821.32563104481
882.1875508478479 7872.537965816411
883.1220095591489 7818.240798300675
884.0562348660296 7638.792669740906
884.9902268378391 7752.305522416978
885.9239855438955 7672.846348863752
886.8575110534839 7654.403891443251
887.7908034358588 7636.592717910203
888.7238627602474 7635.558537584102
889.6566890958475 7566.195101829096
890.5892825118208 7492.886884342935
891.5216430773125 7541.7536888208
892.4537708614189 7535.705689065459
893.3856659332196 7379.0986869439175
894.3173283617652 7343.73059012047
895.2487582160684 7430.810417427587
896.179955565116 7454.191571020633
897.110920477864 7276.137029639629
898.0416530232451 7337.428234575034
898.9721532701478 7261.854833280932
899.9024212874428 7480.622168992457
900.8324571439662 7285.039902069477
901.7622609085302 7154.471015169777
902.6918326499072 7115.01359739483
903.6211724368477 7287.443203165234
904.5502803380696 7251.325173382165
905.4791564222614 7381.8396304062935
906.4078007580792 7175.686552920594
907.3362134141571 7240.142319780493
908.2643944590909 7340.786788337164
909.1923439614493 7205.763393831391
910.1200619897754 7165.117501383585
911.0475486125779 7378.9335058673405
911.9748038983344 7209.265422674604
912.9018279155007 7136.654477684492
913.8286207324982 7096.085036159903
914.7551824177117 7171.399554316132
915.6815130395116 7121.50473278187
916.6076126662283 7047.391357050653
917.533481366163 7053.546011623339
918.4591192075914 7191.424506723008
919.3845262587565 7223.697376478673
920.3097025878706 7072.464677858055
921.2346482631237 7079.093493918544
922.1593633526682 7101.917307042895
923.0838479246304 7141.623098978773
924.0081020471061 7139.084004701054
924.9321257881656 6996.519456924415
925.8559192158464 7075.663683577304
926.7794823981512 7021.438803500734
927.7028154030686 7066.674909206979
928.6259182985414 6990.53922907425
929.5487911524906 7129.835332729451
930.4714340328119 7167.310347852481
931.3938470073608 7010.847911148905
932.3160301439748 7077.972811332494
933.2379835104548 7134.686591230912
934.1597071745709 7105.953846542225
935.0812012040769 7126.574990918991
936.002465666681 7061.070807442482
936.9235006300696 7064.034794556491
937.8443061619055 7088.196486747294
938.7648823298077 6957.088936188925
939.6852292013809 7019.496171665634
940.6053468441951 7101.561022031191
941.5252353257874 6909.2197808165565
942.4448947136698 6958.392138901571
943.364325075323 6971.7559586646075
944.2835264782043 7024.871376640175
945.2024989897309 6966.410302830713
946.1212426773054 7011.8949976657
947.0397576082851 6994.150184797976
947.9580438500125 7091.906677168452
948.8761014697939 7073.773079519818
949.7939305349064 7030.230369483552
950.7115311125999 6934.835866930718
951.6289032700952 7028.560857393549
952.5460470745875 7115.883429518237
953.4629625932339 6959.163914314013
954.3796498931715 7171.005168651541
955.2961090415029 7048.18677346161
956.2123401053068 7040.048658680961
957.1283431516276 7024.838052773404
958.0441182474842 6939.378046748325
958.9596654598663 7035.642909728922
959.8749848557309 6975.162234089059
960.7900765020167 6963.840422371893
961.7049404656209 6911.930900407005
962.6195768134185 6962.12668818678
963.5339856122537 6989.558797244708
964.4481669289453 7007.360111181259
965.3621208302793 6927.296096473738
966.2758473830145 6985.240762715206
967.1893466538822 7063.274267318753
968.1026187095813 6924.2512716573665
969.0156636167867 7051.035005368559
969.9284814421426 6979.015316324049
970.8410722522622 6936.383862070684
971.753436113735 6907.941035480279
972.6655730931161 6899.364772808309
973.5774832569368 6990.615015825584
974.4891666716958 6881.916182827884
975.4006234038698 6827.318564457355
976.3118535198955 6785.653237819841
977.2228570861935 7014.214660589982
978.1336341691494 6999.694341087295
979.0441848351202 6860.40176837571
979.9545091504333 7019.796195916778
980.864607181391 7078.0251601871805
981.7744789942699 7011.999545424801
982.6841246553086 7039.7970682818905
983.5935442307236 7011.017610745478
984.5027377867027 7059.689490388075
985.4117053894024 7041.860864476682
986.3204471049557 7013.465356491366
987.2289629994648 7087.7899719322495
988.1372531390007 7187.07782613181
989.0453175896091 6987.5930889453975
989.9531564173067 7087.647529882377
990.860769688079 6969.935423094203
991.7681574678918 7064.535411326384
992.6753198226706 7155.225159536235
993.582256818323 7062.261976870499
994.4889685207218 7121.695442450361
995.3954549957143 7300.836664176497
996.301716309119 7182.537388331434
997.2077525267232 7161.642004207713
998.1135637142943 7094.960512179056
999.0191499375615 7228.118495964448
999.924511262232 7164.530192344677
1000.8296477539861 7270.850157989912
1001.7345594784656 7173.315229456207
1002.6392465012996 7112.693929310015
1003.5437088880753 7243.460453589544
1004.4479467043584 7089.0984883758665
1005.3519600156869 6986.418070853464
1006.2557488875718 7136.921032348601
1007.1593133854858 7039.612750475688
1008.0626535748888 7050.607436623124
1008.9657695212009 6882.6186938665605
1009.8686612898182 7135.990391610173
1010.7713289461135 7100.340533447366
1011.6737725554212 7049.528251121077
1012.5759921830577 7008.1368712149515
1013.4779878943027 7050.402581545265
1014.379759754418 7043.662344259971
1015.2813078286254 6982.2348166954125
1016.18263218213 6854.9113668915625
1017.0837328801026 6982.267443233375
1017.9846099876886 7024.681357358875
1018.8852635700023 6899.993857713134
1019.7856936921362 6787.467820604732
1020.6859004191447 6977.04867330892
1021.5858838160675 6830.7703408179605
1022.4856439479063 6763.309787000197
1023.3851808796389 6745.026286704351
1024.2844946762143 6930.003152439966
1025.183585402554 6799.2802382697555
1026.082453123554 6693.2336344256055
1026.9810979040776 6733.837690752123
1027.8795198089647 6649.098332004988
1028.777718903024 6766.628805907921
1029.6756952510368 6659.587975286375
1030.5734489177648 6688.475724968943
1031.4709799679313 6717.379189088153
1032.3682884662358 6791.962005220545
1033.2653744773506 6598.045126053976
1034.1622380659192 6682.064145172381
1035.058879296559 6730.334524146574
1035.9552982338591 6794.32089187061
1036.8514949423825 6669.986028162236
1037.7474694866614 6651.052525107434
1038.6432219312028 6774.847219049361
1039.5387523404825 6775.176722417375
1040.4340607789582 6757.377345452133
1041.3291473110476 6729.92692383648
1042.2240120011465 6823.292181881336
1043.1186549136273 6928.424933625916
1044.0130761128294 6766.712359272705
1044.9072756630649 6787.425512364958
1045.8012536286205 6923.444425341979
1046.6950100737577 6783.970072845298
1047.588545062701 6909.159620809977
1048.481858659663 6916.97013695823
1049.3749509288118 7053.69533364746
1050.2678219343034 6835.874477097209
1051.1604717402515 6887.24200782215
1052.0529004107575 6799.410479332184
1052.9451080098825 6974.905881754239
1053.8370946016694 6880.571872357867
1054.7288602501267 6904.709683562197
1055.6204050192446 6857.913668074046
1056.511728972977 7072.59317932803
1057.402832175254 6939.395702388855
1058.2937146899785 6818.3935695779455
1059.1843765810263 6804.89303156938
1060.0748179122456 6995.2629366271185
1060.9650387474576 6843.852793176305
1061.855039150456 6921.673580134889
1062.7448191850071 6909.404135083321
1063.6343789148505 6838.628993987759
1064.5237184037014 6869.774613113065
1065.412837715241 6728.016853943084
1066.3017369131267 6727.881665688673
1067.190416060992 6752.119603275334
1068.0788752224398 6605.849636763747
1068.9671144610438 6702.241097643666
1069.8551338403558 6708.235108315001
1070.7429334239023 6848.078885347495
1071.6305132751695 6623.253792849951
1072.517873457633 6721.446421364837
1073.4050140347335 6642.316929710309
1074.2919350698776 6666.375112525556
1075.1786366264623 6582.756129079459
1076.0651187678395 6681.935152937405
1076.95138155735 6589.307014859357
1077.8374250582929 6546.143862389775
1078.7232493339507 6672.029843428631
1079.608854447577 6573.54243439777
1080.4942404623907 6547.260947397079
1081.3794074415982 6627.687350460966
1082.2643554483657 6601.138874630483
1083.149084545841 6600.539298028064
1084.033594797138 6427.324896670967
1084.9178862653516 6636.447881837967
1085.8019590135427 6636.84094289116
1086.6858131047484 6489.882056650624
1087.5694486019802 6620.163187756911
1088.4528655682225 6586.130707054197
1089.3360640664287 6701.8791748923495
1090.2190441595321 6577.635929168706
1091.1018059104317 6678.378403059394
1091.98434938201 6677.3119485050365
1092.866674637111 6597.920235178099
1093.748781738559 6642.181344412427
1094.6306707491512 6534.151946004445
1095.5123417316554 6644.394230936314
1096.3937947488157 6608.319291347245
1097.2750298633455 6595.172073610893
1098.156047137938 6471.738374643193
1099.0368466352556 6650.625668547005
1099.9174284179317 6615.060648587796
1100.7977925485757 6471.771862698419
1101.6779390897755 6494.7545862756215
1102.5578681040806 6564.360911185363
1103.4375796540226 6540.8885051633015
1104.3170738021054 6589.418761517169
1105.1963506108077 6394.89669557605
1106.0754101425773 6430.7959896831835
1106.9542524598382 6479.51215151603
1107.8328776249855 6365.710188609353
1108.7112857003904 6473.724716320876
1109.5894767483987 6339.1915667791345
1110.4674508313292 6531.433512794326
1111.3452080114657 6455.522445066209
1112.2227483510815 6555.568173578284
1113.1000719124077 6619.766753681133
1113.9771787576592 6670.998957577287
1114.854068949022 6501.484983352911
1115.7307425486542 6626.674067318336
1116.6071996186893 6665.158205112755
1117.483440221229 6907.839364871671
1118.3594644183577 6658.399160585281
1119.235272272128 6734.1220624350335
1120.1108638445658 6911.464524159195
1120.9862391976712 7028.534843497432
1121.8613983934229 6903.768677622995
1122.7363414937627 6946.276927696103
1123.6110685606182 7044.059402013072
1124.485579655884 7152.125446044627
1125.359874841426 7040.1967309890415
1126.2339541790916 7016.80610003885
1127.1078177306936 7285.471052934192
1127.9814655580267 7068.397557099917
1128.854897722851 7095.770218447324
1129.7281142869106 7120.822730728694
1130.6011153119125 7172.483891391576
1131.473900859548 7266.564036019345
1132.3464709914697 7058.587582651746
1133.2188257693178 7063.782891726218
1134.0909652546961 7073.939777809411
1134.96288950919 6976.36651593074
1135.8345985943506 7090.206944596529
1136.7060925717087 6925.808319394646
1137.57737150277 6900.947386101509
1138.4484354490069 6946.079956212343
1139.3192844718778 6857.538436112742
1140.1899186327992 6712.780437412887
1141.060337993178 6852.1215180305035
1141.930542614382 6676.733633307778
1142.8005325577597 6699.060910320621
1143.670307884635 6461.137229869207
1144.5398686563003 6695.426053522084
1145.409214934025 6598.5726589401265
1146.2783467790541 6278.039525471873
1147.1472642526023 6395.71736874179
1148.0159674158622 6536.111314076589
1148.8844563300026 6390.911984000437
1149.7527310561618 6280.984345857949
1150.6207916554504 6303.740791916923
1151.4886381889592 6316.3719692928335
1152.3562707177498 6401.90980173568
1153.2236893028585 6259.876343114739
1154.090894005296 6110.53173552514
1154.9578848860474 6252.442647173816
1155.8246620060709 6223.9987704814785
1156.6912254262988 6061.999032553012
1157.5575752076438 6106.069023419589
1158.42371141098 6265.170117352233
1159.2896340971656 6221.5493146764775
1160.1553433270346 6149.187838712723
1161.0208391613887 6129.895949950953
1161.8861216610057 6157.885570135235
1162.75119088664 6169.227784274338
1163.6160468990201 6116.44941104077
1164.4806897588442 5997.179341640569
1165.3451195267917 6217.8432348376555
1166.2093362635114 6224.81366142987
1167.0733400296285 6094.547940511521
1167.9371308857444 6038.627550827419
1168.8007088924278 6030.949552310704
1169.6640741102328 6203.625699140108
1170.5272265996773 5976.332472527285
1171.390166421259 5975.903146552137
1172.252893635452 6214.220480680372
1173.1154083026995 6315.313530468099
1173.977710483421 6219.42931635702
1174.8398002380145 5929.667808751853
1175.7016776268483 6191.845076992003
1176.563342710264 6128.761914478122
1177.4247955485826 6047.978645710821
1178.2860362020947 6182.3132885436235
1179.147064731069 6056.113440843161
1180.0078811957483 6232.937715034588
1180.8684856563486 6079.433610465149
1181.7288781730604 6187.2420999958385
1182.589058806052 6250.179936191549
1183.4490276154593 6345.045699213632
1184.3087846614017 6319.567354016128
1185.1683300039676 6210.156688335187
1186.027663703222 6438.377587595727
1186.8867858192025 6253.045424554852
1187.7456964119228 6256.993743676683
1188.6043955413716 6384.779088258049
1189.4628832675116 6510.135057688861
1190.3211596502842 6474.906137149946
1191.179224749596 6514.420953780595
1192.0370786253388 6372.969226865415
1192.8947213373758 6633.028851110203
1193.7521529455407 6663.1988296691825
1194.6093735096438 6478.212833121732
1195.466383089477 6439.19306442479
1196.3231817447977 6450.707973725049
1197.1797695353398 6591.3875300076015
1198.0361465208189 6390.461096179297
1198.8923127609214 6363.422728200758
1199.7482683153048 6557.443753665689
1200.6040132436028 6643.918455897449
1201.459547605431 6513.990147573553
1202.3148714603722 6392.867626187273
1203.1699848679855 6534.779841126648
1204.0248878878065 6557.229110147372
1204.8795805793507 6437.526058686899
1205.7340630020935 6492.375557884314
1206.5883352155033 6559.530550976888
1207.4423972790064 6487.98347560418
1208.2962492520237 6438.224822172428
1209.1498911939307 6423.662206131431
1210.0033231640937 6387.716990958964
1210.8565452218427 6401.137537060174
1211.7095574264913 6279.46458917868
1212.5623598373222 6210.377422999797
1213.4149525135963 6204.621255230706
1214.2673355145507 6251.580152977642
1215.1195088993936 6194.453568172985
1215.9714727273113 6170.71859918362
1216.8232270574663 6340.809331495
1217.6747719489904 6009.032484482108
1218.5261074609934 6129.121461031
1219.3772336525653 6117.844390476594
1220.2281505827668 6210.070572843343
1221.0788583106296 6215.736669930336
1221.9293568951707 5985.734821032299
1222.7796463953746 5992.276093095609
1223.629726870202 6131.934459565231
1224.4795983785934 6140.4603687468025
1225.3292609794553 6062.406040277415
1226.1787147316809 5872.741705202965
1227.0279596941327 6001.6726917917085
1227.8769959256424 6020.663255848507
1228.7258234850306 6131.493459823767
1229.5744424310833 5901.654821981991
1230.422852822563 5983.717882040422
1231.2710547182105 6225.112250517688
1232.119048176739 5974.8709691545455
1232.9668332568417 5780.073827235616
1233.8144100171812 5972.830056313198
1234.6617785163999 6013.439704201287
1235.508938813111 5729.289880368574
1236.3558909659114 5873.512024243838
1237.2026350333617 6015.465095209278
1238.049171074008 6026.688341857089
1238.8954991463652 5916.014632369915
1239.741619308932 5803.338117870172
1240.587531620169 6041.371701647426
1241.4332361385277 5944.82296355187
1242.2787329224248 5787.003098347429
1243.1240220302534 5717.818763656502
1243.9691035203869 5827.990493103715
1244.813977451171 5885.000260906542
1245.6586438809263 5918.15974648025
1246.5031028679496 5622.9550680013035
1247.3473544705157 5872.12374912751
1248.1913987468706 5880.345728687869
1249.0352357552383 5699.639341387925
1249.8788655538228 5706.6736145982595
1250.7222882007918 5934.544306557742
1251.565503754302 5811.7805545758
1252.4085122724755 5719.474418798147
1253.2513138134182 5843.7417683677995
1254.0939084352049 5776.865691673903
1254.9362961958905 5777.519855388381
1255.7784771535007 5769.320219442489
1256.6204513660432 5873.519621100319
1257.4622188915 6040.510923901123
1258.3037797878242 5784.648981161954
1259.1451341129468 5749.848714630658
1259.9862819247755 5824.263201261596
1260.8272232811978 5836.595233363405
1261.6679582400666 6009.692222312637
1262.5084868592203 5717.0593739523265
1263.34880919647 5664.925551323248
1264.1889253095997 5875.465237873054
1265.0288352563712 5958.855828924368
1265.8685390945266 5807.55721705371
1266.7080368817751 5897.483322505503
1267.5473286758115 5948.8558303625
1268.386414534294 5884.77673472971
1269.2252945148703 5632.339503785964
1270.0639686751547 5721.292358249393
1270.9024370727402 5797.2270029223955
1271.7406997651997 5727.83095650708
1272.5787568100714 5688.652343197377
1273.4166082648808 5714.7737132033835
1274.2542541871244 5718.735095544302
1275.091694634275 5901.712373816241
1275.9289296637817 5697.914178080971
1276.7659593330663 5687.866121991948
1277.6027836995308 5714.171572540023
1278.4394028205552 5909.112605458195
1279.2758167534867 5824.7137196348785
1280.112025555658 5783.647328253761
1280.9480292843746 5814.243195312871
1281.7838279969128 5627.715345526411
1282.6194217505326 5708.236047854849
1283.4548106024686 5630.262811953971
1284.289994609926 5655.43850672947
1285.1249738300921 5798.223381451028
1285.959748320127 5611.478908194071
1286.7943181371702 5677.502434337509
1287.6286833383328 5721.733272499657
1288.4628439807038 5812.095897739822
1289.2968001213521 5609.651320840009
1290.1305518173194 5713.258391978505
1290.9640991256183 5773.783774733168
1291.7974421032523 5650.076557162736
1292.630580807183 5717.367426757173
1293.463515294361 5812.280671315782
1294.29624562171 5766.403223096667
1295.12877184613 5696.26506923128
1295.961094024493 5661.031942727364
1296.79321221365 5764.067621872197
1297.6251264704333 5819.816450269535
1298.4568368516466 6006.337797370827
1299.2883434140658 5898.924552274002
1300.1196462144526 5648.50375741191
1300.9507453095375 5851.358922689026
1301.7816407560313 5872.789704228378
1302.6123326106172 5777.918138313447
1303.4428209299622 5644.053455469156
1304.2731057707024 5882.639726452553
1305.1031871894502 5680.744202655502
1305.933065242798 5895.755831573701
1306.7627399873181 5839.245078620965
1307.5922114795467 6171.634613292719
1308.4214797760123 6033.946113133023
1309.2505449332057 5865.292741188195
1310.0794070076026 5934.887191537662
1310.9080660556538 6034.038766158773
1311.736522133786 6013.139931108501
1312.5647752983987 5834.734902092775
1313.3928256058734 5816.899507489588
1314.2206731125661 5888.563989117794
1315.048317874809 5976.412565144794
1315.8757599489109 5974.180783433939
1316.7029993911547 5941.189512896008
1317.5300362578055 6143.942260240473
1318.356870605101 5793.386891401444
1319.183502489257 5837.24430206322
1320.0099319664623 5918.218632492526
1320.836159092889 5974.174019086161
1321.66218392468 5945.759094416635
1322.4880065179532 5857.125643017811
1323.3136269288134 5805.048310579478
1324.1390452133292 6013.1958586993915
1324.9642614275563 6070.231229323914
1325.7892756275214 6005.178088742944
1326.6140878692295 5775.319651914854
1327.4386982086617 6262.032290519056
1328.2631067017755 5978.499389646555
1329.0873134045069 5868.432257388644
1329.911318372764 5796.732124779204
1330.735121662441 5864.316671847615
1331.558723329399 5811.912274575474
1332.3821234294774 5836.067185057541
1333.2053220185007 5798.085416241896
1334.0283191522612 5806.160296002278
1334.851114886529 5871.748883111344
1335.6737092770582 5769.551998324908
1336.4961023795695 5757.79474492398
1337.3182942497697 5776.017840589502
1338.1402849433325 5831.476910482099
1338.962074515921 5641.541289661842
1339.7836630231632 5517.937389938061
1340.6050505206676 6004.904624246226
1341.426237064028 5830.961949711559
1342.2472227088037 5955.857790008657
1343.0680075105338 5567.608852567545
1343.888591524741 5602.97980793478
1344.7089748069138 5850.673125126434
1345.5291574125276 5608.554813844224
1346.3491393970307 5522.654426373817
1347.168920815846 5622.90873259081
1347.9885017243778 5782.476833292033
1348.8078821780036 5570.0799685868615
1349.6270622320844 5628.792396023004
1350.4460419419447 5523.5608387115235
1351.2648213629054 5732.73505485472
1352.0834005502438 5368.818269921307
1352.90177955923 5507.801239382179
1353.7199584451064 6032.841829098169
1354.5379372630887 5555.258394246043
1355.355716068374 5442.55422694246
1356.1732949161305 5408.341924743898
1356.9906738615155 5453.856393243918
1357.8078529596478 5537.380761199058
1358.6248322656375 5526.802846163222
1359.441611834567 5330.972136729957
1360.2581917214866 5738.36442770397
1361.0745719814367 5342.557575940061
1361.890752669433 5254.09529665276
1362.7067338404577 5303.51259174734
1363.5225155494845 5537.608671499877
1364.3380978514506 5591.843642047598
1365.1534808012839 5162.236778973476
1365.9686644538815 5182.049964461503
1366.783648864117 5475.042855848601
1367.5984340868417 5555.287924232074
1368.413020176893 5487.4906182494
1369.2274071890715 5276.056078308686
1370.0415951781652 5490.675301212687
1370.8555841989346 5263.604841888342
1371.6693743061223 5271.661140872466
1372.48296555444 5276.351997274383
1373.2963579985844 5517.3732638530155
1374.1095516932255 5406.422189931051
1374.9225466930166 5189.782010732652
1375.7353430525782 5299.9256109932485
1376.5479408265164 5202.098814328583
1377.36034006941 5431.035207152246
1378.1725408358216 5432.652552657211
1378.9845431802805 5124.18387548281
1379.796347157304 5517.787155411557
1380.6079528213813 5445.067657434613
1381.4193602269788 5197.636024924733
1382.230569428546 5208.755137261742
1383.0415804805016 5410.793819715547
1383.852393437246 5393.5876475097275
1384.6630083531563 5303.888118887211
1385.4734252825892 5245.735158178635
1386.2836442798798 5291.2010702044545
1387.0936653993322 5262.407137844386
1387.9034886952395 5183.44024108782
1388.713114221864 5418.681016141988
1389.5225420334482 5306.101072896972
1390.331772184214 5101.1581925840965
1391.1408047283585 5033.969345498984
1391.9496397200564 5157.035322659387
1392.758277213461 5330.861628053117
1393.5667172627054 5353.587272188449
1394.3749599218918 5095.937717477177
1395.1830052451114 4930.919087884862
1395.9908532864265 5058.0979782457725
1396.7985040998774 5219.376468098357
1397.6059577394808 4938.898265247866
1398.4132142592352 5101.904130818344
1399.2202737131156 5072.462020807118
1400.027136155073 5065.962281245394
1400.8338016390353 5040.290861559614
1401.6402702189134 4970.052966820881
1402.446541948586 5065.1500396625315
1403.2526168819204 4954.650670125868
1404.058495072757 5018.320725879177
1404.8641765749107 5011.204586691486
1405.6696614421799 5045.631783534743
1406.4749497283356 5364.603870699498
1407.280041487129 4952.589333439549
1408.084936772295 4771.6764396797325
1408.8896356375335 5113.325278696695
1409.6941381365323 4956.075160049984
1410.498444322955 4852.748213634748
1411.3025542504402 4917.555557657077
1412.106467972606 5024.840237644481
1412.9101855430508 4984.200002700183
1413.7137070153458 4868.814036003912
1414.5170324430437 4805.476638687485
1415.320161879672 4963.347074105759
1416.1230953787435 5201.3168927038805
1416.925832993742 4921.95560008081
1417.7283747781275 4741.837961939436
1418.5307207853439 5080.857493387375
1419.3328710688093 4971.180328289955
1420.134825681922 4837.032666283283
1420.9365846780584 4833.075728099858
1421.7381481105713 5174.965126739282
1422.539516032788 5042.522970770509
1423.3406884980232 4867.806010042692
1424.1416655595604 4722.368705450833
1424.942447270665 4891.996165731352
1425.7430336845828 4872.339057390837
1426.5434248545298 4743.665195259967
1427.3436208337116 4897.994053975446
1428.143621675301 5069.348755145448
1428.9434274324558 5132.348236601278
1429.7430381583108 4736.814046964474
1430.5424539059713 4887.191330551335
1431.3416747285337 5403.7488155757965
1432.1407006790632 5046.19446829505
1432.9395318106053 4982.377812376993
1433.7381681761835 4830.433985035291
1434.5366098288014 4959.067501519057
1435.3348568214424 4984.429365530095
1436.1329092070573 4922.038225682948
1436.9307670385879 4855.459687219631
1437.7284303689503 5115.03294494032
1438.5258992510335 5218.64983285553
1439.3231737377118 4967.299600745897
1440.1202538818306 4964.503013603147
1440.9171397362225 5017.087848841413
1441.7138313536925 4952.641504854822
1442.5103287870243 4855.656370176492
1443.3066320889775 4759.0282759832535
1444.1027413122956 5008.950811650962
1444.8986565096966 4807.361873714783
1445.694377733882 4929.81793247298
1446.4899050375207 4681.40555572876
1447.2852384732687 4841.91879734527
1448.0803780937622 4996.158811106037
1448.8753239516063 4744.073270637806
1449.6700760993954 4696.157826480025
1450.464634589689 4534.032623251134
1451.2589994750397 4955.741449024235
1452.0531708079689 4721.881404172682
1452.8471486409799 4559.733974595628
1453.6409330265524 4915.788380682732
1454.4345240171442 4704.904555988638
1455.2279216651987 4630.15891357429
1456.0211260231263 4687.255242859495
1456.8141371433194 4732.908167807789
1457.6069550781594 4822.143456441395
1458.3995798799897 4505.076033973654
1459.1920116011424 4589.7341404031295
1459.98425029393 4576.366619533588
1460.7762960106338 4568.735907524768
1461.5681488035225 4565.088878057236
1462.3598087248392 4589.846202873844
1463.1512758268036 4658.233735220413
1463.942550161617 4621.737694415422
1464.7336317814625 4520.428489751976
1465.524520738496 4526.368384781345
1466.3152170848552 4395.083781586354
1467.1057208726506 4592.028785800209
1467.8960321539817 4417.830246368115
1468.6861509809169 4353.842747656583
1469.4760774055085 4404.321405693382
1470.265811479785 4632.685533212316
1471.055353255755 4189.464846151724
1471.844702785409 4400.614068490161
1472.6338601207044 4306.35463645227
1473.4228253135934 4907.523741960893
1474.2115984159936 4278.35408051511
1475.0001794798063 4117.582620975825
1475.7885685569145 4487.148039322781
1476.576765699172 4437.402985790055
1477.3647709584238 4383.551300496101
1478.1525843864802 4526.923240200884
1478.9402060351367 4548.279274986693
1479.7276359561693 4515.719888323149
1480.514874201328 4317.009826731492
1481.3019208223468 4177.5152474997985
1482.0887758709323 4222.705247097003
1482.8754393987747 4412.122968889863
1483.6619114575406 4127.456372768736
1484.4481920988783 4355.621080297809
1485.2342813744108 4454.501315727486
1486.0201793357446 4502.682630920105
1486.8058860344572 4281.357831341584
1487.591401522117 4286.449125506256
1488.3767258502594 4260.773279872702
1489.1618590704056 4233.329203203054
1489.9468012340494 4161.899456625268
1490.7315523926754 4359.742578551131
1491.5161125977356 4403.064028712799
1492.3004819006637 4306.4136698441935
1493.084660352877 4229.806489112097
1493.8686480057622 4278.238923482336
1494.6524449106964 4602.278924417364
1495.4360511190262 4449.1467475057325
1496.219466682087 4249.2556345594
1497.0026916511779 4370.6205285465385
1497.7857260775945 4205.119310057442
1498.5685700125996 4386.41131637769
1499.3512235074395 4228.515761139056
1500.133686613337 4222.603808517214
1500.9159593814966 4190.994610319239
1501.698041863101 4587.656631661181
1502.4799341093094 4017.6745475610414
1503.2616361712662 4062.054696367394
1504.043148100087 4462.576210110416
1504.8244699468742 4350.303999016141
1505.6056017626997 4251.95698431561
1506.3865435986281 4081.9411914093143
1507.1672955056893 4379.929324767214
1507.9478575348967 4158.04313706115
1508.7282297372512 4361.306419003286
1509.5084121637192 4265.28145150636
1510.2884048652577 4240.90572874279
1511.0682078927948 4153.024232051046
1511.8478212972423 4113.092214924385
1512.6272451294917 4098.126401946503
1513.4064794404076 4266.161210847575
1514.1855242808433 4205.49251383583
1514.9643797016215 4243.038024980909
1515.743045753552 4265.958818608659
1516.5215224874191 4338.878784611437
1517.2998099539836 3986.554379573896
1518.077908203999 4217.650334107216
1518.8558172881785 4176.915990308987
1519.633537257234 4344.988560013972
1520.4110681618404 4172.399190318966
1521.1884100526604 4426.638587994517
1521.9655629803365 4219.267919083384
1522.7425269954856 4431.209015478251
1523.5193021487103 4429.772903464991
1524.2958884905856 4124.372697304245
1525.0722860716687 4126.823420697716
1525.848494942502 4199.7689379220155
1526.624515153595 4132.136600047576
1527.4003467554485 4229.648612284694
1528.175989798534 4372.152947658887
1528.9514443333064 4148.110652083904
1529.726710410203 4449.511151315759
1530.5017880796331 4114.231171476133
1531.276677391992 4158.191945889228
1532.0513783976457 4379.175355000992
1532.825891146953 4057.750447178685
1533.6002156902414 4317.652826203196
1534.3743520778207 4212.594236790819
1535.1483003599806 4149.4799246207795
1535.9220605869923 4150.12419827207
1536.6956328091019 4261.76865447221
1537.4690170765407 4265.397967262954
1538.242213439511 4326.328594133627
1539.015221948208 4252.28022602088
1539.78804265279 4004.9490375897867
1540.560675603405 3990.280246131356
1541.3331208501804 4415.858141258537
1542.1053784432224 4426.0123079777295
1542.8774484326168 4347.483671542572
1543.649330868422 4183.898991120602
1544.4210258006842 4295.749015502124
1545.1925332794308 4140.706386319941
1545.9638533546604 4168.69926524046
1546.7349860763552 4035.130491392801
1547.5059314944829 4498.54112041661
1548.27668965898 4231.572446069046
1549.0472606197673 4297.711738379579
1549.817644426752 4084.7772385871153
1550.5878411298072 4307.896295270266
1551.3578507787988 4293.071118209845
1552.1276734235635 4180.009473502307
1552.8973091139233 4275.198008239999
1553.6667578996767 4259.619078556225
1554.436019830604 4245.889055650673
1555.20509495646 4288.881708611438
1555.9739833269869 4043.516965859553
1556.7426849919011 4110.0028789011985
1557.511200000903 4632.719703645873
1558.2795284036674 4217.032263740496
1559.0476702498509 4128.992140950974
1559.8156255890954 4378.893247547034
1560.5833944710157 4436.317290014
1561.3509769452048 4200.049166776057
1562.1183730612447 4239.656702401607
1562.8855828686865 4218.633491660295
1563.6526064170703 4540.512614072029
1564.4194437559127 4372.451662436939
1565.1860949347047 4147.378262852906
1565.9525600029283 4517.241186732753
1566.7188390100328 4610.225109852484
1567.4849320054564 4279.395382884397
1568.250839038612 4200.1181187711745
1569.0165601588997 4185.842929579575
1569.7820954156887 4469.091809924743
1570.5474448583373 4195.635233990614
1571.31260853618 4126.032943137229
1572.0775864985299 4040.850578546745
1572.8423787946813 4216.31171648346
1573.6069854739108 4047.5810977477013
1574.371406585471 4284.4500081090655
1575.1356421785986 4333.712660464241
1575.899692302506 4278.885953180155
1576.6635570063845 4281.321943287652
1577.4272363394157 4192.8245176949495
1578.190730350747 4207.462300688742
1578.9540390895163 4205.963647173212
1579.7171626048384 3906.5110247587363
1580.480100945806 4108.575022242237
1581.2428541614918 4192.675013409767
1582.0054223009538 4085.228917963009
1582.767805413223 4214.73123250285
1583.5300035473156 4075.4054052264555
1584.292016752228 4282.087988905035
1585.0538450769309 4121.108545489997
1585.8154885703807 4094.059643212676
1586.5769472815136 3952.349793625489
1587.3382212592405 4182.823049885502
1588.099310552463 4301.5236013604335
1588.8602152100484 3766.164564904273
1589.6209352808564 4209.250908049039
1590.3814708137234 4192.9745723460055
1591.14182185746 3694.0258219227144
1591.9019884608679 4197.155509504311
1592.6619706727215 3804.8155254521175
1593.4217685417734 4103.04072310875
1594.1813821167616 4401.592082276676
1594.9408114464022 3858.115085943539
1595.7000565793933 4104.024212801482
1596.459117564409 4165.9801561584445
1597.2179944501113 3886.39399240858
1597.9766872851324 3986.151709056653
1598.735196118092 4131.213309426757
1599.4935209975883 4082.010024252223
1600.2516619721973 4283.494096702415
1601.0096190904787 4078.2094024100343
1601.7673924009723 4160.806746207158
1602.524981952196 3909.2748910621985
1603.2823877926476 3950.4821285245243
1604.0396099708087 3925.653453833863
1604.7966485351371 3887.9112795725327
1605.5535035340745 3956.5690804844066
1606.3101750160404 4183.899901625573
1607.0666630294363 3926.8797436898058
1607.822967622642 3665.437125191729
1608.5790888440224 3938.78258927438
1609.3350267419137 4105.955143274111
1610.0907813646445 3857.044789480204
1610.8463527605145 4017.837874147003
1611.601740977805 4042.6855140738276
1612.356946064785 3881.9560559508623
1613.1119680696902 3671.5459328972183
1613.8668070407512 3810.0937904331076
1614.6214630261748 3879.765757737364
1615.375936074137 3823.457990636204
1616.1302262328118 3916.6211833349953
1616.8843335503425 3822.556730997427
1617.638258074854 3818.224527985487
1618.391999854457 3778.2229122612102
1619.1455589372363 3977.92944616156
1619.8989353712623 3929.455492883267
1620.65212920458 3466.1125602066013
1621.4051404852235 3759.7233258489096
1622.1579692611976 3816.777215973261
1622.9106155804966 3673.139698271655
1623.663079491087 3645.549014327623
1624.4153610409248 3793.504952991769
1625.1674602779385 3666.5039270508155
1625.9193772500403 3649.924212363892
1626.6711120051277 3950.9500364137866
1627.4226645910676 3723.869561601029
1628.174035055721 3493.9653103277683
1628.9252234469168 3627.4771214395346
1629.676229812474 3528.2915893729564
1630.4270542001905 4157.146959522524
1631.1776966578382 3688.8908197433534
1631.9281572331747 3661.9337837296066
1632.678435973945 3688.895862421171
1633.4285329278573 3603.1258485540156
1634.1784481426203 3488.726846940883
1634.9281816659113 3658.9733472205944
1635.677733545388 3907.862383826215
1636.4271038286934 3589.3585919405436
1637.176292563452 3583.9113829881635
1637.9252997972635 3627.836357797768
1638.674125577716 3793.14042848155
1639.4227699523672 4011.7366449528017
1640.171232968767 3407.1027844522678
1640.9195146744423 3662.3865818479653
1641.6676151168977 3815.1112666342515
1642.4155343436178 3743.8140449233324
1643.1632724020765 3608.7541959255805
1643.9108293397167 3703.063450655177
1644.658205203974 3437.4186278343877
1645.4054000422566 4039.0312504513554
1646.1524139019566 3557.3848592987756
1646.8992468304423 3501.5281371876395
1647.6458988750728 3510.4518172345406
1648.3923700831765 3639.6049672466615
1649.1386605020743 3496.1992653473744
1649.8847701790564 3649.4529968602415
1650.6306991614038 3596.426884663348
1651.3764474963682 3716.0009274864397
1652.1220152311944 3416.977718956371
1652.867402413096 3607.1370061299594
1653.6126090892776 3414.7405199978866
1654.3576353069184 3820.115210810453
1655.1024811131829 3579.078833566142
1655.8471465552066 3640.43420977391
1656.5916316801213 3652.63153607541
1657.3359365350298 3634.3962554367185
1658.0800611670165 3543.064025217728
1658.824005623148 3537.755000803793
1659.5677699504722 3358.288052847478
1660.3113541960192 3552.1043835290743
1661.054758406799 3499.356346711594
1661.7979826297997 3354.3019904583607
1662.5410269119966 3350.216443559993
1663.283891300338 3746.2332866728675
1664.0265758417645 3273.0530351502193
1664.7690805831826 3510.5960215598047
1665.5114055714948 3655.1116152476484
1666.2535508535748 3794.7164712309095
1666.9955164762814 3232.8777827317026
1667.7373024864555 3393.7813080023698
1668.478908930916 3468.0901753319936
1669.220335856462 3219.8394115161436
1669.9615833098778 3413.818600894164
1670.7026513379296 3101.6726049599556
1671.44353998736 3314.2709238860466
1672.1842493048916 3411.934909349754
1672.9247793372379 3289.077355560216
1673.6651301310812 3415.9284629116964
1674.4053017330934 3248.5040906888617
1675.1452941899242 3388.946278428795
1675.885107548207 2983.320882193316
1676.6247418545518 3103.8358597218325
1677.3641971555535 3213.742518340769
1678.1034734977893 3274.869518829425
1678.8425709278108 3264.058187078409
1679.5814894921605 3388.0831989528538
1680.320229237359 3077.7306607147507
1681.0587902098978 3405.0709738201012
1681.7971724562685 3105.555395700281
1682.5353760229264 3214.1206037814127
1683.2734009563173 3180.774990049198
1684.0112473028657 3105.5505762830953
1684.7489151089794 3241.077966497684
1685.4864044210462 3310.4133438000217
1686.2237152854377 2850.8655659620817
1686.960847748498 3284.2029698041524
1687.6978018565642 2974.850889724904
1688.434577655944 2973.090195784559
1689.1711751929379 3032.357629615956
1689.9075945138156 3048.2266708783527
1690.6438356648396 3090.269836581644
1691.3798986922448 2754.85036538616
1692.1157836422499 2997.401526761275
1692.851490561059 2975.7111672486426
1693.587019494853 2958.8551049136704
1694.3223704897991 2796.596566349319
1695.0575435920364 2651.474416108299
1695.792538847696 3218.764507784142
1696.527356302886 2900.3301727686385
1697.2619960036936 2831.5337192558213
1697.9964579961907 2748.0834029907082
1698.730742326432 2508.0359813605296
1699.4648490404488 2622.1037042725548
1700.1987781842563 2786.1564748623096
1700.9325298038548 2999.5578415359864
1701.6661039452174 3010.140923246042
1702.3995006543082 2847.6655515726607
1703.1327199770658 3024.322020939708
1703.865761959416 2695.103156392281
1704.598626647261 2994.9928711489983
1705.3313140864866 2681.734994965228
1706.0638243229587 2787.1665421762573
1706.7961574025303 2952.5479068873256
1707.528313371029 2848.8620810390794
1708.260292274268 2549.186789823607
1708.9920941580403 2793.5571372327167
1709.7237190681226 2781.448457132202
1710.4551670502697 2823.154562297447
1711.18643815022 2441.2246863778273
1711.9175324136959 2955.2818656607915
1712.6484498863938 2710.888070815511
1713.379190614005 2491.5621864881255
1714.109754642188 2777.6303854180505
1714.8401420165883 2615.6390378405545
1715.570352782839 2709.3325783930622
1716.3003869865497 2900.0468239471043
1717.0302446733076 2620.39513105883
1717.7599258886876 2630.2209356987487
1718.4894306782444 2888.497725974027
1719.2187590875183 2631.088475817897
1719.9479111620203 2773.856955176108
1720.6768869472544 2584.690236162204
1721.4056864887025 2991.9900253398837
1722.1343098318284 2829.707254900778
1722.8627570220742 2610.1493974470814
1723.591028104871 2438.229401309249
1724.3191231256242 2560.4668463893113
1725.0470421297232 2667.7150410682966
1725.7747851625427 2698.17986545877
1726.5023522694337 2726.9593876332697
1727.2297434957363 2635.044915436984
1727.9569588867635 2533.1075658146697
1728.6839984878152 2783.215208785726
1729.4108623441734 2395.4102351493107
1730.1375505011038 2675.5287784681886
1730.8640630038426 2629.2390456037483
1731.5903998976264 2583.2480082488864
1732.316561227657 2729.7879519001935
1733.0425470391274 2447.93892963142
1733.7683573772065 2695.968804613066
1734.4939922870508 2544.2384456927566
1735.2194518137949 2639.273685148282
1735.9447360025606 2727.530080941216
1736.669844898439 2532.969664638839
1737.3947785465189 2533.1527614103734
1738.1195369918605 2418.556542057032
1738.8441202795093 2480.1251620208523
1739.5685284544943 2550.007858260715
1740.292761561821 2623.6557396034123
1741.0168196464838 2756.243785212473
1741.7407027534518 2555.586343282892
1742.464410927687 2865.380102189471
1743.187944214118 2555.6839715381184
1743.9113026576688 2394.6674253786455
1744.634486303241 2524.7893340062706
1745.3574951957125 2473.0380133347635
1746.0803293799509 2604.5482237098204
1746.8029889008048 2304.233515118007
1747.5254738031017 2686.6910779945056
1748.2477841316504 2346.634766085433
1748.969919931249 2484.222311073507
1749.6918812466665 2402.400824437409
1750.4136681226646 2814.416672429745
1751.1352806039777 2449.132577681527
1751.856718735331 2300.412752351609
1752.5779825614281 2438.074103093729
1753.2990721269507 2528.6917375616154
1754.0199874765676 2626.5485766481315
1754.7407286549314 2292.030619934472
1755.4612957066693 2527.7642875013603
1756.1816886763954 2355.307988745276
1756.9019076087097 2518.372667405815
1757.6219525481865 2679.058044938202
1758.3418235393856 2498.379695722292
1759.061520626854 2571.00472473878
1759.7810438551096 2651.3665494524075
1760.5003932686614 2373.497435303215
1761.2195689119999 2652.9773751544312
1761.938570829594 2356.9040393301693
1762.657399065898 2532.4789135101846
1763.376053665348 2403.6438375944917
1764.0945346723602 2370.733318035404
1764.812842131334 2730.514424081689
1765.5309760866512 2321.8166194803875
1766.2489365826787 2416.905039702326
1766.9667236637597 2526.485418245172
1767.684337374223 2185.526507721806
1768.401777758383 2149.8542557999267
1769.1190448605284 2316.7551243222874
1769.836138724937 2236.94180139953
1770.5530593958665 2602.69456451233
1771.2698069175603 2674.7231351615465
1771.9863813342326 2486.15774283158
1772.702782690094 2352.757103177812
1773.4190110293293 2555.840249602282
1774.1350663961111 2599.6486843200996
1774.8509488345844 2337.712255511121
1775.5666583888924 2454.4644180565747
1776.2821951031437 2592.036316480886
1776.9975590214362 2508.2522439224854
1777.7127501878585 2736.4450963683166
1778.4277686464684 2418.9539798955743
1779.1426144413108 2665.2927532611357
1779.8572876164162 2535.2348285532466
1780.571788215797 2429.991608382239
1781.2861162834415 2421.09441807068
1782.0002718633277 2403.3949458716556
1782.7142549994132 2404.973801012282
1783.4280657356376 2550.7340174764972
1784.141704115922 2188.403368683628
1784.855170184177 2308.8894714063695
1785.5684639842839 2479.5073967375642
1786.2815855601148 2263.7957792358393
1786.9945349555237 2539.6982967750273
1787.707312214343 2273.585520833264
1788.4199173803918 2582.5783434201794
1789.132350497468 2238.5711116004813
1789.8446116093583 2306.5663705441507
1790.556700759822 2406.567702297262
1791.2686179926077 2113.871602497112
1791.9803633514493 2336.2057871093916
1792.6919368800554 2181.4250767764365
1793.4033386221236 2477.73661496215
1794.1145686213295 2402.760472446737
1794.8256269213307 2569.758096350436
1795.536513565774 2514.3037194740746
1796.247228598284 2084.8581216082766
1796.9577720624693 2230.652057788665
1797.6681440019165 2328.242892891634
1798.3783444602013 2349.4775923795323
1799.0883734808776 2452.1500004630543
1799.7982311074884 2434.5835676972565
1800.5079173835475 2247.7924654686617
1801.2174323525633 2515.2733911947844
1801.9267760580187 2342.0080831077107
1802.635948543386 2346.066465116465
1803.3449498521113 2270.664624891756
1804.0537800276325 2385.4328767283746
1804.7624391133668 2247.8068864927836
1805.47092715271 2079.3798216226796
1806.1792441890484 2127.160170916034
1806.8873902657433 2325.215159866629
1807.5953654261448 2215.6106655750987
1808.3031697135812 2212.219776223565
1809.0108031713662 2382.57136035129
1809.71826584279 2435.807405430343
1810.425557771141 2198.4878842778376
1811.1326789996747 2237.7186254332814
1811.839629571632 2276.8721442464657
1812.5464095302468 2217.1322233595006
1813.2530189187182 2304.064872625925
1813.959457780249 2114.75763639042
1814.6657261580076 2432.9084467392217
1815.371824095153 2279.399836822726
1816.0777516348262 2486.8120002485475
1816.78350882015 2088.3483935010495
1817.4890956942272 2216.550504329457
1818.1945123001533 2231.1356057462294
1818.8997586809928 2301.0465716974923
1819.6048348798067 2266.310181642074
1820.3097409396287 2231.492958386908
1821.0144769034796 2527.0229479077916
1821.7190428143622 2375.452544585967
1822.423438715261 2623.1966283073625
1823.1276646491478 2331.859015778248
1823.8317206589727 2321.61852323039
1824.5356067876692 2291.9596424903084
1825.2393230781581 2277.3571127245646
1825.942869573335 2113.9346860253368
1826.646246316086 2130.3635917495794
1827.3494533492758 2422.64491373289
1828.052490715756 2277.7096149854556
1828.7553584583547 2322.0632974496393
1829.458056619891 2316.8537332775927
1830.1605852431585 2129.878398757127
1830.8629443709433 1994.2376315537156
1831.5651340460063 2211.619835432094
1832.2671543110919 2329.8511670106645
1832.9690052089318 2232.428747918434
1833.6706867822395 2145.1897180952847
1834.3721990737104 2405.9901460811643
1835.0735421260233 2309.1232837097714
1835.774715981841 2320.7782258060447
1836.4757206838058 2084.7555302380806
1837.1765562745459 1848.64144563928
1837.8772227966747 1959.9285785701413
1838.5777202927839 2430.8025703106478
1839.2780488054523 2132.563188805559
1839.9782083772352 2128.469901730125
1840.6781990506806 2445.3234084904375
1841.378020868313 2242.2336851148552
1842.0776738726418 2208.329738426676
1842.777158106157 2160.5478607617674
1843.4764736113375 2005.3072575076571
1844.1756204306403 2289.346353797794
1844.8745986065078 2325.0580814064297
1845.5734081813607 1977.0242073185996
1846.2720491976124 2097.6203202773568
1846.970521697649 2128.4144047284285
1847.6688257238511 2181.259588678242
1848.3669613185684 2200.9848902516455
1849.0649285241452 2015.2289098264635
1849.7627273829057 2099.8270453375453
1850.460357937156 2285.3809697082006
1851.1578202291857 1884.5090843749094
1851.8551143012664 2211.0855191924484
1852.5522401956569 2212.5385091554494
1853.2491979545957 2385.8011685083948
1853.9459876203055 1958.4189917291837
1854.6426092349902 2017.8880954407784
1855.3390628408451 1988.0258481327007
1856.0353484800362 2263.728867804981
1856.7314661947203 2215.3395045799066
1857.4274160270397 2067.579260361016
1858.123198019115 2166.9332330314546
1858.8188122130487 2066.5305030185345
1859.5142586509319 2026.5818805201375
1860.209537374838 2093.169814582912
1860.9046484268183 2002.8287004852543
1861.599591848917 2008.2498853859652
1862.294367683151 2013.6554243561495
1862.988975971528 2058.5890457377936
1863.6834167560355 2259.293560008559
1864.3776900786452 2215.6211853357518
1865.0717959813119 2091.7311361500606
1865.7657345059724 2015.6429728255687
1866.4595056945564 2196.884737593147
1867.1531095889586 2257.977503725071
1867.846546231076 2022.9922754742026
1868.5398156627743 2307.2203813978845
1869.2329179259123 2036.9568608462218
1869.9258530623283 2431.230271389821
1870.618621113843 2134.2538565464433
1871.3112221222636 1945.5447277473165
1872.0036561293764 2071.780755057184
1872.695923176956 2307.1539324622718
1873.3880233067594 2351.9822879555954
1874.0799565605212 1968.192065976205
1874.7717229799673 2114.1829333687247
1875.4633226068036 2214.595544877303
1876.1547554827175 2155.503519639065
1876.8460216493859 2181.9857044587984
1877.5371211484617 2070.637526792882
1878.2280540215852 2265.134702429692
1878.9188203103804 2038.5448050609273
1879.6094200564548 2111.9001971715857
1880.299853301396 1994.7227011531645
1880.9901200867826 2104.48038852555
1881.6802204541673 2092.7335906482776
1882.3701544450942 2075.6042907161022
1883.059922101087 2033.5200239724666
1883.7495234636517 2362.403509124123
1884.4389585742792 2202.848753644984
1885.1282274744517 2079.581065902853
1885.8173302056166 2351.1309885136393
1886.506266809225 2082.355050007183
1887.195037326701 1974.844716171753
1887.8836417994517 2092.373102479046
1888.5720802688702 2361.2208939114726
1889.260352776333 2195.6595891163915
1889.9484593632042 2131.9819553776138
1890.63640007082 2093.344251950334
1891.3241749405151 1952.4360184835598
1892.0117840135954 2100.3649895547787
1892.6992273313572 2053.6040168596296
1893.3865049350788 1995.9612651384464
1894.0736168660223 2366.5161541467724
1894.7605631654333 2114.388606689898
1895.4473438745408 1924.8673851160402
1896.133959034556 2256.229116293408
1896.820408686679 2107.847178457935
1897.506692872088 2309.544174221584
1898.192811631945 2178.065783042998
1898.8787650073991 2060.017919911809
1899.5645530395832 2146.317285164674
1900.2501757696118 2277.194876694636
1900.9356332385796 1944.646692222876
1901.620925487574 2317.0245656504308
1902.3060525576602 2154.880895099086
1902.9910144898859 2254.160128161212
1903.6758113252872 2003.7350012118636
1904.3604431048789 2097.817558474813
1905.0449098696663 2143.8643066415166
1905.7292116606295 2080.5658809032584
1906.4133485187394 2136.7455445037976
1907.0973204849488 1723.1204941929468
1907.7811276001976 2068.1484176871027
1908.4647699053967 2142.6638532874304
1909.1482474414588 1929.2982652206974
1909.8315602492694 1874.2189098617314
1910.5147083696957 2204.7902710050084
1911.1976918436012 1948.264523998015
1911.880510711815 1982.0082319155285
1912.5631650151681 2245.022712239237
1913.2456547944657 2015.328870302425
1913.927980090495 1868.2777454406387
1914.6101409440362 1966.5012806063837
1915.2921373958416 2098.1307910010564
1915.9739694866603 2022.0407195244193
1916.655637257214 2018.9368399291493
1917.3371407482136 2015.8413560471254
1918.0184800003572 2270.2349837898955
1918.6996550543154 2085.5635883424297
1919.3806659507554 2227.9857220578283
1920.0615127303208 2178.343443055626
1920.7421954336423 2257.624499711523
1921.4227141013343 2184.5139742828533
1922.103068773993 2075.0292019666
1922.783259492202 2288.2426126810647
1923.4632862965227 2114.5774855391896
1924.1431492275078 1989.2364742576108
1924.8228483256917 1898.318697872306
1925.5023836315922 2106.7479858419365
1926.1817551857057 1813.4209779923488
1926.8609630285227 2278.2138673891836
1927.5400072005123 2100.649186475955
1928.218887742125 1950.9564486337208
1928.8976046938005 1694.3248359677455
1929.5761580959588 2123.6483783750928
1930.2545479890086 2149.463101817605
1930.9327744133352 1908.5492821114544
1931.6108374093164 2060.4068623202315
1932.2887370173066 2450.007820687183
1932.9664732776473 2307.6208754616628
1933.6440462306673 2164.823231801828
1934.3214559166754 1841.0943561629174
1934.9987023759659 2140.1444204021686
1935.675785648813 2131.0068484379776
1936.3527057754836 1888.6008643576722
1937.029462796223 2167.740296582266
1937.70605675126 2026.5991680788175
1938.3824876808085 2045.9581602379355
1939.058755625072 1822.5701579661363
1939.7348606242267 2038.2131339326538
1940.4108027184448 2000.4746225423382
1941.0865819478713 1897.188828969195
1941.7621983526478 1793.6542812341472
1942.4376519728921 1793.7822955812487
1943.1129428487038 1985.6486361513635
1943.7880710201734 1934.081948500423
1944.4630365273733 2039.9404567193415
1945.1378394103576 1692.883482428928
1945.8124797091714 1768.2541418158387
1946.4869574638324 1843.7126008580956
1947.161272714353 1940.9685498009287
1947.8354255007234 2099.1935867706425
1948.5094158629272 1997.6765283837135
1949.1832438409183 2088.4702951283225
1949.8569094746435 2003.198729863297
1950.530412804037 2124.191528707349
1951.2037538690092 2165.8552804985843
1951.8769327094578 1891.0704634378158
1952.5499493652678 1925.7216308492193
1953.222803876306 2121.7779345352424
1953.895496282421 1963.800767611694
1954.5680266234522 1924.3013315901258
1955.2403949392155 1983.0936597795244
1955.9126012695142 1751.2993324612617
1956.5846456541403 2056.8588869876357
1957.2565281328643 1808.2245135122982
1957.9282487454457 2028.3212003688
1958.5998075316202 2233.165999657306
1959.27120453112 2097.874593094205
1959.9424397836501 2000.6318861813627
1960.613513328908 2218.856480081039
1961.2844252065697 2217.6936488716897
1961.9551754563017 1964.1788008186927
1962.6257641177453 1930.2512405576567
1963.29619123054 1920.7578662476385
1963.966456834296 1802.9494284347543
1964.6365609686181 1749.8880254846667
1965.306503673086 2116.232840883485
1965.976284987275 1911.428357405902
1966.645904950734 1955.773115882875
1967.315363603002 1693.354087677851
1967.9846609836077 1802.6138140911007
1968.6537971320486 2048.0916963760137
1969.3227720878222 1935.2210317241654
1969.9915858904042 1734.3334438583272
1970.660238579252 2047.1415364650625
1971.3287301938108 2085.5143443803395
1971.997060773514 1977.2634812881674
1972.665230357772 1869.1330171374939
1973.3332389859843 1710.07273495667
1974.0010866975335 1805.6268812003648
1974.6687735317864 2122.6345570586545
1975.3362995280932 2086.753755058332
1976.003664725793 1953.3450877074015
1976.6708691642052 1929.9653490020441
1977.3379128826364 1906.3972245394223
1978.004795920373 2028.0399577337025
1978.6715183166925 1844.8975897184598
1979.3380801108524 2109.103472125417
1980.0044813420973 1926.8441604611373
1980.6707220496555 1686.5796676189027
1981.3368022727373 1793.686216742169
1982.0027220505417 1688.6934216317786
1982.66848142225 1583.652066929816
1983.3340804270283 1668.291938773622
1983.999519104027 1952.6506223977135
1984.6647974923835 2003.7989577130247
1985.329915631215 2115.297357735792
1985.99487355963 1951.4571013794225
1986.6596713167146 2068.0015004147617
1987.3243089415428 1955.008896099203
1987.9887864731754 2120.0148090539196
1988.6531039506553 1782.7879066351966
1989.3172614130071 2131.7063900062394
1989.9812588992481 1918.274021422474
1990.645096448372 1852.1993615556141
1991.3087740993633 1867.0422961868328
1991.9722918911848 1860.6538895212132
1992.635649862792 1844.1308556173983
1993.2988480531185 2106.8518767386718
1993.9618865010852 2170.9369531532857
1994.6247652455968 1880.1521642390544
1995.287484325545 1696.815903612885
1995.9500437798033 2090.322823940719
1996.6124436472292 1707.8945309976764
1997.2746839666706 2076.9041015623066
1997.936764776954 2033.370433617784
1998.598686116895 1900.564337544941
1999.2604480252903 2179.7841431108504
1999.9220505409212 1912.1699382633956
2000.5834937025593 1658.2455998887744
2001.2447775489582 1711.3976553438595
2001.9059021188514 1966.427122240751
2002.5668674509616 1879.4407673913963
2003.2276735839987 2010.9012827248437
2003.8883205566508 2078.4128232158837
2004.5488084075987 1705.7816894173059
2005.2091371755014 1725.563165098471
2005.8693068990033 1853.0584082367209
2006.5293176167397 2022.3121781471066
2007.1891693673224 1827.1940546035144
2007.848862189354 1605.9350206585536
2008.5083961214223 1875.6285162805543
2009.1677712020955 1703.0944975708467
2009.8269874699254 1687.468889837101
2010.4860449634598 1593.7255775622543
2011.1449437212177 1499.8304836381965
2011.8036837817108 2017.242496976941
2012.4622651834325 2120.657579538988
2013.1206879648653 1987.5372004879252
2013.7789521644736 2194.2464884134856
2014.4370578207036 1698.1160805970492
2015.0950049719922 1889.2063430048547
2015.7527936567585 1992.2284307523635
2016.4104239134067 1951.8372973125265
2017.067895780323 2375.6218303329015
2017.725209295886 2329.169033215092
2018.3823644984514 2282.5301777564646
2019.0393614263648 2031.7843538151967
2019.6962001179545 2032.935417721441
2020.3528806115355 2034.0839484699004
2021.0094029454067 1703.0376039215273
2021.6657671578487 1725.6740324968855
2022.321973287133 1887.4622497928892
2022.9780213715148 1813.1048238578574
2023.6339114492293 1909.178866548121
2024.2896435585026 1801.5395391387544
2024.9452177375442 1905.6380341854644
2025.600634024544 2147.059684892244
2026.2558924576842 1842.9949935107022
2026.9109930751292 1927.2900451306152
2027.565935915025 1705.2493711203592
2028.2207210155066 2033.7706587019547
2028.8753484146964 2039.3849964688015
2029.529818150695 1593.016619890177
2030.1841302615903 1896.585771063193
2030.8382847854573 1727.950970506957
2031.4922817603601 1735.8483872802813
2032.1461212243357 1939.6173077291871
2032.7998032154192 1494.4751999467967
2033.4533277716218 1778.137304204553
2034.1066949309443 1753.4186914458726
2034.7599047313688 1783.482453107513
2035.4129572108704 2083.1092738264947
2036.0658524074006 1947.0140285183854
2036.7185903589016 1798.608332360916
2037.3711711032956 1845.2938014652257
2038.023594678496 1800.5641840686853
2038.675861122394 1628.8391574539178
2039.3279704728757 1615.6835289533606
2039.9799227678031 1602.6465731755063
2040.6317180450278 1741.0682593437018
2041.2833563423865 1851.0224106709302
2041.9348376977014 1914.542041884691
2042.5861621487784 1901.326061327934
2043.2373297334088 1794.320380830744
2043.8883404893695 1907.8410688773115
2044.5391944544208 2077.256015635577
2045.1898916663158 2012.025531900717
2045.8404321627804 2170.2437220827624
2046.4908159815368 1664.615707587475
2047.1410431602853 1656.6880609701461
2047.7911137367173 1720.3742435866802
2048.441027748504 2017.2934419412463
2049.090785233302 1752.332246731983
2049.7403862287592 1762.0950727752056
2050.389830772503 2062.7276443745513
2051.0391189021466 1598.5984882313967
2051.688250655294 1972.6534550594781
2052.337226069527 1588.039611268608
2052.986045182417 1880.6348867632635
2053.634708031521 1474.3137517591344
2054.283214654375 1474.4114870036103
2054.931565088511 1474.5685119573131
2055.579759371436 1593.3028074572835
2056.2277975406523 1856.8306698176507
2056.8756796336384 2069.704974859491
2057.5234056878617 1725.7781337065087
2058.1709757407752 1784.3295966212274
2058.8183898298194 1902.708891715918
2059.465647992416 2133.0955017942415
2060.1127502659747 1983.8286058135504
2060.759696687888 1612.3554113157898
2061.4064872955405 1984.2589357632082
2062.053122126292 2009.4983832722787
2062.699601217497 1592.7205730847227
2063.345924606485 1894.8125104357416
2063.992092330587 1929.4817450529936
2064.638104427102 1694.168639653973
2065.283960933324 2038.8501042059202
2065.92966188653 1951.1149237783325
2066.5752073239855 1948.5414492003724
2067.2205972829397 1683.3888813491794
2067.86583180062 1912.7211828603868
2068.5109109142522 1796.3991427997894
2069.15583466104 1763.084724112307
2069.8006030781708 1729.741097219177
2070.445216202821 1854.7290946287565
2071.089674072153 2118.8799231579633
2071.7339767233116 1835.8848081925921
2072.3781241934303 1729.4871307396916
2073.0221165196253 1916.3823275084192
2073.6659537390024 1791.7491375353657
2074.3096358886505 1943.5829505722431
2074.953163005637 1573.1452441969516
2075.596535127028 1653.0680190043993
2076.2397522898664 1639.2440836992532
2076.882814531182 1854.5203524994602
2077.5257218879924 1937.098998249779
2078.1684743973 1541.4587143014146
2078.8110720960885 1641.1202709053782
2079.453515021336 1750.054207133559
2080.095803209997 1859.066713719616
2080.7379366990135 1799.1326593844417
2081.37991552532 1698.828774676891
2082.0217397258275 1664.576323814605
2082.6634093374414 1630.3106073230158
2083.3049243970418 1827.0688927828505
2083.9462849415067 1823.5939885104021
2084.587491007689 1844.485054081635
2085.2285426324324 1923.2750616060584
2085.869439852564 1875.1997961389334
2086.510182704902 1556.4830352060674
2087.1507712262483 1917.8230642583967
2087.791205453381 1593.9286258789868
2088.4314854230743 1955.844752896878
2089.0716111720867 1675.4702819974996
2089.7115827371617 1481.750994182023
2090.351400155023 1544.6349731310534
2090.991063462385 1607.7092436459068
2091.6305726959527 1588.3110840747297
2092.2699278924047 1994.4507897166727
2092.9091290884153 1884.5395702191333
2093.548176320641 1613.2158913745245
2094.187069625721 1903.8605577015055
2094.8258090402887 1663.5899398432896
2095.464394600951 1864.6778623916969
2096.102826344313 1885.5091034554025
2096.741104306955 1628.5810642678084
2097.379228525453 1371.0845102091548
2098.017199036358 1495.0513176366153
2098.6550158762147 1903.324231442697
2099.2926790815527 1755.5572536188185
2099.9301886888825 1805.8784332213413
2100.5675447347076 2015.9119244924307
2101.2047472555114 2085.519440121811
2101.841796287761 1867.335632518582
2102.47869186792 1893.0554321160266
2103.1154340324265 1803.6639852295225
2103.752022817709 1746.1894335862507
2104.388458260184 1843.314168559386
2105.024740396251 1860.848447835054
2105.660869262292 1556.4015941404336
2106.296844894685 1996.4231242990907
2106.93266732978 1910.2873969202835
2107.5683366039284 1879.055206102083
2108.2038527534532 1847.7925127543754
2108.8392158146726 1863.2853528657183
2109.4744258238843 1972.5625608569085
2110.1094828173755 1853.5856303980788
2110.744386831422 2136.6372935688137
2111.3791379022787 1842.748030759208
2112.01373606619 2061.3662367956213
2112.648181359389 1692.8433666499623
2113.28247381809 1975.9709107390743
2113.916613478492 1705.6886808397016
2114.550600376786 1768.4621436763414
2115.1844345491445 1989.2723333980132
2115.818116031729 1706.7806700936312
2116.451644860679 1713.439856106582
2117.085021072133 1667.5986680506926
2117.718244702204 1472.7109335117248
2118.3513157869984 1787.9186719398435
2118.984234362604 1531.5109691382727
2119.617000465092 1704.026272638344
2120.249614130529 1658.843020614003
2120.8820753949585 1613.5913383065686
2121.5143842944162 1742.4588436906902
2122.14654086492 1494.8456533078931
2122.7785451424734 1958.2926775808617
2123.4103971630702 1435.2509107591231
2124.042096962681 1865.5579986789348
2124.6736445772767 1901.2950987484433
2125.305040042802 1618.6481207765162
2125.936283395191 1764.280623103286
2126.567374670365 1843.3543639466238
2127.198313904233 1590.2481878412136
2127.8291011326855 1620.546719968771
2128.4597363916037 1650.7160652895043
2129.0902197168507 1752.865591166968
2129.720551144279 1637.2774107148402
2130.3507307097225 1939.75758979781
2130.980758449008 1999.5614407654455
2131.6106343979427 2050.6049125226555
2132.2403585923203 2101.5997156234
2132.8699310679276 1996.5763574303649
2133.499351860526 1767.8068653620212
2134.1286210058715 1958.5392462239065
2134.7577385397053 1579.6032571587086
2135.3867044977487 1753.0587323869781
2136.0155189157176 2090.7450169255767
2136.644181829308 2013.2974115213558
2137.2726932742025 1567.4538017077061
2137.901053286074 2031.4730224373477
2138.5292619005777 1650.3710034437372
2139.1573191533535 1641.7695939524972
2139.7852250800315 2015.4361091617297
2140.4129797162295 1960.6586619907168
2141.0405830975433 1502.698130254822
2141.6680352595613 1494.0403766760146
2142.2953362378576 1485.3830347113656
2142.9224860679915 1653.5946885938315
2143.549484785508 1564.1608360153218
2144.1763324259373 1751.7607466058441
2144.803029024799 1655.8548137054938
2145.429574617594 1652.2661126512853
2146.0559692398165 1846.5567636625049
2146.682212926942 1468.156021880731
2147.308305714432 1747.4901315878565
2147.9342476377333 2016.9035001315212
2148.5600387322847 2024.444505848433
2149.185679033506 1899.61204387522
2149.8111685768017 1685.546498371444
2150.4365073975678 1584.8132576596777
2151.061695531187 1693.3885146725352
2151.686733013021 1872.5845672423354
2152.311619878423 1782.4412630071388
2152.9363561627342 1711.336113578675
2153.560941901278 1624.6427296767743
2154.1853771293663 1878.8028879021483
2154.809661882293 1990.6948705744187
2155.433796195348 1992.022136637527
2156.0577801037944 1899.28455730954
2156.681613642895 2004.263560726375
2157.3052968478896 1760.646928846219
2157.928829754006 1756.1465130712254
2158.552212396462 1738.8283766278917
2159.1754448104566 1755.1015701521603
2159.7985270311783 1580.8617268514322
2160.4214590938027 1388.5162997470354
2161.0442410334927 1420.5576064762463
2161.6668728853874 1691.6923083081388
2162.289354684628 1530.3400456009456
2162.911686466332 1574.4350994318484
2163.533868265602 1939.7406987399008
2164.1559001175337 1968.6283614462786
2164.7777820572046 1941.7021249041143
2165.399514119681 1677.0979824338178
2166.021096340013 1344.5041377467853
2166.6425287532384 1451.5424813470447
2167.263811394385 1558.841059161397
2167.8849442984574 1999.2635528581352
2168.505927500455 1563.2296559822357
2169.126761035366 1852.2212016774415
2169.7474449381552 1580.0587425883218
2170.367979243778 1549.4338437427537
2170.9883639871823 1876.5795667334855
2171.608599203293 1628.5058467931187
2172.2286849270276 2000.0131674503525
2172.8486211932886 2140.847956931159
2173.4684080369625 1567.8146473778852
2174.0880454929265 1453.6937828710231
2174.7075335960417 1677.420262075176
2175.3268723811543 1920.2222809301425
2175.9460618831 1685.607355554479
2176.565102136701 1958.9360816341934
2177.1839931767627 1571.8279291475103
2177.802735038078 1768.0176288273183
2178.421327755432 1522.7575935740565
2179.0397713635866 1595.400912379291
2179.658065897298 1706.8791872898692
2180.276211391305 1469.7752165941947
2180.8942078803357 1582.5506528205558
2181.5120553991 1833.4783573516252
2182.129753982299 1594.1587515681276
2182.7473036646206 1774.4824943703238
2183.3647044807367 1690.5042852398074
2183.9819564653044 1621.1953827752611
2184.599059652968 1875.0975509065574
2185.216014078367 1867.9719931393215
2185.832819776113 1966.7988248993593
2186.4494767808137 2065.747708338475
2187.065985127063 1810.8011913177484
2187.682344849436 1696.0573089202996
2188.298555982501 1903.6824909321829
2188.9146185608097 1884.900894948417
2189.530532618901 1637.859989384509
2190.1462981912937 1665.011002182036
2190.761915312507 1782.0512721998152
2191.377384017036 1797.243483014156
2191.9927043393654 1759.391829319252
2192.6078763139667 1395.4783808225548
2193.2228999753006 1427.6014840933096
2193.837775357808 1459.8145089683799
2194.452502495922 1264.252266608321
2195.0670814240602 1527.1741459347697
2195.6815121766285 1605.503754640342
2196.2957947880186 1534.3730978724955
2196.9099292926057 1463.1041894654322
2197.523915724758 1863.4697703959682
2198.137754118825 1726.3872713752328
2198.7514445091456 1866.1262660566128
2199.3649869300443 1559.1576561751067
2199.9783814158327 1737.8532568988235
2200.5916280008096 2134.209092227341
2201.2047267192593 1880.6459464153206
2201.8176776054515 1895.4983231668098
2202.430480693649 1550.787676122744
2203.0431360180955 1752.991441186631
2203.6556436130195 1918.1774954891487
2204.268003512645 1816.9155961761026
2204.8802157511727 1715.457476612477
2205.492280362796 1966.774345174336
2206.1041973816937 1684.06093527167
2206.715966842032 1738.4116013052094
2207.3275887779655 1608.897065876526
2207.93906322363 1598.3722170330082
2208.550390213153 1802.9547261926386
2209.1615697806465 1635.6968544146912
2209.7726019602105 1345.185022750909
2210.3834867859277 1484.4163671571357
2210.9942242918787 1702.6908097190994
2211.6048145121167 1565.0353468319702
2212.2152574806914 2429.171018902286
2212.825553231638 1518.285216410826
2213.435701798975 2321.075343472166
2214.045703216707 1637.4262300959763
2214.655557518832 1285.944857219745
2215.2652647393297 1353.7251456091735
2215.874824912169 1390.6107682498596
2216.4842380713 1620.9721242885748
2217.09350425067 1539.0440406704067
2217.7026234842033 1556.6670974045041
2218.311595805819 1926.57697979495
2218.9204212494133 1507.675058539015
2219.52909984888 2016.8728828123767
2220.137631638092 2033.3328599929887
2220.7460166509154 2049.698008391808
2221.354254921198 1800.7362429163604
2221.9623464827764 1730.6563259014288
2222.5702913694713 1539.7670880179878
2223.178089615096 1571.3946368275317
2223.7857412534486 1640.5006391769844
2224.39324631831 1371.2005630832111
2225.000604843457 1424.3430012879103
2225.607816862641 1598.0132269577816
2226.214882409611 1771.8790543687198
2226.8218015180973 1861.3433069211064
2227.4285742218217 1596.4603061083092
2228.0352005544864 1697.261176850104
2228.6416805497847 1450.6046864659054
2229.248014241399 1604.9238269935177
2229.8542016629945 1450.6833976628836
2230.460242848223 1653.0544885265651
2231.0661378307304 1613.37958676654
2231.671886644139 1573.703279679849
2232.277489322065 1493.3301087456211
2232.8829458981127 1423.0513739107566
2233.48825640587 1707.636792693728
2234.0934208789095 2161.459233272776
2234.6984393507955 2059.487289479122
2235.3033118550793 1988.0394107826821
2235.9080384252975 1715.2559290088739
2236.5126190949723 1494.6806142167738
2237.1170538976166 1437.4350859276242
2237.721342866729 1476.6259457911904
2238.32548603579 1515.8831888623035
2238.9294834382763 1764.6196435288075
2239.533335107646 1513.91599885378
2240.1370410773434 1801.1452477071277
2240.740601380803 1611.7095866749676
2241.3440160514474 1707.014482740125
2241.9472851226783 1771.6248871232044
2242.550408627896 1483.188131047137
2243.1533866004793 1898.3124679682173
2243.756219073799 1730.4288295641968
2244.3589060812064 1526.8648115379842
2244.961447656049 1578.43975166487
2245.5638438316564 1641.9689139858697
2246.166094641343 1747.086115473164
2246.7682001184166 1588.8451246227291
2247.3701602961664 1603.7573487466484
2247.971975207871 1575.668195542678
2248.5736448867974 1604.6764246636753
2249.175169366197 1633.6731917815957
2249.7765486793123 1597.9016598622684
2250.3777828593684 1646.8442476297246
2250.9788719395783 1826.896947561399
2251.579815953146 1744.634164228625
2252.1806149332606 1389.1011813259508
2252.781268913097 1724.4222929226294
2253.381777925817 1366.8861897483907
2253.9821420045737 1674.185236408773
2254.5823611825035 1797.8958373967573
2255.1824354927303 1558.060078690445
2255.782364968365 1438.5333640757683
2256.38214964251 1318.8860410621508
2256.9817895482483 1328.8654495807318
2257.5812847186553 1591.111040242956
2258.180635186791 1434.6459287866348
2258.779840985704 1649.3869184028895
2259.37890214843 1557.5145497239673
2259.97781870799 1531.031771978577
2260.5765906973957 1504.5141916620498
2261.175218149645 1382.1166987910058
2261.773701097718 1454.3195734457584
2262.3720395745895 1526.609207806769
2262.970233613216 1319.0762178234384
2263.568283246548 1500.2836727029758
2264.1661885075137 1569.5791674070547
2264.763949429038 1652.57251305881
2265.3615660440246 1779.6578928964886
2265.959038385374 1619.9494756591043
2266.5563664859637 1876.399632740276
2267.153550378669 1480.9519223463594
2267.7505900963424 1774.40991340287
2268.3474856718312 1512.4876124323198
2268.9442371379664 1484.9952864390286
2269.5408445275643 1591.8476851776036
2270.1373078734377 1698.972218446307
2270.7336272083758 1662.541894598017
2271.32980256516 1538.7373807816011
2271.925833976562 1652.2269506468492
2272.5217214753357 1604.7973967464818
2273.117465094223 1557.2407745785247
2273.7130648659586 1563.3817939434566
2274.308520823257 1611.0774342132872
2274.903832998827 1857.5781851077481
2275.4990014253563 1683.5953915923042
2276.094026135528 1799.4055567297505
2276.6889071620117 1886.0186171159257
2277.2836445374614 1972.7009876116554
2277.878238294519 1746.842882707972
2278.472688465812 1554.6145556919612
2279.066995083962 1362.0434715025967
2279.6611581815705 1729.0488982910913
2280.255177791232 1985.6583047247423
2280.8490539455233 1681.2357107667362
2281.442786677013 2068.99265435698
2282.0363760182554 1714.568185752049
2282.6298220017943 1523.129504238479
2283.223124660155 1966.0026472389588
2283.816284025859 1542.043256744256
2284.4093001314086 1310.9699824019303
2285.002173009292 1856.997010613232
2285.5949026919952 1606.983580829958
2286.1874892119777 1458.2872945054062
2286.7799326016993 1402.6061121869539
2287.3722328936 1346.71544583498
2287.964390120109 1404.6742109673444
2288.556404313642 1646.87328372592
2289.1482755066027 1638.0265914370234
2289.7400037313873 1629.0942314044828
2290.3315890203703 1567.2346177557338
2290.9230314059205 1832.295545028516
2291.5143309203904 1689.9347431713843
2292.1054875961236 1783.9847011412578
2292.6965014654506 1878.3106001962271
2293.287372560684 1773.9553586027873
2293.878100914131 1632.1821892899236
2294.468686558086 1490.1588082939277
2295.059129524827 1687.448636905229
2295.649429846617 1987.0685420993573
2296.239587555716 1799.4972085739253
2296.8296026843636 1705.585006846737
2297.419475264791 1761.5301451216299
2298.0092053292137 1817.470168488062
2298.598792909839 1796.5916473538582
2299.1882380388597 1769.1565080952726
2299.777540748455 2081.2613761091006
2300.3667010707904 1824.4517762371493
2300.9557190380256 1644.2316357575248
2301.544594682302 1600.9852665791138
2302.1333280357503 1557.6674759553641
2302.721919130485 1915.2599301484759
2303.3103679986198 1900.3465444721976
2303.898674672242 1850.1951241132042
2304.486839183437 1808.2388857840328
2305.0748615642697 1766.4236930585062
2305.6627418468015 1644.0195027370453
2306.2504800630704 1511.7720571878729
2306.8380762451143 1524.8199417401984
2307.425530424949 1661.7655341761078
2308.012842634582 1799.0125063123683
2308.6000129060103 1935.7457823029486
2309.187041271214 1793.3634898590742
2309.773927762164 1650.6850500988792
2310.3606724108213 1745.4640257130395
2310.9472752491274 1578.019713988294
2311.5337363090184 1565.2775003046684
2312.120055622414 1474.8795860804853
2312.706233221221 1384.2595897702388
2313.2922691373424 1441.6833767535884
2313.8781634026564 1574.6953279616007
2314.463916049037 1708.0081006553642
2315.049527108342 1703.479559414994
2315.6349966124235 1950.809156502064
2316.2203245931123 1926.703821261961
2316.8055110822315 1736.6469232869797
2317.3905561115935 1546.1269309597935
2317.9754597129977 1435.3833820331074
2318.560221918229 2028.102548797843
2319.1448427590603 1690.606386978982
2319.729322267256 1173.1483265089907
2320.313660474563 1681.414272382262
2320.8978574127195 1691.08126679538
2321.481913113452 1700.858228492019
2322.0658276084705 1297.802648345089
2322.6496009294806 1628.7796838826562
2323.233233108165 1733.1593808595255
2323.8167241762058 1837.8024676624566
2324.4000741652617 1739.6481455010653
2324.983283106987 2118.2184245642165
2325.5663510330232 2029.9454063756348
2326.1492779749933 1660.0342476500384
2326.7320639645204 1818.380871131413
2327.3147090332004 1366.1372912170987
2327.897213212629 1444.7814511316753
2328.4795765343843 1523.4238867380914
2329.0617990300307 1340.128655768911
2329.643880731124 1546.460895500797
2330.22582166921 1753.1410422033473
2330.807621875816 1857.7736331293804
2331.3892813824623 1403.3419705085446
2331.9708002206517 1504.7269875436973
2332.5521784218818 1670.942934159491
2333.133416017634 1837.5694198535657
2333.7145130393765 1572.3166089602987
2334.295469518571 1824.457195662544
2334.876285486658 1884.438107114127
2335.456960975076 1514.300123500703
2336.037496015242 1510.8775367507783
2336.6178906385667 1507.476350923909
2337.198144876451 1728.5445799970512
2337.778258760278 1433.8201511943448
2338.3582323214214 1628.7060697252796
2338.938065591243 1824.0040606915777
2339.517758601087 1974.0747590404285
2340.0973113822965 1850.4199997740463
2340.676723966193 1378.0010820623959
2341.255996384094 1579.7082467774476
2341.835128667295 1750.7036675385903
2342.4141208470883 1726.5296391217332
2342.992972954751 1731.7562262486058
2343.5716850215467 1698.8340393563071
2344.1502570787306 1586.8332576068874
2344.7286891575386 1474.5387003518485
2345.3069812892045 1993.9111386699387
2345.885133504944 1697.967585214869
2346.4631458359618 1646.9600984752283
2347.04101831345 1705.5492111231263
2347.6187509685915 1617.6970417085042
2348.196343832553 1500.0495707634886
2348.7737969364935 1499.215268146908
2349.351110311558 1582.2500469562688
2349.9282839888765 1595.5265312458125
2350.5053179995757 1559.9213058698008
2351.0822123747585 1440.3254260488172
2351.658967145526 1503.68127660763
2352.2355823429643 1567.2315561302453
2352.812057998144 1712.5855599890638
2353.3883941421263 1417.3895234929814
2353.9645908059647 1714.2592365225087
2354.540648020693 1765.3737372931905
2355.116565817336 1473.0061290807955
2355.6923442269126 1536.3780197542058
2356.2679832804224 1543.3638411482705
2356.8434830088518 1424.7948737650347
2357.41884344318 1532.4568777370241
2357.994064614377 1640.26782155694
