#exp_cfg={"servo_angle": 0.0, "laser_lim": 100.0, "servo_angle_to": 18.0, "laser_wup": 0.0, "bt_dev": "EnSpectr-25AE3", "laser_wdn_max": 0.0, "frames": 10.0, "servo_used": 0, "servo_calib_use": 0, "laser_wdn_min": 0.0, "servo_pix_from": 90.0, "cooler_tout": 300.0, "servo_angle_from": 0.0, "servo_calib": "[-1.9174921013161362e-09, 3.9322238269163779e-05, -0.27385609119055809, 653.59552119713567]", "laser_autoctl": 0, "servo_pix_to": 3682.0, "laser_pw": 100.0, "cooler_on": 0, "laser_volt": 4.0, "cooler_autoctl": 0, "cooler_curr": 70.0, "cooler_startup": 10.0, "laser_fixed_pw": 0, "gain": 1.3, "offset": 2.53059635486, "servo_calib_degree": 3.0, "laser_curr": 55.0, "shutter": 8200.0, "servo_calib_step": 1.0, "laser_fixed_curr": 0, "exp": 2000.0, "ccd_volt": 4.7, "bt_addr": "00:06:66:62:5A:E3", "servo_delay": 500.0, "laser_autooff": 1}
#proc_cfg={"flat_auto_wnd": 200.0, "flat_auto_fr": 200.0, "flat_auto_shift": 5.0, "yconv": 1, "flatten": 1, "flatten_strength": 100.0, "xfrom": 300.0, "auto_max_frame": 2000.0, "auto_signal": 48000.0, "flat_auto_tol": 0.1, "autoclip": 1, "xrel_range": 0.0, "flat_auto_to": 4000.0, "intensity_adj": 1.0, "xrel": 7852.0, "rmhot": 1, "flat_auto_slit": 4.999999999999997, "auto_ini_exp": 300.0, "auto_off": 0, "xto": 2860.0, "flat_auto_ref": "", "flat_auto_rank": 1, "autobackg": 0, "xrel_adj": 0.0, "auto_black_lvl": 1, "base_wnd": 100.0, "sub_baseline": 0, "xconv": 2, "auto_max_exp": 1000.0, "auto_total_exp": 10000.0, "auto_exp": 0, "rmripple": 0, "black_lvl": 8282.625, "shutter_clip_adj": 0.0, "auto_bckg": 0, "flat_auto_thr": 0.9, "subbackg": 1}
316.8218498245369 13623.403018958896
317.89969571804795 13415.878422314112
318.977263876126 13350.294792902263
320.05455438786703 13392.279631104087
321.1315673423287 13327.69970741544
322.2083028285215 13357.369236553912
323.2847609354267 13211.146568474167
324.3609417519747 13222.43257678776
325.43684536705587 13133.52183987049
326.5124718695279 13091.164223157637
327.58782134820103 13156.847999476155
328.66289389184385 13128.481231863141
329.7376895891921 12940.277121463898
330.8122085289342 13005.236980754766
331.88645079971866 13041.268999899556
332.9604164901575 12939.879443570895
334.03410568881554 12926.391120581507
335.1075184842266 13037.751421420693
336.18065496487543 12814.857378461698
337.2535152192122 12909.739980281003
338.32609933564163 12897.83741431887
339.39840740253203 12828.976459342202
340.4704395082099 12710.116127147936
341.5421957409617 12755.681725452056
342.6136761890357 12821.042569625282
343.6848809406365 12669.140344394034
344.75581008392874 12640.3190406111
345.82646370703696 12676.468801945206
346.8968418980512 12675.389926164466
347.96694474501055 12607.248311984597
349.0367723359268 12528.795087991106
350.106324758759 12503.908671528648
351.1756021014353 12453.501158398245
352.2446044518383 12450.515306822599
353.31333189781435 12489.943060189276
354.38178452716966 12464.453961664822
355.449962427665 12452.6163495269
356.51786568702846 12444.790836180935
357.58549439294256 12510.697959860965
358.6528486330535 12581.949683890503
359.71992849496564 12512.279258268245
360.7867340662433 12499.360732506666
361.8532654344144 12525.47237051193
362.9195226869597 12636.340111966945
363.9855059113288 12447.707596977723
365.05121519492604 12415.809346050695
366.11665062511565 12536.835428573531
367.1818122892273 12561.132414730808
368.2467002745434 12451.644051514286
369.31131466831175 12477.980606145728
370.375655557742 12452.29733388865
371.4397230299983 12578.26983318163
372.5035171722102 12451.507994511969
373.5670380714637 12529.06832388982
374.6302858148101 12613.899543685398
375.6932604892554 12499.193535616105
376.7559621817709 12566.874140528867
377.81839097928605 12467.50746758647
378.8805469686886 12526.305385415388
379.94243023683157 12306.160698526084
381.0040408705263 12545.010301931397
382.0653789565458 12455.93033163331
383.1264445816196 12420.034375252297
384.1872378324406 12450.510421599507
385.2477587956637 12461.66145507303
386.3080075579037 12406.182228533096
387.3679842057336 12255.130965713308
388.4276888256918 12342.060981278635
389.48712150426945 12350.063006479668
390.54628232792857 12326.639438286582
391.6051713830857 12315.736061063286
392.66378875611736 12370.857773544136
393.7221345333637 12265.163930018058
394.7802088011249 12184.699051350062
395.838011645661 12217.628993284517
396.89554315319765 12190.633505651793
397.9528034099112 12142.17075030632
399.00979250194723 12061.600686842185
400.06651051541485 12083.72917578739
401.1229575363741 12176.193557031449
402.17913365085224 12049.84138674082
403.23503894483656 12129.405704304878
404.2906735042761 12060.718157381792
405.3460374150818 12064.292401792147
406.401130763119 12026.60925636403
407.455953634224 12036.633193588847
408.5105061141876 12075.362737987478
409.56478828876243 11867.727481213846
410.6188002436629 11939.002267957754
411.6725420645689 11963.296235436694
412.72601383711117 11964.97520540236
413.77921564689314 12063.30828215028
414.8321475794728 11898.301031559344
415.88480972036814 11912.196071584887
416.93720215506437 12050.659622928088
417.9893249690049 11897.759299077012
419.04117824759123 11838.413355665329
420.09276207619223 11832.116904020342
421.144076540133 11870.808293541706
422.1951217247042 11911.452878269527
423.24589771515275 11908.818804662082
424.2964045966928 11831.874079987705
425.34664245449494 11894.438290098278
426.3966113736933 11742.590854617305
427.4463114393875 11812.406755185553
428.49574273662984 11752.760634041024
429.5449053504417 11708.099519271109
430.5937993658026 11799.802017994398
431.6424248676558 11725.395376061037
432.6907819409007 11744.661388197042
433.73887067040596 11728.11026566766
434.7866911409965 11840.064415779167
435.8342434374608 11756.575948327913
436.88152764455117 11766.070182622469
437.9285438469724 11773.698875023729
438.9752921294057 11684.815706996069
440.02177257648145 11752.061405670685
441.06798527279716 11670.76213043075
442.1139303029122 11747.28840508554
443.1596077513459 11716.400528604496
444.2050177025794 11746.56573091264
445.25016024105753 11711.198745097461
446.2950354511886 11719.740566306478
447.33964341733736 11751.549426501408
448.383984223834 11687.504644941768
449.4280579549686 11601.072127264179
450.471864694995 11688.392667594606
451.5154045281306 11693.669793825356
452.5586775385509 11642.284960347326
453.60168381039693 11715.214053785561
454.64442342776783 11758.418846408344
455.6868964747264 11716.075517936777
456.7291030353008 11721.960552834682
457.77104319347563 11805.819769428144
458.8127170332027 11778.846008715653
459.854124638392 11797.525768668724
460.895266092919 11843.9759573906
461.93614148061897 11866.803871233835
462.97675088529104 11981.578536992787
464.01709439069236 11918.30421630783
465.0571720805492 11884.272873968897
466.0969840385442 11980.537311904785
467.1365303483253 12126.225010753846
468.17581109350067 12006.94777417395
469.2148263576437 11989.281953708702
470.2535762242878 12014.929154307623
471.29206077693016 12125.383269101498
472.33028009902773 12117.217701098354
473.3682342740012 12173.641647938059
474.40592338523857 12068.759159976773
475.4433475160804 12152.96210536229
476.4805067498364 12163.53444084764
477.51740116978 12146.770544615387
478.5540308591426 12270.1403041305
479.59039590112116 12372.385633300186
480.6264963788726 12255.663154763202
481.6623323755193 12393.36872703144
482.6979039741436 12410.87194313969
483.7332112577915 12478.27615254842
484.76825430947247 12677.009712555457
485.80303321215797 12587.181060798499
486.837548048783 12619.53957486688
487.8717989022425 12815.927700603512
488.90578585539697 12743.108192152367
489.9395089910686 12843.807326880222
490.97296839203955 12720.589488224321
492.00616414106116 12577.856535077739
493.0390963208429 12662.77988038887
494.0717650140559 12663.884714416447
495.10417030333883 12488.691926032901
496.1363122712901 12597.080473147635
497.16819100046814 12452.537052121192
498.1998065734024 12353.732450137082
499.2311590725767 12264.067551590306
500.26224858044407 12289.44184393547
501.2930751794156 12075.40458207051
502.3236389518679 12100.628873856542
503.35393998014115 11926.949293486769
504.38397834653733 12079.601123815391
505.4137541333221 11920.452636399054
506.4432674227228 11851.186296125856
507.4725182969323 11756.829370985874
508.5015068381035 11770.363329291995
509.53023312835467 11860.63403969881
510.55869724976765 11786.203868892426
511.58689928438434 11610.501087399109
512.6148393142121 11661.405358598266
513.6425174212218 11665.911587409153
514.6699336873462 11588.316102959321
515.6970881944835 11715.945033885993
516.7239810244901 11571.257276502009
517.7506122591931 11615.99769190999
518.7769819803761 11633.955693251091
519.8030902697901 11648.304804945974
520.8289372091476 11686.350574751143
521.8545228801249 11702.711309146285
522.8798473643619 11600.83562307493
523.9049107434621 11647.344872770085
524.9297130989908 11693.233310043295
525.9542545124805 11649.04913989847
526.9785350654201 11647.51898485758
528.0025548392696 11677.493900568374
529.0263139154504 11673.490290416674
530.0498123753423 11739.711993286111
531.073050300296 11623.485682503468
532.0960277716204 11650.168452561418
533.1187448705896 11587.760912902404
534.1412016784416 11655.93806032329
535.1633982763833 11571.478782381559
536.1853347455726 11586.507184035208
537.2070111671401 11651.665130400052
538.2284276221817 11509.51400374219
539.2495841917516 11477.940183926912
540.2704809568677 11421.121261161887
541.2911179985167 11428.108700569179
542.3114953976419 11336.994632623711
543.3316132351592 11342.24871669809
544.3514715919409 11222.719782170327
545.3710705488247 11283.777460422209
546.3904101866156 11174.592923179243
547.4094905860784 11356.83814163107
548.4283118279418 11238.461860377833
549.4468739929034 11356.14526189741
550.4651771616191 11265.301929303458
551.4832214147063 11167.191018635993
552.501006832761 11283.830330833578
553.5185334963226 11173.643169149704
554.5358014859103 11264.962090769492
555.5528108820035 11272.993344364671
556.5695617650363 11156.499186334615
557.5860542154242 11218.626270412564
558.6022883135283 11176.124810161806
559.6182641396881 11202.76818038891
560.6339817741991 11210.83165454429
561.6494412973225 11277.347568750456
562.6646427892883 11287.101162575567
563.6795863302796 11244.830145376127
564.694272000459 11254.582775741748
565.7086998799423 11347.908191786933
566.7228700488104 11292.372628846138
567.7367825871115 11174.894439196802
568.7504375748576 11209.778596765736
569.7638350920224 11193.447731756998
570.7769752185486 11213.609442756902
571.7898580343353 11223.80315546573
572.802483619258 11127.60725344378
573.8148520531431 11331.10164324231
574.8269634157932 11265.040271599319
575.8388177869692 11194.832027794158
576.8504152463938 11274.487363285283
577.8617558737587 11402.273747925172
578.8728397487175 11269.759649002503
579.883666950891 11360.020621621103
580.8942375598654 11438.181213510496
581.9045516551851 11466.571464829056
582.9146093163617 11618.731246923653
583.924410622878 11535.319568530489
584.9339556541727 11527.008740827407
585.9432444896538 11794.125745464024
586.9522772086875 11529.204230026935
587.9610538906127 11615.595354797859
588.9695746147318 11569.279258543127
589.9778394603054 11681.460548231875
590.985848506567 11545.713724505691
591.9936018327098 11545.036238695413
593.0010995178891 11373.935765586524
594.0083416412344 11479.23666785148
595.0153282818283 11293.827545321863
596.0220595187293 11301.8219447292
597.0285354309508 11252.398032060924
598.0347560974806 11301.352567423884
599.0407215972609 11219.195248626293
600.0464320092051 11171.572027670405
601.0518874121954 11284.569755267978
602.0570878850685 11218.209823475805
603.062033506636 11283.92530881108
604.0667243556636 11293.78673839891
605.0711605108936 11240.755704534069
606.0753420510264 11496.603249773943
607.0792690547278 11310.387736707376
608.082941600629 11381.434285428668
609.0863597673306 11246.757510211693
610.0895236333909 11363.14176664987
611.0924332773357 11547.176552502291
612.0950887776617 11541.395704303199
613.0974902128219 11577.942967607514
614.0996376612384 11777.269255682388
615.1015312013005 11751.012908722445
616.1031709113595 11861.654750072898
617.1045568697336 11731.544382040305
618.1056891547069 11985.017719107329
619.1065678445229 12063.608586592321
620.1071930173985 12322.84228561123
621.1075647515099 12310.772529617356
622.1076831250048 12358.836033358208
623.1075482159849 12417.103462272393
624.1071601025305 12615.62647265699
625.1065188626781 12618.5350651373
626.105624574433 12827.63282089093
627.1044773157682 12876.770145262284
628.1030771646128 12858.570148836561
629.1014241988742 13000.352431738314
630.0995184964158 13239.587950849911
631.0973601350688 13168.90794586323
632.0949491926294 13345.500393370423
633.0922857468631 13174.96445213087
634.089369875499 13264.512673852829
635.0862016562278 13155.389706548862
636.0827811667077 12942.086453841457
637.0791084845641 13021.730145772224
638.0751836873878 12862.213483639034
639.0710068527369 12904.811255295923
640.0665780581294 12653.272171468845
641.0618973810506 12671.190290087938
642.0569648989604 12636.952861516384
643.0517806892676 12405.921219921353
644.0463448293649 12356.465662392726
645.040657396592 12303.347213810226
646.0347184682723 12234.786512197777
647.0285281216875 12052.279356296069
648.0220864340772 12087.23107600187
649.0153934826558 11941.880295082012
650.0084493446047 11906.332598363582
651.0012540970674 11799.08934280557
651.9938078171526 11693.356995243867
652.9861105819346 11593.501290969676
653.9781624684565 11704.825282623233
654.9699635537254 11520.299151340547
655.9615139147136 11579.137056893447
656.9528136283589 11517.761750503165
657.9438627715699 11490.397416528676
658.9346614212154 11430.80658042782
659.925209654135 11253.952225945846
660.9155075471263 11341.419601316884
661.9055551769616 11353.080757774324
662.895352620375 11351.33272125675
663.8848999540678 11245.639298734926
664.8741972547068 11066.120086782244
665.863244598926 11124.367098724751
666.8520420633213 11197.521373653854
667.8405897244611 11237.022368124315
668.8288876588758 11050.37837698705
669.8169359430613 11219.586359989005
670.8047346534822 11135.995906345612
671.7922838665672 11103.737272256794
672.7795836587156 11150.39648508391
673.766634106285 11216.193915944194
674.7534352856092 11208.43654680773
675.7399872729766 11178.367816523809
676.7262901446538 11190.340616100511
677.712343976862 11163.524170926992
678.6981488457986 11176.484539231815
679.6837048276229 11078.919282047435
680.6690119984596 11165.687990236522
681.6540704344043 11180.144631777479
682.6388802115107 11154.015015331672
683.6234414058108 11185.544505711681
684.6077540932874 11039.39371750328
685.591818349907 11078.00220788758
686.575634251587 11031.3379130296
687.5592018742263 10997.83048288335
688.5425212936734 10894.553480715582
689.5255925857564 10925.112387116586
690.5084158262707 10961.502173241952
691.4909910909646 10896.968252664277
692.4733184555644 10831.606078129062
693.4553979957618 10955.119099852333
694.4372297872123 10870.688296572973
695.4188139055404 10852.245342220496
696.4001504263324 10792.264354007215
697.3812394251509 10918.466577143823
698.3620809775111 10798.497174403672
699.3426751589104 10874.242975002671
700.3230220448004 10823.000687453434
701.3031217106054 10904.307440753288
702.2829742317172 11035.464665859265
703.2625796834873 10859.4761843552
704.2419381412474 10883.818935187976
705.22104968028 11038.772412582895
706.1999143758458 10948.200924839313
707.178532303169 10974.280400548369
708.1569035374378 11087.902220808623
709.1350281538107 11136.74039412144
710.1129062274158 11201.759015515288
711.0905378333373 11305.022818361344
712.0679230466376 11381.54041946566
713.0450619423427 11533.27702904473
714.0219545954424 11686.634308417213
714.9986010808989 11604.538937621073
715.9750014736292 11777.761726876812
716.9511558485392 11986.755614450603
717.9270642804786 12041.325485082427
718.9027268442787 12182.618090223636
719.8781436147328 12098.736634882234
720.8533146666014 12069.08408641918
721.828240074612 12055.784956972948
722.8029199134635 12016.294763574973
723.7773542578125 11981.17612206953
724.751543182294 11906.224307737246
725.7254867615029 11840.616336332683
726.6991850700015 11633.236837605522
727.6726381823228 11623.87798693065
728.6458461729599 11642.68396557818
729.6188091163858 11489.337714710056
730.5915270870246 11542.708356475288
731.5640001592856 11447.146494904639
732.536228407529 11510.40754405872
733.5082119060917 11558.770804820138
734.4799507292755 11535.755384479915
735.4514449513481 11494.560830721883
736.4226946465496 11626.339522487353
737.3936998890786 11699.667993291787
738.3644607531078 11495.169958902286
739.3349773127793 11460.342221700539
740.3052496421951 11441.35162086524
741.27527781543 11277.683100978107
742.2450619065221 11148.563762577987
743.2146019894826 11202.32193270078
744.183898138288 11071.83349920708
745.1529504268801 10912.510077050141
746.1217589291682 10819.927428265179
747.0903237190341 10687.197413538124
748.058644870318 10733.60515670064
749.0267224568397 10656.49215930737
749.994556552374 10441.789828069941
750.9621472306771 10502.905446610881
751.9294945654583 10472.911726776245
752.8965986304011 10475.37901962826
753.8634594991636 10437.223126856912
754.8300772453586 10482.020623689412
755.7964519425768 10403.48554305267
756.762583664371 10375.26865439176
757.7284724842611 10340.173000440682
758.6941184757416 10361.854423003633
759.6595217122667 10321.355085892295
760.6246822672638 10330.810731555906
761.5896002141235 10190.638767842524
762.5542756262093 10275.843173390782
763.5187085768503 10354.864935277083
764.4828991393406 10317.81663191779
765.4468473869474 10207.297879413301
766.4105533929032 10181.601316436963
767.3740172304078 10159.358669564604
768.3372389726283 10213.915906858474
769.3002186926988 10156.797013527259
770.2629564637282 10050.744356670762
771.2254523587872 10178.523431337782
772.1877064509154 10062.394423682435
773.1497188131179 10063.025382307193
774.1114895183728 9968.60670724595
775.0730186396268 10093.244822148112
776.0343062497905 9977.879081353169
776.9953524217381 9940.856540350414
777.9561572283274 9897.392394211052
778.9167207423689 9916.948780976794
779.8770430366476 9894.529348667798
780.8371241839159 9950.144784030623
781.7969642568951 9888.915793512799
782.7565633282757 10133.733455121068
783.7159214707099 9909.873004715571
784.6750387568281 9920.532000649939
785.6339152592227 9903.018790255372
786.5925510504512 9883.92498354155
787.5509462030477 9928.351727042655
788.5091007895098 9919.18334949088
789.4670148823006 9888.714492223507
790.4246885538596 9937.121822668716
791.3821218765861 9975.428917790126
792.3393149228505 9841.944819277578
793.2962677649975 10039.115604568116
794.2529804753303 10008.215809802257
795.20945312613 10010.01026273595
796.1656857896378 9960.94277301309
797.1216785380675 9995.191875088702
798.0774314435985 10140.370348510556
799.0329445783846 10195.952164643442
799.9882180145414 10184.373977812185
800.9432518241574 10216.261240320915
801.89804607929 10321.51588360256
802.852600851962 10387.671079701397
803.8069162141637 10275.019354718963
804.760992237856 10393.331264481985
805.714828994971 10419.843759034939
806.6684265574077 10486.401148805497
807.6217849970271 10391.509056559864
808.574904385674 10340.989450451001
809.527784795142 10421.909477591991
810.4804262972102 10469.299905757263
811.4328289636178 10331.723703003865
812.3849928660748 10196.996738575519
813.3369180762638 10237.976176418582
814.2886046658241 10269.413015506208
815.2400527063783 10066.699553125214
816.1912622695108 10041.850296226385
817.1422334267718 10058.380265068947
818.0929662496856 9947.401588347533
819.0434608097457 9927.621530614028
819.9937171784059 9853.708735154274
820.9437354271013 9751.569024398093
821.8935156272255 9844.87965243913
822.8430578501484 9761.29036900831
823.7923621672016 9624.311523527851
824.7414286496896 9712.612118368077
825.6902573688876 9756.774123215722
826.6388483960363 9728.872813269223
827.5872018023492 9624.264074430244
828.5353176590033 9711.737019600156
829.4831960371503 9557.275260618791
830.4308370079016 9588.504057132002
831.3782406423525 9635.827607402349
832.3254070115545 9660.192443483606
833.2723361865319 9489.752274401713
834.2190282382799 9534.575062290252
835.1654832377644 9625.629443018235
836.1117012559116 9557.52430055456
837.0576823636256 9672.868903976709
838.003426631778 9536.80669731212
838.9489341312074 9422.820796594266
839.8942049327197 9560.679851324643
840.8392391070975 9597.946621467465
841.7840367250865 9484.63836680446
842.7285978573982 9414.414235127024
843.672922574724 9516.74361952122
844.6170109477152 9426.811860398799
845.560863046996 9520.686408846052
846.5044789431595 9396.327663854001
847.4478587067697 9374.358819012485
848.3910024083561 9560.831728318704
849.333910118421 9441.26079119249
850.2765819074339 9435.455814129276
851.2190178458332 9519.141032898504
852.161218004032 9555.56994090875
853.1031824524016 9554.266071755133
854.0449112612987 9523.916796913807
854.9864045010327 9673.536258095179
855.9276622418947 9414.791168171052
856.8686845541379 9454.697156038812
857.8094715079915 9514.041359312041
858.7500231736467 9669.176047684658
859.690339621271 9565.701010133924
860.6304209209939 9656.87780793851
861.5702671429244 9471.536410659943
862.5098783571284 9646.121150648183
863.4492546336569 9658.751988439655
864.3883960425155 9644.067270152522
865.3273026536863 9692.430094911168
866.2659745371238 9770.232750884925
867.2044117627465 9938.19381741984
868.1426144004472 9812.882469900664
869.0805825200823 10004.203693510924
870.0183161914847 10085.89303661796
870.9558154844526 10186.526370393296
871.8930804687552 10238.72489759577
872.8301112141307 10114.49408177347
873.7669077902865 10262.167265312639
874.7034702669062 10188.58858414324
875.6397987136315 10152.187994392809
876.5758932000863 10093.822627120328
877.5117537958522 10256.364921753779
878.4473805704911 10132.20895449325
879.3827735935283 9999.288530754891
880.3179329344603 10121.95709940196
881.2528586627541 10136.519607737626
882.1875508478479 10118.679620063738
883.1220095591489 9974.219488686618
884.0562348660296 9815.057640429368
884.9902268378391 10025.653107375723
885.9239855438955 9881.490492011286
886.8575110534839 9873.81213205368
887.7908034358588 9820.76051734468
888.7238627602474 9864.597016509859
889.6566890958475 9720.90893057837
890.5892825118208 9696.847433484392
891.5216430773125 9723.641508741555
892.4537708614189 9644.23396385441
893.3856659332196 9608.119073304711
894.3173283617652 9508.096742632933
895.2487582160684 9609.373159090486
896.179955565116 9545.062778912292
897.110920477864 9422.577758845
898.0416530232451 9458.97650597829
898.9721532701478 9384.264115537404
899.9024212874428 9616.986920806685
900.8324571439662 9283.0523793032
901.7622609085302 9376.938357721036
902.6918326499072 9112.312277825777
903.6211724368477 9366.561012803051
904.5502803380696 9343.437286339045
905.4791564222614 9403.287510171536
906.4078007580792 9232.205289858488
907.3362134141571 9288.551000249437
908.2643944590909 9340.791886831152
909.1923439614493 9281.637343255832
910.1200619897754 9162.689841877209
911.0475486125779 9437.339994166436
911.9748038983344 9195.20404081915
912.9018279155007 9343.204948933566
913.8286207324982 9217.841646895004
914.7551824177117 9212.983146451423
915.6815130395116 9259.975960151136
916.6076126662283 9204.153656638067
917.533481366163 9131.40631104468
918.4591192075914 9166.991325859486
919.3845262587565 9157.159419505464
920.3097025878706 9115.472287336943
921.2346482631237 9063.519564200804
922.1593633526682 9131.057184775736
923.0838479246304 9171.243361087338
924.0081020471061 9214.868601136757
924.9321257881656 9065.911660965823
925.8559192158464 9111.180526180158
926.7794823981512 9062.574029811596
927.7028154030686 9065.00641100403
928.6259182985414 8978.640488175737
929.5487911524906 9173.657654201073
930.4714340328119 9118.723246474834
931.3938470073608 8962.110147961861
932.3160301439748 9051.503813089508
933.2379835104548 9060.682861115718
934.1597071745709 9097.83987318235
935.0812012040769 9062.196486917952
936.002465666681 8980.587441881866
936.9235006300696 9078.655093851365
937.8443061619055 9048.09797641842
938.7648823298077 8834.50458566501
939.6852292013809 8993.62539145447
940.6053468441951 9069.96311824636
941.5252353257874 8880.64739257828
942.4448947136698 8922.686798713892
943.364325075323 8873.66189615574
944.2835264782043 9004.371126511835
945.2024989897309 8872.20204391066
946.1212426773054 9021.33953586054
947.0397576082851 8984.911455363728
947.9580438500125 9050.634920712333
948.8761014697939 9033.822325941645
949.7939305349064 9046.602534244588
950.7115311125999 8990.87478673239
951.6289032700952 9023.628075198034
952.5460470745875 9058.724210091254
953.4629625932339 9051.496483338382
954.3796498931715 9136.757911065562
955.2961090415029 9080.014912791605
956.2123401053068 9100.418926168793
957.1283431516276 9079.873472044244
958.0441182474842 9008.925939828556
958.9596654598663 9104.05467941663
959.8749848557309 9015.723405229475
960.7900765020167 9051.488358514855
961.7049404656209 9034.594702884013
962.6195768134185 8989.31850636109
963.5339856122537 8941.946014001584
964.4481669289453 8985.75611938716
965.3621208302793 8933.46321988381
966.2758473830145 8993.14968925992
967.1893466538822 9053.079179676197
968.1026187095813 8897.613552739173
969.0156636167867 9048.937708768508
969.9284814421426 9002.135575488901
970.8410722522622 8928.28159372807
971.753436113735 8908.500244487044
972.6655730931161 8793.497408522166
973.5774832569368 8948.862448764625
974.4891666716958 8797.503575299048
975.4006234038698 8838.97081101622
976.3118535198955 8755.713331095605
977.2228570861935 8918.839242077293
978.1336341691494 8907.453999597044
979.0441848351202 8835.110974622901
979.9545091504333 8875.632862864675
980.864607181391 9011.070495249181
981.7744789942699 8956.327406300665
982.6841246553086 8970.123549441636
983.5935442307236 8956.181689873967
984.5027377867027 9120.781134692665
985.4117053894024 8969.570441312226
986.3204471049557 8984.284608887616
987.2289629994648 9040.742913281965
988.1372531390007 9091.43820198792
989.0453175896091 8994.62539026185
989.9531564173067 9046.851012472589
990.860769688079 8908.551769902491
991.7681574678918 9047.095345241201
992.6753198226706 9069.74669285196
993.582256818323 9049.989422304332
994.4889685207218 9113.831993804815
995.3954549957143 9266.802346068545
996.301716309119 9186.733994254504
997.2077525267232 9188.087545087577
998.1135637142943 9131.188263832362
999.0191499375615 9286.63324585904
999.924511262232 9209.262860872015
1000.8296477539861 9227.712320227018
1001.7345594784656 9100.55574181752
1002.6392465012996 9254.838609384418
1003.5437088880753 9215.876355965744
1004.4479467043584 9146.966690085517
1005.3519600156869 8978.551909537677
1006.2557488875718 9135.268824356219
1007.1593133854858 9030.557662655618
1008.0626535748888 9048.278791664115
1008.9657695212009 8948.904147387808
1009.8686612898182 9103.217555361985
1010.7713289461135 9094.040354018998
1011.6737725554212 9006.68743841001
1012.5759921830577 8993.357092034981
1013.4779878943027 9080.885237311148
1014.379759754418 8993.136460261117
1015.2813078286254 8970.146413012186
1016.18263218213 8765.573101043537
1017.0837328801026 8971.31856068638
1017.9846099876886 9032.279396627007
1018.8852635700023 8924.007647005896
1019.7856936921362 8774.315374916736
1020.6859004191447 9010.509391878846
1021.5858838160675 8949.28222741634
1022.4856439479063 8801.802854811565
1023.3851808796389 8795.227029473146
1024.2844946762143 8903.103679640124
1025.183585402554 8825.413052085463
1026.082453123554 8679.744721864412
1026.9810979040776 8728.490865339221
1027.8795198089647 8686.093915206957
1028.777718903024 8785.725677151784
1029.6756952510368 8743.869603228184
1030.5734489177648 8671.96680114289
1031.4709799679313 8738.479850894237
1032.3682884662358 8809.210881322526
1033.2653744773506 8666.880814310376
1034.1622380659192 8657.439070288523
1035.058879296559 8706.705579984933
1035.9552982338591 8794.684696881804
1036.8514949423825 8700.490424633494
1037.7474694866614 8728.036213735344
1038.6432219312028 8770.802301926575
1039.5387523404825 8846.016920536928
1040.4340607789582 8871.013039249185
1041.3291473110476 8810.108986361814
1042.2240120011465 8962.369683443032
1043.1186549136273 9034.7810371148
1044.0130761128294 8825.30435221159
1044.9072756630649 8990.275886233585
1045.8012536286205 9067.701115722977
1046.6950100737577 8951.115978520404
1047.588545062701 9064.518009524225
1048.481858659663 9003.99892637499
1049.3749509288118 9207.255914413226
1050.2678219343034 8995.612796004581
1051.1604717402515 9055.823784358898
1052.0529004107575 8887.483515438606
1052.9451080098825 9087.427233039602
1053.8370946016694 8958.396372035731
1054.7288602501267 9001.932791343312
1055.6204050192446 8925.270049597431
1056.511728972977 9061.460758155838
1057.402832175254 8926.231906957884
1058.2937146899785 8807.724164553749
1059.1843765810263 8831.336143031047
1060.0748179122456 9018.635660918531
1060.9650387474576 8769.85851116992
1061.855039150456 8851.406866885378
1062.7448191850071 8823.89905913582
1063.6343789148505 8804.758399234977
1064.5237184037014 8837.62211455982
1065.412837715241 8709.508335051474
1066.3017369131267 8667.143027120512
1067.190416060992 8712.535019069483
1068.0788752224398 8621.802363492634
1068.9671144610438 8591.88694584439
1069.8551338403558 8653.696462895754
1070.7429334239023 8800.542577683029
1071.6305132751695 8655.705259605082
1072.517873457633 8680.791287050684
1073.4050140347335 8598.084104921976
1074.2919350698776 8610.51410192636
1075.1786366264623 8677.317997228412
1076.0651187678395 8593.693097091029
1076.95138155735 8504.373728139799
1077.8374250582929 8494.912143883954
1078.7232493339507 8653.806674670983
1079.608854447577 8554.154182673155
1080.4942404623907 8549.378552785503
1081.3794074415982 8714.600385397302
1082.2643554483657 8508.053788121884
1083.149084545841 8612.745241919798
1084.033594797138 8416.825714590557
1084.9178862653516 8523.045267866188
1085.8019590135427 8572.24982290051
1086.6858131047484 8494.530161499846
1087.5694486019802 8488.70112351149
1088.4528655682225 8565.481136035492
1089.3360640664287 8711.284782650664
1090.2190441595321 8594.31829319823
1091.1018059104317 8593.812003374698
1091.98434938201 8601.887021201788
1092.866674637111 8645.023806620497
1093.748781738559 8640.252108223092
1094.6306707491512 8515.50675249891
1095.5123417316554 8611.45899919266
1096.3937947488157 8614.878889767311
1097.2750298633455 8588.878084149615
1098.156047137938 8553.576885448905
1099.0368466352556 8725.893088788942
1099.9174284179317 8636.69940579884
1100.7977925485757 8541.735883180645
1101.6779390897755 8555.592563677568
1102.5578681040806 8549.638712338783
1103.4375796540226 8526.868247667566
1104.3170738021054 8460.459678770343
1105.1963506108077 8357.846562816503
1106.0754101425773 8449.874843021027
1106.9542524598382 8392.425977698218
1107.8328776249855 8322.775019034694
1108.7112857003904 8388.442136829879
1109.5894767483987 8367.585383257574
1110.4674508313292 8454.805212381067
1111.3452080114657 8349.282802834465
1112.2227483510815 8420.501708196656
1113.1000719124077 8549.799237301266
1113.9771787576592 8582.386606561302
1114.854068949022 8471.834787643846
1115.7307425486542 8518.589589411615
1116.6071996186893 8745.478273623183
1117.483440221229 8940.1280895169
1118.3594644183577 8727.434991472803
1119.235272272128 8693.56971397227
1120.1108638445658 8829.873336330977
1120.9862391976712 8993.485404096753
1121.8613983934229 8903.950048261224
1122.7363414937627 9007.52893549862
1123.6110685606182 9014.212917079874
1124.485579655884 9262.080080061296
1125.359874841426 9054.638693354551
1126.2339541790916 9031.964603365528
1127.1078177306936 9258.873346758148
1127.9814655580267 9102.37825365338
1128.854897722851 9191.173923223907
1129.7281142869106 9125.838000900374
1130.6011153119125 9257.839637249834
1131.473900859548 9301.709376695837
1132.3464709914697 9157.98044515115
1133.2188257693178 9068.48603955984
1134.0909652546961 9118.06287264352
1134.96288950919 8964.188439744095
1135.8345985943506 9067.787373472103
1136.7060925717087 8818.435943304165
1137.57737150277 8934.894131538342
1138.4484354490069 8961.458784706341
1139.3192844718778 8771.473113826214
1140.1899186327992 8573.1336660915
1141.060337993178 8801.357629850463
1141.930542614382 8624.277764070508
1142.8005325577597 8633.15957915571
1143.670307884635 8365.764742707688
1144.5398686563003 8642.69895400076
1145.409214934025 8397.564448742956
1146.2783467790541 8216.337319591457
1147.1472642526023 8277.52823159679
1148.0159674158622 8426.203074696652
1148.8844563300026 8184.450655363517
1149.7527310561618 8193.71067547097
1150.6207916554504 8044.630652849686
1151.4886381889592 8181.026885416545
1152.3562707177498 8189.523463762681
1153.2236893028585 8198.79743898351
1154.090894005296 8096.466483477956
1154.9578848860474 8173.709505674941
1155.8246620060709 8032.47091248074
1156.6912254262988 8114.5506887160345
1157.5575752076438 8032.570982846114
1158.42371141098 8116.150032369772
1159.2896340971656 8148.105747044477
1160.1553433270346 8120.400873181214
1161.0208391613887 7984.786404194883
1161.8861216610057 8183.505121828115
1162.75119088664 8127.734396279561
1163.6160468990201 7918.972837171774
1164.4806897588442 7888.609779244589
1165.3451195267917 8172.307690297702
1166.2093362635114 8040.212453178121
1167.0733400296285 8029.271870581174
1167.9371308857444 7924.561496794918
1168.8007088924278 8044.140176096524
1169.6640741102328 8043.528329571533
1170.5272265996773 8017.961300666284
1171.390166421259 7884.293994040864
1172.252893635452 8021.462076824639
1173.1154083026995 8044.568809523365
1173.977710483421 7998.903990989796
1174.8398002380145 7835.630531839587
1175.7016776268483 7933.032778051677
1176.563342710264 8040.606258280515
1177.4247955485826 7814.399849911768
1178.2860362020947 8032.168145723879
1179.147064731069 7916.109615536251
1180.0078811957483 8016.47558600554
1180.8684856563486 7884.220405792793
1181.7288781730604 7972.728286780273
1182.589058806052 8124.427238263134
1183.4490276154593 8172.906122739366
1184.3087846614017 8076.076530055939
1185.1683300039676 8055.650721575742
1186.027663703222 8337.138610478822
1186.8867858192025 8178.863854010417
1187.7456964119228 8257.632961651292
1188.6043955413716 8302.340361593686
1189.4628832675116 8398.798005649178
1190.3211596502842 8308.590725698474
1191.179224749596 8517.119014588236
1192.0370786253388 8342.934513296606
1192.8947213373758 8480.872286678543
1193.7521529455407 8649.016009435916
1194.6093735096438 8398.26152229827
1195.466383089477 8525.352754891828
1196.3231817447977 8482.286993941363
1197.1797695353398 8648.730163874574
1198.0361465208189 8408.261654106234
1198.8923127609214 8486.193966587418
1199.7482683153048 8534.875270786304
1200.6040132436028 8582.435951507436
1201.459547605431 8611.489104786637
1202.3148714603722 8364.833472393844
1203.1699848679855 8457.711565585341
1204.0248878878065 8450.530760167125
1204.8795805793507 8423.684694263786
1205.7340630020935 8497.327345709647
1206.5883352155033 8469.585530494256
1207.4423972790064 8429.46401103846
1208.2962492520237 8431.800801763517
1209.1498911939307 8433.495966894468
1210.0033231640937 8500.470921865208
1210.8565452218427 8422.565536283848
1211.7095574264913 8271.096444784216
1212.5623598373222 8209.729459971033
1213.4149525135963 8283.726201434543
1214.2673355145507 8168.685491257439
1215.1195088993936 8102.07942955298
1215.9714727273113 8188.59848903145
1216.8232270574663 8277.787679366636
1217.6747719489904 8055.499091275249
1218.5261074609934 8168.7227383633635
1219.3772336525653 8131.175045878747
1220.2281505827668 8206.51666331666
1221.0788583106296 8236.709163322095
1221.9293568951707 8080.406418749262
1222.7796463953746 8069.933737419136
1223.629726870202 8169.897423792505
1224.4795983785934 8163.025050571037
1225.3292609794553 8133.285578201263
1226.1787147316809 8032.685889302961
1227.0279596941327 8075.01537865078
1227.8769959256424 8101.134940625134
1228.7258234850306 8101.259614297889
1229.5744424310833 7910.030544941661
1230.422852822563 8069.596367009178
1231.2710547182105 8149.8190933730075
1232.119048176739 7988.808806800994
1232.9668332568417 7920.414555511108
1233.8144100171812 8068.80272388094
1234.6617785163999 7935.431309085865
1235.508938813111 7856.50714314307
1236.3558909659114 7806.397606504235
1237.2026350333617 8002.674308810778
1238.049171074008 8052.970630806054
1238.8954991463652 7805.919235479718
1239.741619308932 7758.159841242559
1240.587531620169 8464.854632909895
1241.4332361385277 7839.536313492618
1242.2787329224248 7727.775179059067
1243.1240220302534 7729.998760915163
1243.9691035203869 7777.636136811767
1244.813977451171 7834.274704983227
1245.6586438809263 7780.922207002994
1246.5031028679496 7592.249154669497
1247.3473544705157 7841.306110756339
1248.1913987468706 7744.498310496861
1249.0352357552383 7684.193186208414
1249.8788655538228 7715.667247880885
1250.7222882007918 7803.448604751058
1251.565503754302 7781.400665751271
1252.4085122724755 7704.252901156901
1253.2513138134182 7761.764304446265
1254.0939084352049 7784.485947252392
1254.9362961958905 7766.561090959514
1255.7784771535007 7716.022821940702
1256.6204513660432 7777.8878050420735
1257.4622188915 7807.598292014081
1258.3037797878242 7794.537510210803
1259.1451341129468 7745.092294602457
1259.9862819247755 7744.95689879385
1260.8272232811978 7763.735068573265
1261.6679582400666 7946.64067844047
1262.5084868592203 7620.390894326132
1263.34880919647 7674.312876986965
1264.1889253095997 7802.0382015581345
1265.0288352563712 7816.655161775244
1265.8685390945266 7692.875800233301
1266.7080368817751 7803.197041119539
1267.5473286758115 7785.377973168421
1268.386414534294 7774.981070922215
1269.2252945148703 7533.835421504658
1270.0639686751547 7763.24484614307
1270.9024370727402 7719.11329072113
1271.7406997651997 7625.773039254238
1272.5787568100714 7667.756182451507
1273.4166082648808 7597.4404220370925
1274.2542541871244 7729.895686597051
1275.091694634275 7855.147791237667
1275.9289296637817 7561.532195381988
1276.7659593330663 7578.197396490922
1277.6027836995308 7660.642277996936
1278.4394028205552 7730.746718053226
1279.2758167534867 7561.883014255242
1280.112025555658 7625.722426687277
1280.9480292843746 7693.452068057972
1281.7838279969128 7511.078583577172
1282.6194217505326 7603.5366909758395
1283.4548106024686 7425.110959199727
1284.289994609926 7580.0483974243125
1285.1249738300921 7701.234873845429
1285.959748320127 7542.65701273758
1286.7943181371702 7562.686273415119
1287.6286833383328 7539.34545990799
1288.4628439807038 7587.954607576188
1289.2968001213521 7528.375113758904
1290.1305518173194 7581.88787226783
1290.9640991256183 7631.463958464071
1291.7974421032523 7457.9401353585
1292.630580807183 7578.0831465170195
1293.463515294361 7696.387555384198
1294.29624562171 7591.150828803313
1295.12877184613 7576.946790186096
1295.961094024493 7596.758947069155
1296.79321221365 7579.532446747338
1297.6251264704333 7703.716436606692
1298.4568368516466 7809.798404669285
1299.2883434140658 7650.046816001692
1300.1196462144526 7514.321976910173
1300.9507453095375 7731.335151643497
1301.7816407560313 7627.347657879577
1302.6123326106172 7740.040527740495
1303.4428209299622 7623.482608255739
1304.2731057707024 7909.80134997673
1305.1031871894502 7568.683450418485
1305.933065242798 7724.064791568642
1306.7627399873181 7708.219490732123
1307.5922114795467 8009.296194552992
1308.4214797760123 7956.835858439348
1309.2505449332057 7765.289365271671
1310.0794070076026 7748.2222205784
1310.9080660556538 7934.154694325985
1311.736522133786 7856.481873072871
1312.5647752983987 7860.409656114227
1313.3928256058734 7716.308737712723
1314.2206731125661 7855.288112739067
1315.048317874809 7838.2685450604495
1315.8757599489109 7857.545764789548
1316.7029993911547 7799.691049652992
1317.5300362578055 8007.342456570147
1318.356870605101 7762.246784729107
1319.183502489257 7836.424798058749
1320.0099319664623 8004.979676251806
1320.836159092889 7906.160992349962
1321.66218392468 7946.7789616138125
1322.4880065179532 7831.4921581475555
1323.3136269288134 7892.386827258144
1324.1390452133292 7984.5735551257285
1324.9642614275563 7974.287743961328
1325.7892756275214 7875.388306155639
1326.6140878692295 7867.418255182049
1327.4386982086617 8144.3399654856985
1328.2631067017755 7917.059101328836
1329.0873134045069 7884.195021695118
1329.911318372764 7798.696312202951
1330.735121662441 7823.1930071006045
1331.558723329399 7718.3349618863895
1332.3821234294774 7739.59201203388
1333.2053220185007 7663.804067544128
1334.0283191522612 7730.443556962139
1334.851114886529 7667.842307517867
1335.6737092770582 7626.836596109941
1336.4961023795695 7718.525854717937
1337.3182942497697 7564.233880859259
1338.1402849433325 7621.959995417446
1338.962074515921 7447.737004765583
1339.7836630231632 7416.699232209141
1340.6050505206676 7739.559577085206
1341.426237064028 7652.125407233367
1342.2472227088037 7658.080287966171
1343.0680075105338 7284.082002747159
1343.888591524741 7319.752894781819
1344.7089748069138 7514.929743850797
1345.5291574125276 7300.525955471479
1346.3491393970307 7196.226338102034
1347.168920815846 7296.729410871298
1347.9885017243778 7385.380631973948
1348.8078821780036 7190.818289416769
1349.6270622320844 7221.595982670068
1350.4460419419447 7257.013570266642
1351.2648213629054 7264.283663300439
1352.0834005502438 6985.901198501047
1352.90177955923 7061.893041776546
1353.7199584451064 7635.063609343597
1354.5379372630887 7175.419652376799
1355.355716068374 7128.308919084145
1356.1732949161305 7168.7494704707915
1356.9906738615155 7064.430049961319
1357.8078529596478 7204.4396058087195
1358.6248322656375 7164.984959735959
1359.441611834567 7006.965390227614
1360.2581917214866 7211.511597794337
1361.0745719814367 6954.507235947388
1361.890752669433 6966.668708770539
1362.7067338404577 6872.237454928685
1363.5225155494845 7194.379015428301
1364.3380978514506 7128.119931179348
1365.1534808012839 6942.561131118206
1365.9686644538815 6807.811232877533
1366.783648864117 7086.28223709319
1367.5984340868417 7037.446719526284
1368.413020176893 7010.592676593481
1369.2274071890715 6767.911680433863
1370.0415951781652 7033.518738343388
1370.8555841989346 6733.580201538342
1371.6693743061223 6832.973622622786
1372.48296555444 6745.974796076439
1373.2963579985844 6908.48194379839
1374.1095516932255 6822.282074435508
1374.9225466930166 6760.4975679942245
1375.7353430525782 6813.918602124102
1376.5479408265164 6750.0526166942
1377.36034006941 6870.951441814393
1378.1725408358216 6899.071320313359
1378.9845431802805 6681.301925631318
1379.796347157304 7014.312465459642
1380.6079528213813 7009.934935721489
1381.4193602269788 6721.12031508137
1382.230569428546 6717.06393763575
1383.0415804805016 7012.7692666421935
1383.852393437246 6957.335694613696
1384.6630083531563 6775.139745290837
1385.4734252825892 6782.845216401193
1386.2836442798798 6858.216561561305
1387.0936653993322 6886.2246778112
1387.9034886952395 6738.7144579565265
1388.713114221864 6791.706506173371
1389.5225420334482 6788.075233377625
1390.331772184214 6726.648410949415
1391.1408047283585 6672.073313587491
1391.9496397200564 6577.955752371434
1392.758277213461 6762.648323753153
1393.5667172627054 6801.083632963369
1394.3749599218918 6633.116964179443
1395.1830052451114 6429.239109022403
1395.9908532864265 6588.309251719559
1396.7985040998774 6769.050978356276
1397.6059577394808 6432.331050525506
1398.4132142592352 6550.42722399207
1399.2202737131156 6541.023499361966
1400.027136155073 6588.2146719404045
1400.8338016390353 6468.489520931691
1401.6402702189134 6431.066001368129
1402.446541948586 6558.088825900159
1403.2526168819204 6309.808530945544
1404.058495072757 6526.83254097709
1404.8641765749107 6391.731589983405
1405.6696614421799 6475.453163677935
1406.4749497283356 6638.911019907003
1407.280041487129 6311.072088674219
1408.084936772295 6202.9882615433
1408.8896356375335 6383.646425766394
1409.6941381365323 6457.312099043588
1410.498444322955 6347.146629366211
1411.3025542504402 6318.53447929404
1412.106467972606 6386.564467768569
1412.9101855430508 6372.520891698534
1413.7137070153458 6271.716529465181
1414.5170324430437 6237.298358750393
1415.320161879672 6367.947790929988
1416.1230953787435 6563.166216251628
1416.925832993742 6211.124606699602
1417.7283747781275 6149.229165676364
1418.5307207853439 6384.427193516469
1419.3328710688093 6306.8302017129145
1420.134825681922 6189.888834261679
1420.9365846780584 6176.066291013669
1421.7381481105713 6552.521968941126
1422.539516032788 6318.198613512892
1423.3406884980232 6218.2217676927485
1424.1416655595604 6228.424999842444
1424.942447270665 6348.480482615894
1425.7430336845828 6212.202668283647
1426.5434248545298 6258.082769072969
1427.3436208337116 6340.255330371438
1428.143621675301 6346.390439575741
1428.9434274324558 6447.134825977117
1429.7430381583108 6176.33367917346
1430.5424539059713 6352.366450215943
1431.3416747285337 6689.55797515646
1432.1407006790632 6442.516633756017
1432.9395318106053 6369.5078910626535
1433.7381681761835 6241.597734671463
1434.5366098288014 6392.021667907532
1435.3348568214424 6419.965640918028
1436.1329092070573 6359.549885141767
1436.9307670385879 6345.858217050354
1437.7284303689503 6516.212485097063
1438.5258992510335 6554.837690919494
1439.3231737377118 6480.790882099338
1440.1202538818306 6311.371722315498
1440.9171397362225 6509.898841663038
1441.7138313536925 6410.102640192947
1442.5103287870243 6402.004939168559
1443.3066320889775 6300.862684602596
1444.1027413122956 6612.5193401345705
1444.8986565096966 6451.014708123684
1445.694377733882 6419.443117002446
1446.4899050375207 6183.990926608228
1447.2852384732687 6330.440722357527
1448.0803780937622 6480.276188370248
1448.8753239516063 6170.830082513453
1449.6700760993954 6108.542878104313
1450.464634589689 6157.071949058071
1451.2589994750397 6432.525755126328
1452.0531708079689 6098.865592710745
1452.8471486409799 6104.467096005184
1453.6409330265524 6318.438309246086
1454.4345240171442 6212.549738955109
1455.2279216651987 6122.097401835179
1456.0211260231263 6080.73130465147
1456.8141371433194 6275.6215556247535
1457.6069550781594 6286.025248802022
1458.3995798799897 5988.030419921588
1459.1920116011424 6045.956074646663
1459.98425029393 6033.110234928356
1460.7762960106338 5999.830478332353
1461.5681488035225 5941.39145336361
1462.3598087248392 5908.9167971516545
1463.1512758268036 6108.093787422512
1463.942550161617 6016.039730459017
1464.7336317814625 5893.499439648497
1465.524520738496 5905.609667468156
1466.3152170848552 6024.032193634932
1467.1057208726506 6015.774662542315
1467.8960321539817 5821.450182268505
1468.6861509809169 5708.590211722789
1469.4760774055085 5796.721605507701
1470.265811479785 5987.726465399159
1471.055353255755 5790.685621091967
1471.844702785409 5800.856090566323
1472.6338601207044 5770.559203869825
1473.4228253135934 6276.764163605857
1474.2115984159936 5766.9159921378505
1475.0001794798063 5621.7181996909785
1475.7885685569145 5721.273577642327
1476.576765699172 5801.832889835952
1477.3647709584238 5621.229168231487
1478.1525843864802 5797.894995028476
1478.9402060351367 5893.809130336658
1479.7276359561693 5725.8183750281405
1480.514874201328 5510.088177864809
1481.3019208223468 5509.99283183291
1482.0887758709323 5577.109797580403
1482.8754393987747 5661.957236567303
1483.6619114575406 5422.262746304192
1484.4481920988783 5684.230852486058
1485.2342813744108 5796.2689571489145
1486.0201793357446 5671.060907960133
1486.8058860344572 5554.176921830159
1487.591401522117 5525.675172523022
1488.3767258502594 5560.75760535144
1489.1618590704056 5651.182311376485
1489.9468012340494 5467.196466828831
1490.7315523926754 5591.572244141554
1491.5161125977356 5733.2965386122205
1492.3004819006637 5566.628632030644
1493.084660352877 5467.556117386108
1493.8686480057622 5570.981472059798
1494.6524449106964 5910.691036526914
1495.4360511190262 5693.252958055351
1496.219466682087 5448.6910718061645
1497.0026916511779 5595.247321034383
1497.7857260775945 5563.18980795835
1498.5685700125996 5664.494388623073
1499.3512235074395 5533.076962278284
1500.133686613337 5372.198130719338
1500.9159593814966 5626.561780836415
1501.698041863101 5765.06196320559
1502.4799341093094 5433.526192437549
1503.2616361712662 5400.270919405101
1504.043148100087 5677.4466389996305
1504.8244699468742 5563.208305577888
1505.6056017626997 5448.51841656876
1506.3865435986281 5395.390127452459
1507.1672955056893 5578.887749840158
1507.9478575348967 5483.877531197509
1508.7282297372512 5540.410634880653
1509.5084121637192 5516.391844457035
1510.2884048652577 5514.419271672436
1511.0682078927948 5437.340098188257
1511.8478212972423 5329.2117244338
1512.6272451294917 5315.6340002951165
1513.4064794404076 5493.433349578578
1514.1855242808433 5351.882166467554
1514.9643797016215 5365.564813825467
1515.743045753552 5455.821563714518
1516.5215224874191 5486.023056333035
1517.2998099539836 5242.572777131425
1518.077908203999 5256.284509508535
1518.8558172881785 5353.9041996845035
1519.633537257234 5446.538713288273
1520.4110681618404 5335.170826820234
1521.1884100526604 5474.876194404304
1521.9655629803365 5413.197805861656
1522.7425269954856 5594.276171005022
1523.5193021487103 5577.831500114213
1524.2958884905856 5283.110439325634
1525.0722860716687 5255.152906299923
1525.848494942502 5308.057274769695
1526.624515153595 5338.836533074713
1527.4003467554485 5464.841795758183
1528.175989798534 5386.854888198315
1528.9514443333064 5418.231600704274
1529.726710410203 5609.662597316095
1530.5017880796331 5304.110600090999
1531.276677391992 5335.276452227095
1532.0513783976457 5550.828960881547
1532.825891146953 5375.780566665477
1533.6002156902414 5486.368961691906
1534.3743520778207 5639.669917135405
1535.1483003599806 5343.652435197891
1535.9220605869923 5372.238832996077
1536.6956328091019 5362.092919759078
1537.4690170765407 5432.16966743484
1538.242213439511 5422.074018567253
1539.015221948208 5438.890025517085
1539.78804265279 5205.595357488265
1540.560675603405 5154.018104475142
1541.3331208501804 5503.396657796589
1542.1053784432224 5470.789013845677
1542.8774484326168 5449.052293983097
1543.649330868422 5344.785835691051
1544.4210258006842 5387.521873103875
1545.1925332794308 5295.003095114016
1545.9638533546604 5355.065899798647
1546.7349860763552 5196.1906669647515
1547.5059314944829 5618.073220560973
1548.27668965898 5347.766613533213
1549.0472606197673 5464.504391402372
1549.817644426752 5275.291482637394
1550.5878411298072 5537.865811223166
1551.3578507787988 5495.902716951933
1552.1276734235635 5356.268842967527
1552.8973091139233 5480.88682648561
1553.6667578996767 5508.663426066269
1554.436019830604 5487.885154827789
1555.20509495646 5539.578571472937
1555.9739833269869 5297.817113872009
1556.7426849919011 5274.839769861354
1557.511200000903 5640.130293934444
1558.2795284036674 5420.21875761722
1559.0476702498509 5346.233064467302
1559.8156255890954 5530.918529245394
1560.5833944710157 5585.282134747055
1561.3509769452048 5402.552705414198
1562.1183730612447 5464.102992856075
1562.8855828686865 5518.610726403541
1563.6526064170703 5733.492720504302
1564.4194437559127 5607.465460076473
1565.1860949347047 5325.637012087753
1565.9525600029283 5582.406770363401
1566.7188390100328 5605.519239141353
1567.4849320054564 5274.405422123651
1568.250839038612 5438.912277393085
1569.0165601588997 5486.007509745932
1569.7820954156887 5541.816654988721
1570.5474448583373 5343.684040673512
1571.31260853618 5286.482219319961
1572.0775864985299 5311.481187789306
1572.8423787946813 5461.475090912806
1573.6069854739108 5354.913635228255
1574.371406585471 5455.563099830671
1575.1356421785986 5476.254508857264
1575.899692302506 5345.760665531031
1576.6635570063845 5305.464346540717
1577.4272363394157 5282.379242867228
1578.190730350747 5472.262611778586
1578.9540390895163 5431.549715432301
1579.7171626048384 5248.142305165287
1580.480100945806 5275.4259533021195
1581.2428541614918 5330.847414452092
1582.0054223009538 5392.184128138359
1582.767805413223 5340.626582659912
1583.5300035473156 5307.338505223009
1584.292016752228 5448.135750805241
1585.0538450769309 5349.360985220138
1585.8154885703807 5199.957367587518
1586.5769472815136 5188.590048831606
1587.3382212592405 5294.624052695633
1588.099310552463 5442.877155513024
1588.8602152100484 4956.815946431643
1589.6209352808564 5398.050929028781
1590.3814708137234 5363.503381937496
1591.14182185746 4963.300097227912
1591.9019884608679 5279.07595295583
1592.6619706727215 4953.930551606109
1593.4217685417734 5229.16782039616
1594.1813821167616 5422.94438151431
1594.9408114464022 5161.097788720201
1595.7000565793933 5260.614354673858
1596.459117564409 5317.335451084703
1597.2179944501113 5059.614615980388
1597.9766872851324 5173.367434360474
1598.735196118092 5036.03033654096
1599.4935209975883 5177.574130962004
1600.2516619721973 5283.180411188223
1601.0096190904787 5122.533829928754
1601.7673924009723 5093.8449399686815
1602.524981952196 5042.485326039061
1603.2823877926476 5026.121620515402
1604.0396099708087 5037.421342201601
1604.7966485351371 5047.790240490943
1605.5535035340745 5054.588446356409
1606.3101750160404 5279.29413587836
1607.0666630294363 5096.367617049529
1607.822967622642 4871.013761583102
1608.5790888440224 5181.1206715950775
1609.3350267419137 5337.574556709452
1610.0907813646445 4966.169850705719
1610.8463527605145 5172.906671601304
1611.601740977805 5151.309541976624
1612.356946064785 5019.057924182249
1613.1119680696902 4893.399247631421
1613.8668070407512 4875.571716552136
1614.6214630261748 5133.9393509702295
1615.375936074137 4941.297554191889
1616.1302262328118 4957.708538912933
1616.8843335503425 5035.706741943926
1617.638258074854 4939.097685462718
1618.391999854457 4922.194405171105
1619.1455589372363 5032.228875841609
1619.8989353712623 5035.121174704769
1620.65212920458 4734.820112501458
1621.4051404852235 4885.253891257648
1622.1579692611976 4959.89320510213
1622.9106155804966 4825.945255509821
1623.663079491087 4920.0465618976705
1624.4153610409248 4863.529504700823
1625.1674602779385 4809.231969049421
1625.9193772500403 4664.026746193324
1626.6711120051277 5104.674128791086
1627.4226645910676 4953.663117473748
1628.174035055721 4687.316860568308
1628.9252234469168 4812.697033113187
1629.676229812474 4714.803103189604
1630.4270542001905 5163.753860479001
1631.1776966578382 4809.443497829579
1631.9281572331747 4812.386855491315
1632.678435973945 4871.4042476507275
1633.4285329278573 4889.227546686007
1634.1784481426203 4787.371393159504
1634.9281816659113 4818.910229576415
1635.677733545388 5060.480201465101
1636.4271038286934 4781.731249975213
1637.176292563452 4917.196758859364
1637.9252997972635 4911.628907322016
1638.674125577716 5084.898039853685
1639.4227699523672 5202.008148719227
1640.171232968767 4680.814493785626
1640.9195146744423 4974.449460858833
1641.6676151168977 5008.991525628586
1642.4155343436178 5101.072312248179
1643.1632724020765 5086.219911378941
1643.9108293397167 4869.033955601377
1644.658205203974 5014.7933731294925
1645.4054000422566 5281.521747445933
1646.1524139019566 4908.722110033785
1646.8992468304423 4850.641511555423
1647.6458988750728 4863.52922829411
1648.3923700831765 5058.823898495108
1649.1386605020743 4905.706329556442
1649.8847701790564 5029.996681851159
1650.6306991614038 5019.340701852024
1651.3764474963682 5018.8204186869825
1652.1220152311944 4857.307036696528
1652.867402413096 4880.246733649653
1653.6126090892776 4853.473307229449
1654.3576353069184 5186.575431391382
1655.1024811131829 4979.536931895588
1655.8471465552066 5017.243348325939
1656.5916316801213 5035.768659593464
1657.3359365350298 4897.721007503448
1658.0800611670165 4900.070378055732
1658.824005623148 4802.787110271282
1659.5677699504722 4744.70312717285
1660.3113541960192 4817.007571491339
1661.054758406799 4814.4119872741285
1661.7979826297997 4658.459876335983
1662.5410269119966 4677.888946554875
1663.283891300338 5005.093464517498
1664.0265758417645 4636.4355994537855
1664.7690805831826 4723.662835166771
1665.5114055714948 4894.239621301895
1666.2535508535748 5008.199322554068
1666.9955164762814 4579.282858807058
1667.7373024864555 4616.53358039871
1668.478908930916 4831.596507086448
1669.220335856462 4450.792602765037
1669.9615833098778 4541.824000271087
1670.7026513379296 4369.762939353456
1671.44353998736 4588.863937726827
1672.1842493048916 4586.998705898343
1672.9247793372379 4364.549625977846
1673.6651301310812 4405.298802576757
1674.4053017330934 4389.410991987874
1675.1452941899242 4546.7149349433885
1675.885107548207 4172.33076476735
1676.6247418545518 4244.671633127765
1677.3641971555535 4370.057307807612
1678.1034734977893 4389.225499982628
1678.8425709278108 4293.214378189432
1679.5814894921605 4507.159381623501
1680.320229237359 4274.565991246791
1681.0587902098978 4254.427272071225
1681.7971724562685 4259.326425459551
1682.5353760229264 4112.826083223024
1683.2734009563173 4311.461869569024
1684.0112473028657 4200.144660612267
1684.7489151089794 4211.488417531937
1685.4864044210462 4344.313679102155
1686.2237152854377 4011.280165526851
1686.960847748498 4255.2488023227215
1687.6978018565642 4084.978614430893
1688.434577655944 3939.2561944238055
1689.1711751929379 4090.0608701431943
1689.9075945138156 4139.575486255047
1690.6438356648396 4049.6495252890954
1691.3798986922448 3811.089977643662
1692.1157836422499 3997.0358003175
1692.851490561059 4010.3670054891854
1693.587019494853 4080.9893536112586
1694.3223704897991 3844.3058958670017
1695.0575435920364 3845.7463716554107
1695.792538847696 4117.17614796976
1696.527356302886 3924.107728794421
1697.2619960036936 3740.308851990422
1697.9964579961907 3912.5201002264184
1698.730742326432 3518.685859638783
1699.4648490404488 3538.8563115402076
1700.1987781842563 3783.9852133620925
1700.9325298038548 3959.8505781178815
1701.6661039452174 3932.87254125683
1702.3995006543082 3813.5347850198823
1703.1327199770658 3899.0542299945437
1703.865761959416 3713.746156629769
1704.598626647261 3999.7121903674283
1705.3313140864866 3578.3605010689157
1706.0638243229587 3848.823699672321
1706.7961574025303 3856.6326548669167
1707.528313371029 3752.995553030065
1708.260292274268 3487.304144579443
1708.9920941580403 3734.612389669009
1709.7237190681226 3799.334528766267
1710.4551670502697 3719.5725080343122
1711.18643815022 3504.025158845445
1711.9175324136959 3878.651169085031
1712.6484498863938 3709.6680083060246
1713.379190614005 3536.2268946891027
1714.109754642188 3704.264955118313
1714.8401420165883 3562.318917531879
1715.570352782839 3464.9920250201008
1716.3003869865497 3755.362959401207
1717.0302446733076 3503.3108411915578
1717.7599258886876 3499.7697590179278
1718.4894306782444 3778.96317438721
1719.2187590875183 3545.476442904381
1719.9479111620203 3612.0313687715293
1720.6768869472544 3558.2391237329066
1721.4056864887025 3835.338669983579
1722.1343098318284 3673.0362701040176
1722.8627570220742 3514.968060476036
1723.591028104871 3521.7461538865973
1724.3191231256242 3408.2111881320807
1725.0470421297232 3512.3551853997715
1725.7747851625427 3599.093723348993
1726.5023522694337 3625.4207437692835
1727.2297434957363 3585.97944992365
1727.9569588867635 3427.9906771283395
1728.6839984878152 3496.8105871889616
1729.4108623441734 3185.596646236302
1730.1375505011038 3574.182187270817
1730.8640630038426 3387.2974241208817
1731.5903998976264 3254.2761484236116
1732.316561227657 3524.1584223902328
1733.0425470391274 3329.6194764255997
1733.7683573772065 3470.19550016435
1734.4939922870508 3366.5029592245673
1735.2194518137949 3494.4538847616045
1735.9447360025606 3553.975026946175
1736.669844898439 3271.8596794769637
1737.3947785465189 3284.9723570961023
1738.1195369918605 3158.824815409361
1738.8441202795093 3355.5112245431396
1739.5685284544943 3391.6127539279164
1740.292761561821 3395.4064241933893
1741.0168196464838 3539.194700337346
1741.7407027534518 3321.3809765665637
1742.464410927687 3459.1113964866004
1743.187944214118 3333.169321306338
1743.9113026576688 3217.2195142411233
1744.634486303241 3467.8274926375548
1745.3574951957125 3209.989306887489
1746.0803293799509 3352.9313036893864
1746.8029889008048 3272.89372374485
1747.5254738031017 3505.1529414982315
1748.2477841316504 3171.3197460742963
1748.969919931249 3365.3731346968234
1749.6918812466665 3243.439322902769
1750.4136681226646 3444.923822350429
1751.1352806039777 3299.629445958645
1751.856718735331 3230.9456648874457
1752.5779825614281 3232.1400125418613
1753.2990721269507 3319.7644919781137
1754.0199874765676 3602.247487535557
1754.7407286549314 3090.349356494723
1755.4612957066693 3358.145437465878
1756.1816886763954 3230.238475300983
1756.9019076087097 3368.2684830189855
1757.6219525481865 3370.7984784910795
1758.3418235393856 3379.9794704748174
1759.061520626854 3469.5299071632894
1759.7810438551096 3491.555236404403
1760.5003932686614 3210.928630069302
1761.2195689119999 3458.634344363561
1761.938570829594 3110.3855957428873
1762.657399065898 3350.748197824699
1763.376053665348 3297.829981107472
1764.0945346723602 3198.7262017103462
1764.812842131334 3425.4105301706886
1765.5309760866512 3240.9079891136203
1766.2489365826787 3147.6900422306203
1766.9667236637597 3282.4195578453982
1767.684337374223 3081.184742573521
1768.401777758383 3138.921585534067
1769.1190448605284 3128.0595647122273
1769.836138724937 3167.9694357521075
1770.5530593958665 3403.130948483186
1771.2698069175603 3325.217468930845
1771.9863813342326 3240.708555201577
1772.702782690094 3244.9747144251833
1773.4190110293293 3266.5591784241387
1774.1350663961111 3401.9054303284165
1774.8509488345844 3076.8059314130433
1775.5666583888924 3199.7069286262717
1776.2821951031437 3424.901902584538
1776.9975590214362 3179.368390239183
1777.7127501878585 3415.2303095158577
1778.4277686464684 3194.326471527182
1779.1426144413108 3362.7445815236474
1779.8572876164162 3297.4495153122953
1780.571788215797 3174.4430949312227
1781.2861162834415 3294.8400014249432
1782.0002718633277 3179.071233782248
1782.7142549994132 3121.030972274131
1783.4280657356376 3197.3585402132917
1784.141704115922 3102.616110800852
1784.855170184177 3135.857204849243
1785.5684639842839 3240.8518026805455
1786.2815855601148 3069.3488958213684
1786.9945349555237 3273.8148228847617
1787.707312214343 3034.1632885535846
1788.4199173803918 3308.931668052241
1789.132350497468 3159.438094756936
1789.8446116093583 3074.085540572757
1790.556700759822 3197.6657482269966
1791.2686179926077 2998.609712217611
1791.9803633514493 3150.257879906586
1792.6919368800554 3045.3199696752595
1793.4033386221236 3238.0799837077943
1794.1145686213295 3267.7195072683835
1794.8256269213307 3271.182297561065
1795.536513565774 3218.1019571679763
1796.247228598284 2859.9030778419983
1796.9577720624693 3069.698548825992
1797.6681440019165 3081.062994622573
1798.3783444602013 3107.982095349227
1799.0883734808776 3282.1725752075145
1799.7982311074884 3201.9114948992706
1800.5079173835475 2934.128326949979
1801.2174323525633 3268.9888910415916
1801.9267760580187 3103.7000935634887
1802.635948543386 3271.9006729279363
1803.3449498521113 2949.0110809782564
1804.0537800276325 3164.321238095197
1804.7624391133668 3060.294015845498
1805.47092715271 2882.43529384605
1806.1792441890484 2977.1641316476935
1806.8873902657433 3198.194860323179
1807.5953654261448 2914.040134202011
1808.3031697135812 3006.6894470679713
1809.0108031713662 3012.1700250997656
1809.71826584279 3091.633704467463
1810.425557771141 3032.897649037711
1811.1326789996747 3512.867345658896
1811.839629571632 3128.9151015431817
1812.5464095302468 2932.8455613171895
1813.2530189187182 3161.9236494830047
1813.959457780249 2954.6203146875478
1814.6657261580076 3270.613377791187
1815.371824095153 3043.11520059167
1816.0777516348262 3109.6379149577488
1816.78350882015 2767.4822590450904
1817.4890956942272 2916.940312964339
1818.1945123001533 2919.348930752164
1818.8997586809928 3003.879542887176
1819.6048348798067 2920.1038555133546
1820.3097409396287 3072.5860896615036
1821.0144769034796 3335.831748954742
1821.7190428143622 3105.7518487622287
1822.423438715261 3187.5737260053165
1823.1276646491478 2965.287025263453
1823.8317206589727 3074.5091939745225
1824.5356067876692 3081.169683891281
1825.2393230781581 3054.982281179917
1825.942869573335 2927.8715141626835
1826.646246316086 2951.2014800313655
1827.3494533492758 2928.3130422317
1828.052490715756 3026.58958233688
1828.7553584583547 2967.653475962915
1829.458056619891 3013.9718036387594
1830.1605852431585 2903.839102530005
1830.8629443709433 2742.379411030909
1831.5651340460063 2874.136839803045
1832.2671543110919 2990.9995161313923
1832.9690052089318 2959.7208243064065
1833.6706867822395 2908.3751135002676
1834.3721990737104 3064.9956081895257
1835.0735421260233 3057.4355992839855
1835.774715981841 3173.076969490045
1836.4757206838058 3195.6473822197227
1837.1765562745459 2739.7670119856766
1837.8772227966747 2717.519012217585
1838.5777202927839 2949.787596326996
1839.2780488054523 2853.3957994639763
1839.9782083772352 2841.6865189648006
1840.6781990506806 3106.2868500809604
1841.378020868313 2950.383872935953
1842.0776738726418 2884.4051199225614
1842.777158106157 2782.5891821527084
1843.4764736113375 2844.410140716281
1844.1756204306403 3077.2930819764615
1844.8745986065078 3039.7652829747503
1845.5734081813607 2797.419430182533
1846.2720491976124 2841.5758943240307
1846.970521697649 2845.979594431704
1847.6688257238511 2891.360471966672
1848.3669613185684 2916.5236419198263
1849.0649285241452 2737.0496187077715
1849.7627273829057 2845.2068956885114
1850.460357937156 2982.844985186671
1851.1578202291857 2616.9191310217884
1851.8551143012664 2929.47573960086
1852.5522401956569 3000.5784543517516
1853.2491979545957 3105.0286827664067
1853.9459876203055 2670.096675464315
1854.6426092349902 2761.765551067239
1855.3390628408451 2763.3742497367944
1856.0353484800362 3096.545131042748
1856.7314661947203 2932.219353518964
1857.4274160270397 2651.0874332754174
1858.123198019115 2830.459927846818
1858.8188122130487 2781.643306777317
1859.5142586509319 2912.0137898012927
1860.209537374838 2935.9526399223796
1860.9046484268183 2856.6684818707304
1861.599591848917 3058.4928483571684
1862.294367683151 2818.3900154250837
1862.988975971528 2878.6884087563367
1863.6834167560355 2955.5692287428456
1864.3776900786452 2968.9802724955703
1865.0717959813119 2770.697021937927
1865.7657345059724 2814.5438007411044
1866.4595056945564 2879.464449166731
1867.1531095889586 2880.8396212388297
1867.846546231076 2850.858086785896
1868.5398156627743 2999.342763260146
1869.2329179259123 2695.534613572678
1869.9258530623283 2970.3415381548284
1870.618621113843 2815.875632877092
1871.3112221222636 2751.462085649525
1872.0036561293764 2765.0275134594194
1872.695923176956 2927.9726998025294
1873.3880233067594 2964.469658113917
1874.0799565605212 2755.4358819334234
1874.7717229799673 2799.8415632255064
1875.4633226068036 3097.403089651606
1876.1547554827175 2785.786734241605
1876.8460216493859 2768.62824133067
1877.5371211484617 2878.708710153418
1878.2280540215852 2961.525141403354
1878.9188203103804 2647.850942447238
1879.6094200564548 2816.475993118532
1880.299853301396 2693.6347915372103
1880.9901200867826 2820.780077025801
1881.6802204541673 2783.818486016695
1882.3701544450942 2845.3894641954166
1883.059922101087 2758.506870452948
1883.7495234636517 3062.9825619146636
1884.4389585742792 2831.7809391066066
1885.1282274744517 2729.4292651964197
1885.8173302056166 2843.5923429932564
1886.506266809225 2679.536246261452
1887.195037326701 2633.1448890080956
1887.8836417994517 2836.9050100144905
1888.5720802688702 3118.8076705186068
1889.260352776333 2892.072121928434
1889.9484593632042 2837.8854678251864
1890.63640007082 2741.556191475705
1891.3241749405151 2728.5335400427007
1892.0117840135954 2867.229914022546
1892.6992273313572 2770.798857657684
1893.3865049350788 2737.127240866555
1894.0736168660223 2966.103318920733
1894.7605631654333 2744.1573901710585
1895.4473438745408 2589.3392216647003
1896.133959034556 3022.1521105804704
1896.820408686679 2753.330962838817
1897.506692872088 3045.7022095223847
1898.192811631945 2848.6959304272905
1898.8787650073991 2704.825788924849
1899.5645530395832 3007.7047495816296
1900.2501757696118 3042.3128949610186
1900.9356332385796 2673.1956960719644
1901.620925487574 2964.583468198941
1902.3060525576602 2819.3563792792
1902.9910144898859 2870.2366799349124
1903.6758113252872 2615.9021263906798
1904.3604431048789 2774.3549038552824
1905.0449098696663 2807.4793192668576
1905.7292116606295 2784.1408120214455
1906.4133485187394 2708.6865429939025
1907.0973204849488 2334.994536646434
1907.7811276001976 2634.003616984036
1908.4647699053967 2659.635472424093
1909.1482474414588 2482.548700553577
1909.8315602492694 2539.976805452346
1910.5147083696957 2864.7114800435147
1911.1976918436012 2753.0974146414046
1911.880510711815 2745.146390736466
1912.5631650151681 2794.162888044871
1913.2456547944657 2771.2931864704537
1913.927980090495 2627.5429623435057
1914.6101409440362 2544.500615766722
1915.2921373958416 2723.6450518560346
1915.9739694866603 2655.4086133022074
1916.655637257214 3087.483123101866
1917.3371407482136 2658.4970876756483
1918.0184800003572 2934.6784710382417
1918.6996550543154 2672.624420629608
1919.3806659507554 2781.126803872914
1920.0615127303208 2895.195371839604
1920.7421954336423 2959.10524427402
1921.4227141013343 2812.966830020471
1922.103068773993 2660.116545416661
1922.783259492202 2893.180983150765
1923.4632862965227 2754.3026191973595
1924.1431492275078 2588.3823462519217
1924.8228483256917 2520.2379595225857
1925.5023836315922 2831.711316590544
1926.1817551857057 2395.2020824611673
1926.8609630285227 2801.6157258573307
1927.5400072005123 2780.628451650383
1928.218887742125 2487.4431535715803
1928.8976046938005 2452.3862104735267
1929.5761580959588 2814.985646427717
1930.2545479890086 2786.1824381358124
1930.9327744133352 2645.6202780250583
1931.6108374093164 2830.339708040843
1932.2887370173066 2875.1413448180556
1932.9664732776473 2347.525328403873
1933.6440462306673 2755.213474242467
1934.3214559166754 2488.8386805974415
1934.9987023759659 2825.475552981354
1935.675785648813 2842.6250862587713
1936.3527057754836 2384.7808153230562
1937.029462796223 2941.5942774512846
1937.70605675126 2609.3518386630476
1938.3824876808085 2583.695463642135
1939.058755625072 2387.5776202341963
1939.7348606242267 2673.46397357646
1940.4108027184448 2630.7309112988182
1941.0865819478713 2837.302452239487
1941.7621983526478 2483.7190875453443
1942.4376519728921 2543.0572403116266
1943.1129428487038 2692.61721708568
1943.7880710201734 2691.7443632783825
1944.4630365273733 2751.3311035379425
1945.1378394103576 2506.9801951063237
1945.8124797091714 2488.807774650943
1946.4869574638324 2470.51223530652
1947.161272714353 2633.000113829051
1947.8354255007234 2788.000912565977
1948.5094158629272 2644.580608893577
1949.1832438409183 2798.8355750039136
1949.8569094746435 2749.057721633134
1950.530412804037 2714.6889114666283
1951.2037538690092 2701.590126654493
1951.8769327094578 2556.397667172516
1952.5499493652678 2650.8885180762936
1953.222803876306 2671.519596462234
1953.895496282421 2627.8289216108533
1954.5680266234522 2575.1697487057463
1955.2403949392155 2582.7483400587007
1955.9126012695142 2383.5199761454223
1956.5846456541403 2725.5850239685833
1957.2565281328643 2470.548531235855
1957.9282487454457 2630.51531600789
1958.5998075316202 2857.3060126423666
1959.27120453112 2625.6152456453647
1959.9424397836501 2497.454043072207
1960.613513328908 2693.538133886682
1961.2844252065697 2783.9798277467876
1961.9551754563017 2702.693832537772
1962.6257641177453 2484.619789797274
1963.29619123054 2581.6750298080588
1963.966456834296 2527.2400652890765
1964.6365609686181 2434.2550466305893
1965.306503673086 2604.021371626363
1965.976284987275 2529.5418448497785
1966.645904950734 2630.39222765282
1967.315363603002 2305.1684058505007
1967.9846609836077 2671.235626320767
1968.6537971320486 2609.068194814085
1969.3227720878222 2606.9756375765014
1969.9915858904042 2414.2015373021854
1970.660238579252 2730.2013414376133
1971.3287301938108 2622.553748246039
1971.997060773514 2395.400006793465
1972.665230357772 2579.93791972373
1973.3332389859843 2341.184268737096
1974.0010866975335 2532.3994437089027
1974.6687735317864 2575.2706602505828
1975.3362995280932 2663.884194421923
1976.003664725793 2710.7988307851397
1976.6708691642052 2262.398679710228
1977.3379128826364 2405.2297468213665
1978.004795920373 2636.7008606669137
1978.6715183166925 2897.230163590606
1979.3380801108524 2329.707695992496
1980.0044813420973 2558.5074370044144
1980.6707220496555 2328.637679261826
1981.3368022727373 2461.1841883306715
1982.0027220505417 2852.036381461795
1982.66848142225 2308.3201473076742
1983.3340804270283 2182.3491794559873
1983.999519104027 2532.380976278418
1984.6647974923835 2623.2519250160462
1985.329915631215 2774.546409602105
1985.99487355963 2499.7427718094946
1986.6596713167146 2669.1296207220757
1987.3243089415428 2629.195482958428
1987.9887864731754 2789.7418911865398
1988.6531039506553 2289.624355366257
1989.3172614130071 2829.8411794851
1989.9812588992481 2555.3613396746528
1990.645096448372 2390.711751887053
1991.3087740993633 2573.1161521476656
1991.9722918911848 2490.3522729804076
1992.635649862792 2662.089054349436
1993.2988480531185 2604.7208138136425
1993.9618865010852 2845.138213872424
1994.6247652455968 2378.0115734870947
1995.287484325545 2428.469883511695
1995.9500437798033 2646.3953478410413
1996.6124436472292 2334.045955666293
1997.2746839666706 2644.5230785657236
1997.936764776954 2527.9930685082
1998.598686116895 2536.1563939548587
1999.2604480252903 2689.947753521258
1999.9220505409212 2559.5091066885834
2000.5834937025593 2279.5575701795815
2001.2447775489582 2470.224917618967
2001.9059021188514 2677.5523781227853
2002.5668674509616 2488.0712977353496
2003.2276735839987 2500.309589908438
2003.8883205566508 2706.5315591147905
2004.5488084075987 2389.0888771103664
2005.2091371755014 2477.580937259766
2005.8693068990033 2453.5207283483264
2006.5293176167397 2635.685170283704
2007.1891693673224 2397.584881051219
2007.848862189354 2214.2398106447404
2008.5083961214223 2461.7380848240973
2009.1677712020955 2434.4126072085155
2009.8269874699254 2274.9662526172037
2010.4860449634598 2293.513265756031
2011.1449437212177 2312.2440988076814
2011.8036837817108 2596.649314312536
2012.4622651834325 2870.483473260724
2013.1206879648653 2668.242810558112
2013.7789521644736 2912.7345798555352
2014.4370578207036 2214.753997989007
2015.0950049719922 2529.8462056090725
2015.7527936567585 2580.03535673406
2016.4104239134067 2629.230333493404
2017.067895780323 2890.029173289998
2017.725209295886 2909.4420869394476
2018.3823644984514 2928.8382434825107
2019.0393614263648 2490.9705387246822
2019.6962001179545 2303.953588477124
2020.3528806115355 2640.421754825432
2021.0094029454067 2265.406616222346
2021.6657671578487 2530.1742689664825
2022.321973287133 2464.235100329855
2022.9780213715148 2540.6628365031743
2023.6339114492293 2355.735521863699
2024.2896435585026 2366.979884240784
2024.9452177375442 2432.187062548491
2025.600634024544 2671.260231115857
2026.2558924576842 2501.978739817257
2026.9109930751292 2504.125048817025
2027.565935915025 2401.1769299720754
2028.2207210155066 2736.3176106123055
2028.8753484146964 2731.1614557560965
2029.529818150695 2261.9801487674113
2030.1841302615903 2572.0680658466445
2030.8382847854573 2377.1444030850153
2031.4922817603601 2273.284550037678
2032.1461212243357 2530.319564678264
2032.7998032154192 2214.161711670236
2033.4533277716218 2446.97982981186
2034.1066949309443 2399.809000155045
2034.7599047313688 2361.1383305012955
2035.4129572108704 2614.9947659515783
2036.0658524074006 2589.433668204523
2036.7185903589016 2546.2259589833984
2037.3711711032956 2540.5709436522093
2038.023594678496 2409.2396139632924
2038.675861122394 2222.645036371369
2039.3279704728757 2180.8201155379625
2039.9799227678031 2139.10049522894
2040.6317180450278 2297.0483735325633
2041.2833563423865 2401.054379346113
2041.9348376977014 2451.934187434394
2042.5861621487784 2495.0468869632728
2043.2373297334088 2441.120005646858
2043.8883404893695 2489.5101366273534
2044.5391944544208 2634.9278453591014
2045.1898916663158 2627.2031417481303
2045.8404321627804 2557.6823606567873
2046.4908159815368 2338.9285101944743
2047.1410431602853 2270.9271091863193
2047.7911137367173 2148.8916003754957
2048.441027748504 2635.546011302783
2049.090785233302 2393.3114010888085
2049.7403862287592 2360.70791042115
2050.389830772503 2278.124416766028
2051.0391189021466 2195.5274941373577
2051.688250655294 2494.5867308496645
2052.337226069527 2218.2642732882214
2052.986045182417 2538.3013622757103
2053.634708031521 2624.7177732229875
2054.283214654375 2711.4487840179654
2054.931565088511 2269.2558654363647
2055.579759371436 2458.700420739544
2056.2277975406523 2427.951265019496
2056.8756796336384 2199.565212540237
2057.5234056878617 2501.946813973806
2058.1709757407752 2273.8278047527824
2058.8183898298194 2488.642424595323
2059.465647992416 2594.5368941195775
2060.1127502659747 2659.4803773587455
2060.759696687888 2648.424431439601
2061.4064872955405 2637.3913569337847
2062.053122126292 2602.656740571115
2062.699601217497 2086.238625915717
2063.345924606485 2390.7354226643224
2063.992092330587 2451.662720003949
2064.638104427102 2337.97541944712
2065.283960933324 2537.5999261055304
2065.92966188653 2606.8104979230043
2066.5752073239855 2512.4807905554335
2067.2205972829397 2353.29154709753
2067.86583180062 2386.174761419771
2068.5109109142522 2342.8850668127884
2069.15583466104 2356.494847743198
2069.8006030781708 2370.1196937001637
2070.445216202821 2564.903910751485
2071.089674072153 2746.1658394852398
2071.7339767233116 2486.263287684688
2072.3781241934303 2442.916616311169
2073.0221165196253 2529.7074287514342
2073.6659537390024 2383.6930303558893
2074.3096358886505 2536.9992339669943
2074.953163005637 2251.5257204012605
2075.596535127028 2256.3613348768845
2076.2397522898664 2203.999804023924
2076.882814531182 2468.8991319295374
2077.5257218879924 2590.846625996995
2078.1684743973 2266.737191307619
2078.8110720960885 2053.516478503727
2079.453515021336 2641.589901777392
2080.095803209997 2451.2016536337874
2080.7379366990135 2396.1848706962605
2081.37991552532 2288.134719070733
2082.0217397258275 2620.7258818678215
2082.6634093374414 2107.371127140455
2083.3049243970418 2522.138492453098
2083.9462849415067 2288.534802728404
2084.587491007689 2357.050305018479
2085.2285426324324 2526.291857953392
2085.869439852564 2446.3680618580593
2086.510182704902 2032.1594007067238
2087.1507712262483 2407.804792444821
2087.791205453381 2233.7736002994743
2088.4314854230743 2539.409695285857
2089.0716111720867 2274.598495986823
2089.7115827371617 2087.1828077644786
2090.351400155023 2126.760833337014
2090.991063462385 2166.517273379909
2091.6305726959527 2172.1183980406086
2092.2699278924047 2251.8627368222838
2092.9091290884153 2331.860616126477
2093.548176320641 2275.982282521739
2094.187069625721 2350.989292688072
2094.8258090402887 2211.8999345316756
2095.464394600951 2285.8310418876454
2096.102826344313 2456.1487897248107
2096.741104306955 2629.209110652533
2097.379228525453 2085.292089586358
2098.017199036358 2192.393641548526
2098.6550158762147 2725.190802005673
2099.2926790815527 2350.600162106185
2099.9301886888825 2468.8902151181965
2100.5675447347076 2449.0543758983304
2101.2047472555114 2715.6141216229626
2101.841796287761 2275.329286819561
2102.47869186792 2472.3004423424904
2103.1154340324265 2417.9725526620286
2103.752022817709 2155.5059849276963
2104.388458260184 2430.4047477071235
2105.024740396251 2375.9140226119675
2105.660869262292 2261.6949882472754
2106.296844894685 2559.2278637510326
2106.93266732978 2396.0410684910717
2107.5683366039284 2014.6841211694882
2108.2038527534532 2243.6410506508846
2108.8392158146726 2549.99967211998
2109.4744258238843 2399.438014167587
2110.1094828173755 2343.5595718803647
2110.744386831422 2692.289462684148
2111.3791379022787 2388.2756221281184
2112.01373606619 2605.2015987916834
2112.648181359389 2295.4436060597377
2113.28247381809 2398.939176542241
2113.916613478492 2313.477615047398
2114.550600376786 2516.587634830026
2115.1844345491445 2449.0304637553318
2115.818116031729 2109.8655997989836
2116.451644860679 2320.3370561393576
2117.085021072133 2154.407033680587
2117.718244702204 2105.1910874015607
2118.3513157869984 2224.3259406393604
2118.984234362604 2080.7493387449294
2119.617000465092 2301.4218244701387
2120.249614130529 2540.7585945865276
2120.8820753949585 2400.6287461744664
2121.5143842944162 2228.4679722137253
2122.14654086492 2121.2140593049653
2122.7785451424734 2548.4220488932656
2123.4103971630702 1997.7431932457062
2124.042096962681 2444.744562754312
2124.6736445772767 2376.426200644842
2125.305040042802 2303.1045994246956
2125.936283395191 2288.928067266589
2126.567374670365 2210.21453687379
2127.198313904233 2147.2146802114016
2127.8291011326855 2177.507856950476
2128.4597363916037 2207.6056493512865
2129.0902197168507 2409.7045326570997
2129.720551144279 1967.3924771385362
2130.3507307097225 2450.650174930708
2130.980758449008 2680.228414584698
2131.6106343979427 2099.6143543486587
2132.2403585923203 2528.577297137954
2132.8699310679276 2552.307529658326
2133.499351860526 2392.477738374424
2134.1286210058715 2513.5601942190333
2134.7577385397053 2116.1621916569366
2135.3867044977487 2433.726966910304
2136.0155189157176 2406.4604965892468
2136.644181829308 2532.0779658622973
2137.2726932742025 2164.314270520259
2137.901053286074 2573.6328687294667
2138.5292619005777 2300.9331638942986
2139.1573191533535 2250.190090534893
2139.7852250800315 2570.3372386474575
2140.4129797162295 2386.440790585588
2141.0405830975433 2064.9305177718334
2141.6680352595613 2101.5705625498094
2142.2953362378576 2138.3047223537433
2142.9224860679915 2126.4902377289886
2143.549484785508 2123.5123386166574
2144.1763324259373 2300.263919590142
2144.803029024799 2144.058779582795
2145.429574617594 2303.233280607008
2146.0559692398165 2467.602081246221
2146.682212926942 2099.82669702429
2147.308305714432 2284.256693054315
2147.9342476377333 2527.2896187704623
2148.5600387322847 2504.5879599934387
2149.185679033506 2597.7811457150738
2149.8111685768017 2221.0893596370565
2150.4365073975678 2160.290303498988
2151.061695531187 2240.0108175953274
2151.686733013021 2377.5772076366293
2152.311619878423 2319.9229908218194
2152.9363561627342 2465.71611427682
2153.560941901278 2046.620573641426
2154.1853771293663 2438.403662731268
2154.809661882293 2468.593207965078
2155.433796195348 2422.714437881193
2156.0577801037944 2424.025571134425
2156.681613642895 2641.092552738103
2157.3052968478896 2324.4044355578685
2157.928829754006 2260.9240413498264
2158.552212396462 2335.1980794104657
2159.1754448104566 2288.650515788163
2159.7985270311783 2086.3670278930235
2160.4214590938027 1918.860221316115
2161.0442410334927 2112.6096571843573
2161.6668728853874 2119.5795554854194
2162.289354684628 2147.3396722641505
2162.911686466332 2250.221135690295
2163.533868265602 2428.358515575951
2164.1559001175337 2766.1407562466497
2164.7777820572046 2464.867211000409
2165.399514119681 2253.899605903678
2166.021096340013 2029.585754498182
2166.6425287532384 2055.2547808614995
2167.263811394385 2081.084534110543
2167.8849442984574 2303.1665923083924
2168.505927500455 2016.0952173571332
2169.126761035366 2349.9923915036275
2169.7474449381552 2100.6726587560074
2170.367979243778 1983.0495551607844
2170.9883639871823 2368.4547434351257
2171.608599203293 2142.058536768525
2172.2286849270276 2631.228822146696
2172.8486211932886 2765.00835436299
2173.4684080369625 2101.866437915
2174.0880454929265 2051.74488934655
2174.7075335960417 2129.592265982339
2175.3268723811543 2523.7325208384923
2175.9460618831 2226.31602951291
2176.565102136701 2108.5206330915807
2177.1839931767627 2111.9518860064027
2177.802735038078 2115.4225402911316
2178.421327755432 2188.7872371408976
2179.0397713635866 2125.007366687132
2179.658065897298 1971.5614109860257
2180.276211391305 1855.0504225351553
2180.8942078803357 2059.2557818351384
2181.5120553991 2253.130763771299
2182.129753982299 2151.0499777362597
2182.7473036646206 2267.562098125142
2183.3647044807367 2153.2384652748915
2183.9819564653044 2115.425347738961
2184.599059652968 2464.233498984383
2185.216014078367 2455.138024920862
2185.832819776113 2449.3406188204663
2186.4494767808137 2443.3893064962367
2187.065985127063 2298.4807609686322
2187.682344849436 2195.0521028028425
2188.298555982501 2437.0220829291657
2188.9146185608097 2219.1819869739643
2189.530532618901 2227.7578367066276
2190.1462981912937 2165.6697344944528
2190.761915312507 2434.14360956504
2191.377384017036 2230.682305771571
2191.9927043393654 2100.5540388875493
2192.6078763139667 2335.2050846625507
2193.2228999753006 1949.7011061307828
2193.837775357808 2131.4522155703016
2194.452502495922 1977.6285455813966
2195.0670814240602 2028.9550445402008
2195.6815121766285 2312.1002346771534
2196.2957947880186 2586.198467044734
2196.9099292926057 2092.8109051216134
2197.523915724758 2360.4122347681014
2198.137754118825 2204.581572393684
2198.7514445091456 2448.2246493889243
2199.3649869300443 2027.3879313922025
2199.9783814158327 2411.1138076312154
2200.5916280008096 2690.7149630313347
2201.2047267192593 2392.140786577713
2201.8176776054515 2356.3288940071357
2202.430480693649 2035.8101899363987
2203.0431360180955 2249.7621395738606
2203.6556436130195 2347.387764256634
2204.268003512645 2067.575717505279
2204.8802157511727 2334.3029593513793
2205.492280362796 2422.9506604189037
2206.1041973816937 2090.5071082082236
2206.715966842032 2319.3134313814385
2207.3275887779655 2124.6322058436003
2207.93906322363 2085.2650402644485
2208.550390213153 2463.5571971100057
2209.1615697806465 2054.61630829919
2209.7726019602105 1873.0524779504365
2210.3834867859277 1926.5660551285393
2210.9942242918787 2272.1664910250674
2211.6048145121167 2013.2856264137095
2212.2152574806914 2904.4589707862656
2212.825553231638 2099.814433568296
2213.435701798975 2871.7715541253283
2214.045703216707 2117.684847232176
2214.655557518832 2017.2673455504842
2215.2652647393297 1916.9946017315401
2215.874824912169 1835.2549691196484
2216.4842380713 2328.9819164959163
2217.09350425067 2242.238686404794
2217.7026234842033 2089.829584328648
2218.311595805819 2370.561431370718
2218.9204212494133 2077.8500288838577
2219.52909984888 2531.946514840965
2220.137631638092 2508.170730746168
2220.7460166509154 2484.1867143726517
2221.354254921198 2330.2749340377286
2221.9623464827764 2134.392416026977
2222.5702913694713 2155.0454468627263
2223.178089615096 2297.9602115015905
2223.7857412534486 2104.3706795452104
2224.39324631831 1926.2531876011362
2225.000604843457 1893.386739216771
2225.607816862641 2495.328589583528
2226.214882409611 2622.9767417677344
2226.8218015180973 2254.9118203761805
2227.4285742218217 2123.341017483314
2228.0352005544864 2503.745132619707
2228.6416805497847 2189.480997444952
2229.248014241399 2096.4690970345764
2229.8542016629945 1856.9725845317505
2230.460242848223 2461.2728718027674
2231.0661378307304 2593.2877618656103
2231.671886644139 2143.3109077821673
2232.277489322065 1896.2186951802753
2232.8829458981127 1834.9203483672413
2233.48825640587 2412.166528961628
2234.0934208789095 2613.1658202413482
2234.6984393507955 2502.7568329533437
2235.3033118550793 2473.8892035470503
2235.9080384252975 2364.835948897692
2236.5126190949723 1940.3841180898628
2237.1170538976166 1896.643639296321
2237.721342866729 1648.1587407070256
2238.32548603579 2183.6437271683058
2238.9294834382763 2258.6362539720576
2239.533335107646 2102.131818086512
2240.1370410773434 2476.368435600999
2240.740601380803 2145.061962135607
2241.3440160514474 2127.661784807501
2241.9472851226783 2158.794492344185
2242.550408627896 2313.630003503084
2243.1533866004793 2468.7635572902536
2243.756219073799 2363.2855876451504
2244.3589060812064 2021.5881908048814
2244.961447656049 2119.384400507567
2245.5638438316564 2090.290909010818
2246.166094641343 2469.5368310543977
2246.7682001184166 2094.302611839595
2247.3701602961664 2094.8906650785943
2247.971975207871 2110.3195873792606
2248.5736448867974 2332.192862248381
2249.175169366197 2170.828505266376
2249.7765486793123 2110.230855775505
2250.3777828593684 2327.8637661052917
2250.9788719395783 2354.921766350303
2251.579815953146 2159.6814947826406
2252.1806149332606 2047.6511639593966
2252.781268913097 2047.4131769904513
2253.381777925817 1851.431376153938
2253.9821420045737 2102.2152937806113
2254.5823611825035 2419.165615841971
2255.1824354927303 2107.8810876050447
2255.782364968365 2012.6922292245831
2256.38214964251 1917.4343374356472
2256.9817895482483 2221.8697819679523
2257.5812847186553 2346.6964398818595
2258.180635186791 1935.4291948043806
2258.779840985704 2170.1420702473574
2259.37890214843 1964.3420909461051
2259.97781870799 2050.4452688427887
2260.5765906973957 2136.7192343690954
2261.175218149645 1965.0881274266824
2261.773701097718 1987.9602685443479
2262.3720395745895 2010.8196416481908
2262.970233613216 1803.6830720417267
2263.568283246548 2044.3186691940446
2264.1661885075137 2048.8623921112367
2264.763949429038 2019.9898563968654
2265.3615660440246 2031.2529259272028
2265.959038385374 2042.5408649449855
2266.5563664859637 2218.7632665103283
2267.153550378669 2037.9958972450895
2267.7505900963424 2260.3893412776024
2268.3474856718312 2050.703177903798
2268.9442371379664 2060.3332754155667
2269.5408445275643 1851.813221681797
2270.1373078734377 2341.2200076004056
2270.7336272083758 2147.9199968909516
2271.32980256516 2147.1310572107986
2271.925833976562 2357.819638314369
2272.5217214753357 2295.759823157286
2273.117465094223 2086.080586386754
2273.7130648659586 2180.3746949213873
2274.308520823257 2099.402218302891
2274.903832998827 2489.640006670533
2275.4990014253563 1912.2829625281106
2276.094026135528 2508.3061376457435
2276.6889071620117 2543.045170278303
2277.2836445374614 2577.730912341575
2277.878238294519 2219.2893162163564
2278.472688465812 2097.1132846580576
2279.066995083962 1974.6821400599797
2279.6611581815705 2214.9622365091227
2280.255177791232 1892.2440913661726
2280.8490539455233 2507.2915291588224
2281.442786677013 2434.8120092763957
2282.0363760182554 2507.081863896884
2282.6298220017943 2037.621350710444
2283.223124660155 2337.5882571290226
2283.816284025859 2037.3585556491394
2284.4093001314086 2450.7188070665206
2285.002173009292 2375.3720055190115
2285.5949026919952 2299.844723850161
2286.1874892119777 1821.045815608008
2286.7799326016993 2155.915691259239
2287.3722328936 1716.5464927765338
2287.964390120109 2018.715261470709
2288.556404313642 2086.689030407594
2289.1482755066027 2472.9966104154746
2289.7400037313873 2213.1668031745153
2290.3315890203703 2183.3355989898114
2290.9230314059205 2464.6833543779962
2291.5143309203904 2073.0406371764975
2292.1054875961236 1902.3697597545233
2292.6965014654506 2463.2656616782288
2293.287372560684 2245.338759388926
2293.878100914131 2173.1016908213414
2294.468686558086 2100.780327166336
2295.059129524827 2004.479018847657
2295.649429846617 2524.192098230292
2296.239587555716 2335.600324471184
2296.8296026843636 2152.8747247573683
2297.419475264791 2207.6526781913662
2298.0092053292137 2262.395658332886
2298.598792909839 2248.289547337014
2299.1882380388597 2227.608027700683
2299.777540748455 2244.401342507028
2300.3667010707904 2261.0735706491705
2300.9557190380256 2235.1242464124275
2301.544594682302 2567.0140378468345
2302.1333280357503 2468.7995599382766
2302.721919130485 2370.52334196615
2303.3103679986198 2502.206695442266
2303.898674672242 2436.3885896233614
2304.486839183437 1982.6615724735425
2305.0748615642697 2368.160245963631
2305.6627418468015 2002.7348365142304
2306.2504800630704 2211.7263561382883
2306.8380762451143 2057.384987015891
2307.425530424949 2112.3709369094054
2308.012842634582 2167.466638841825
2308.6000129060103 2530.1818102856364
2309.187041271214 2321.056279848747
2309.773927762164 2111.490280552028
2310.3606724108213 2197.0455931817714
2310.9472752491274 1924.173205426899
2311.5337363090184 2034.2894067640973
2312.120055622414 2144.694341997492
2312.706233221221 1936.2655751396771
2313.2922691373424 1966.5183892455716
2313.8781634026564 2498.821450563366
2314.463916049037 1900.695395097612
2315.049527108342 2445.6556121805106
2315.6349966124235 2364.5766223895416
2316.2203245931123 2347.545715704005
2316.8055110822315 1919.5115743730835
2317.3905561115935 1959.6596115056714
2317.9754597129977 1877.4930410389838
2318.560221918229 2589.9235885684056
2319.1448427590603 2185.1072011137217
2319.729322267256 1648.3200757342506
2320.313660474563 2316.6959959253318
2320.8978574127195 2930.327082586829
2321.481913113452 2236.19018347411
2322.0658276084705 1838.883954970725
2322.6496009294806 2195.6885762918714
2323.233233108165 2563.5575130789953
2323.8167241762058 2347.674844588297
2324.4000741652617 2157.93967367489
2324.983283106987 2384.1769488737814
2325.5663510330232 2439.1933332021677
2326.1492779749933 2401.440439782314
2326.7320639645204 2081.8364706389825
2327.3147090332004 1997.5461689064953
2327.897213212629 2060.612423108862
2328.4795765343843 2123.608557292911
2329.0617990300307 1884.9058493524105
2329.643880731124 2308.909455941484
2330.22582166921 2207.2399015118413
2330.807621875816 2168.2494203640513
2331.3892813824623 1920.8812673479104
2331.9708002206517 1978.625853458622
2332.5521784218818 2113.039066847477
2333.133416017634 2247.818959003249
2333.7145130393765 2013.633183887662
2334.295469518571 2228.7681546873296
2334.876285486658 2234.6122886883945
2335.456960975076 2016.8257952106967
2336.037496015242 2318.2386982007597
2336.6178906385667 2293.516063066651
2337.198144876451 2476.0956711232693
2337.778258760278 2000.4224765317242
2338.3582323214214 1875.6846295274324
2338.938065591243 2385.0459601183907
2339.517758601087 2487.549354402824
2340.0973113822965 2278.293277570711
2340.676723966193 1927.0669176862248
2341.255996384094 2096.529041545667
2341.835128667295 2238.66667298545
2342.4141208470883 2005.6335473375166
2342.992972954751 2173.9505120484278
2343.5716850215467 2139.7420445955477
2344.1502570787306 1711.4587813929647
2344.7286891575386 2086.523286854821
2345.3069812892045 2491.6826332883034
2345.885133504944 2502.3653198014185
2346.4631458359618 2047.9808440072236
2347.04101831345 1951.7659629012765
2347.6187509685915 2214.4993249792487
2348.196343832553 2098.957282073551
2348.7737969364935 2054.8478806248736
2349.351110311558 2089.325489767906
2349.9282839888765 1866.9823322964662
2350.5053179995757 2016.9662238685137
2351.0822123747585 1881.9625022267815
2351.658967145526 1859.8393654968554
2352.2355823429643 1837.787751913043
2352.812057998144 2408.083512844876
2353.3883941421263 2106.5416566428994
2353.9645908059647 2073.530517724719
2354.540648020693 2302.8192506097325
2355.116565817336 1928.2128235245614
2355.6923442269126 2221.430168220754
2356.2679832804224 1831.7925149374591
2356.8434830088518 1909.7820539228396
2357.41884344318 2048.032271640032
2357.994064614377 2135.094127385073
