#exp_cfg={"servo_angle": 0.0, "laser_lim": 100.0, "servo_angle_to": 18.0, "laser_wup": 0.0, "bt_dev": "EnSpectr-25AE3", "laser_wdn_max": 0.0, "frames": 10.0, "servo_used": 0, "servo_calib_use": 0, "laser_wdn_min": 0.0, "servo_pix_from": 90.0, "cooler_tout": 300.0, "servo_angle_from": 0.0, "servo_calib": "[-1.9174921013161362e-09, 3.9322238269163779e-05, -0.27385609119055809, 653.59552119713567]", "laser_autoctl": 0, "servo_pix_to": 3682.0, "laser_pw": 100.0, "cooler_on": 0, "laser_volt": 4.0, "cooler_autoctl": 0, "cooler_curr": 70.0, "cooler_startup": 10.0, "laser_fixed_pw": 0, "gain": 1.3, "offset": 2.53059635486, "servo_calib_degree": 3.0, "laser_curr": 55.0, "shutter": 8200.0, "servo_calib_step": 1.0, "laser_fixed_curr": 0, "exp": 2000.0, "ccd_volt": 4.7, "bt_addr": "00:06:66:62:5A:E3", "servo_delay": 500.0, "laser_autooff": 1}
#proc_cfg={"flat_auto_wnd": 200.0, "flat_auto_fr": 200.0, "flat_auto_shift": 5.0, "yconv": 1, "flatten": 1, "flatten_strength": 100.0, "xfrom": 300.0, "auto_max_frame": 2000.0, "auto_signal": 48000.0, "flat_auto_tol": 0.1, "autoclip": 1, "xrel_range": 0.0, "flat_auto_to": 4000.0, "intensity_adj": 1.0, "xrel": 7852.0, "rmhot": 1, "flat_auto_slit": 4.999999999999997, "auto_ini_exp": 300.0, "auto_off": 0, "xto": 2860.0, "flat_auto_ref": "", "flat_auto_rank": 1, "autobackg": 0, "xrel_adj": 0.0, "auto_black_lvl": 1, "base_wnd": 100.0, "sub_baseline": 0, "xconv": 2, "auto_max_exp": 1000.0, "auto_total_exp": 10000.0, "auto_exp": 0, "rmripple": 0, "black_lvl": 8280.775, "shutter_clip_adj": 0.0, "auto_bckg": 0, "flat_auto_thr": 0.9, "subbackg": 1}
316.8218498245369 15174.571342745805
317.89969571804795 15111.360132748692
318.977263876126 15000.985967506636
320.05455438786703 14974.888733618453
321.1315673423287 14918.562862831404
322.2083028285215 14925.480867517655
323.2847609354267 14841.661023775876
324.3609417519747 14802.729695551989
325.43684536705587 14772.566131803309
326.5124718695279 14729.177859036756
327.58782134820103 14791.73440872145
328.66289389184385 14829.300543926918
329.7376895891921 14670.444857841558
330.8122085289342 14769.815291417985
331.88645079971866 14659.621736709054
332.9604164901575 14585.91708159568
334.03410568881554 14662.835697232265
335.1075184842266 14845.000340334876
336.18065496487543 14551.28529323643
337.2535152192122 14613.410707833511
338.32609933564163 14671.015391156787
339.39840740253203 14575.298029697096
340.4704395082099 14433.606489994421
341.5421957409617 14510.021866101795
342.6136761890357 14615.10448190611
343.6848809406365 14489.948010094036
344.75581008392874 14403.319766094337
345.82646370703696 14430.791733192062
346.8968418980512 14349.297938734651
347.96694474501055 14417.769364076084
349.0367723359268 14320.704136566044
350.106324758759 14331.97511980774
351.1756021014353 14246.70008153572
352.2446044518383 14225.544231649077
353.31333189781435 14297.448132356847
354.38178452716966 14166.459038375073
355.449962427665 14203.423569144037
356.51786568702846 14244.46013985844
357.58549439294256 14328.941037045046
358.6528486330535 14275.353602672612
359.71992849496564 14273.346567411665
360.7867340662433 14267.752268888624
361.8532654344144 14204.882490532249
362.9195226869597 14403.027857094226
363.9855059113288 14141.37145563815
365.05121519492604 14221.506413101033
366.11665062511565 14287.75600456951
367.1818122892273 14337.166059611784
368.2467002745434 14255.67286434562
369.31131466831175 14318.371539030422
370.375655557742 14285.123480767536
371.4397230299983 14296.413711035595
372.5035171722102 14287.751248642156
373.5670380714637 14286.315161936765
374.6302858148101 14436.064412452582
375.6932604892554 14296.868576463361
376.7559621817709 14400.264992093571
377.81839097928605 14258.462228326965
378.8805469686886 14269.073696267844
379.94243023683157 14204.15347252283
381.0040408705263 14192.980277474207
382.0653789565458 14151.916889378586
383.1264445816196 14251.612198102457
384.1872378324406 14196.557731018318
385.2477587956637 14258.819613654454
386.3080075579037 14181.848056674698
387.3679842057336 14191.067568306356
388.4276888256918 14211.294433039691
389.48712150426945 14136.150385255503
390.54628232792857 14185.859070231658
391.6051713830857 14158.053919188687
392.66378875611736 14170.866622556412
393.7221345333637 14147.713020629006
394.7802088011249 14078.44012068939
395.838011645661 14138.586451765723
396.89554315319765 14019.881772445257
397.9528034099112 13982.006321124103
399.00979250194723 14024.167007779042
400.06651051541485 13949.587297058804
401.1229575363741 14013.64355094582
402.17913365085224 13941.902803626135
403.23503894483656 14059.862969015187
404.2906735042761 13925.119792190162
405.3460374150818 13842.846841235329
406.401130763119 13831.512131228932
407.455953634224 13905.819041154173
408.5105061141876 13927.950707262915
409.56478828876243 13667.638585586436
410.6188002436629 13780.744264465311
411.6725420645689 13826.446735880736
412.72601383711117 13772.009664319736
413.77921564689314 13812.384860422142
414.8321475794728 13691.428866400243
415.88480972036814 13746.972502430424
416.93720215506437 13838.913518730285
417.9893249690049 13766.965940358283
419.04117824759123 13616.72024913721
420.09276207619223 13637.477951802382
421.144076540133 13541.709937079018
422.1951217247042 13571.310533069656
423.24589771515275 13595.141708358546
424.2964045966928 13516.427322553884
425.34664245449494 13573.846119051468
426.3966113736933 13544.573971697193
427.4463114393875 13502.948848936512
428.49574273662984 13510.295107712907
429.5449053504417 13507.434317198431
430.5937993658026 13574.425191792436
431.6424248676558 13404.694535279628
432.6907819409007 13432.4511524949
433.73887067040596 13395.108275901654
434.7866911409965 13438.974322992459
435.8342434374608 13373.214380543377
436.88152764455117 13439.998161372368
437.9285438469724 13374.944306301104
438.9752921294057 13320.413494452607
440.02177257648145 13255.094002541475
441.06798527279716 13218.078379912142
442.1139303029122 13253.235736040753
443.1596077513459 13444.159188170428
444.2050177025794 13272.137352344906
445.25016024105753 13254.149309839757
446.2950354511886 13192.556944682463
447.33964341733736 13307.095295684612
448.383984223834 13207.966101146862
449.4280579549686 13124.610434074308
450.471864694995 13216.48880425945
451.5154045281306 13299.473557307254
452.5586775385509 13041.40067848143
453.60168381039693 13113.375817766859
454.64442342776783 13232.766783977708
455.6868964747264 13151.90000912406
456.7291030353008 13131.652150532405
457.77104319347563 13162.399609520488
458.8127170332027 13155.482854635153
459.854124638392 13128.533455359546
460.895266092919 13211.796049235252
461.93614148061897 13190.765158780638
462.97675088529104 13247.866554299264
464.01709439069236 13152.649675143653
465.0571720805492 13108.848865084608
466.0969840385442 13239.30287355267
467.1365303483253 13250.312901821486
468.17581109350067 13191.118639559169
469.2148263576437 13154.24663608857
470.2535762242878 13185.364181464733
471.29206077693016 13234.628303306421
472.33028009902773 13298.345436783275
473.3682342740012 13274.042686163084
474.40592338523857 13343.113485724569
475.4433475160804 13277.439900782312
476.4805067498364 13279.69853667603
477.51740116978 13401.792591056079
478.5540308591426 13469.075593896376
479.59039590112116 13567.987919480433
480.6264963788726 13569.008734001245
481.6623323755193 13712.377963319766
482.6979039741436 13672.613664054119
483.7332112577915 13887.439212560415
484.76825430947247 14024.043932177348
485.80303321215797 13932.86326902112
486.837548048783 14066.256244697486
487.8717989022425 14224.677361052445
488.90578585539697 14288.21092021687
489.9395089910686 14325.23401837586
490.97296839203955 14243.530074030976
492.00616414106116 14161.224720465907
493.0390963208429 14184.189503747431
494.0717650140559 14132.912561246412
495.10417030333883 14118.754789924405
496.1363122712901 14105.504542010443
497.16819100046814 13976.770482461736
498.1998065734024 13811.762881555225
499.2311590725767 13762.571674394372
500.26224858044407 13626.621047411962
501.2930751794156 13551.782631307802
502.3236389518679 13533.203353896175
503.35393998014115 13413.803316709276
504.38397834653733 13469.44608684879
505.4137541333221 13459.414244685371
506.4432674227228 13217.855454136341
507.4725182969323 13220.583852367843
508.5015068381035 13154.626057207312
509.53023312835467 13137.337507912365
510.55869724976765 13094.758047537915
511.58689928438434 13017.197625092731
512.6148393142121 13045.053156670525
513.6425174212218 13126.8457787264
514.6699336873462 13051.111109326663
515.6970881944835 13125.89263435503
516.7239810244901 13033.840371706805
517.7506122591931 13136.787104075742
518.7769819803761 13162.436592763726
519.8030902697901 13203.718323288524
520.8289372091476 13218.81680379147
521.8545228801249 13394.196000410611
522.8798473643619 13207.983923750518
523.9049107434621 13269.71326156925
524.9297130989908 13254.1962365748
525.9542545124805 13223.272514709603
526.9785350654201 13133.586135487029
528.0025548392696 13202.14719648647
529.0263139154504 13276.758533337881
530.0498123753423 13268.071569303831
531.073050300296 13178.535731821525
532.0960277716204 13149.399362462103
533.1187448705896 13145.340203977967
534.1412016784416 13161.031843026352
535.1633982763833 13012.1271721696
536.1853347455726 13157.869741295634
537.2070111671401 13048.300405807035
538.2284276221817 12897.893263229558
539.2495841917516 12895.661824921934
540.2704809568677 12792.461998475932
541.2911179985167 12876.711123180623
542.3114953976419 12728.533249694176
543.3316132351592 12750.609327325097
544.3514715919409 12605.5624147879
545.3710705488247 12700.583487828457
546.3904101866156 12589.583022854113
547.4094905860784 12695.122860768359
548.4283118279418 12639.529216108276
549.4468739929034 12646.007035906168
550.4651771616191 12484.935573274868
551.4832214147063 12447.388046600267
552.501006832761 12503.339235779398
553.5185334963226 12460.552331454906
554.5358014859103 12495.40661401161
555.5528108820035 12478.413655057822
556.5695617650363 12392.463241076919
557.5860542154242 12513.117011363503
558.6022883135283 12417.028560589619
559.6182641396881 12448.31235467848
560.6339817741991 12411.849645699269
561.6494412973225 12460.528705819448
562.6646427892883 12524.843869579623
563.6795863302796 12314.722023177714
564.694272000459 12428.070591162072
565.7086998799423 12548.41479106336
566.7228700488104 12479.224218249854
567.7367825871115 12374.542882364702
568.7504375748576 12509.47612912808
569.7638350920224 12486.657726051875
570.7769752185486 12377.728046009379
571.7898580343353 12458.746055199337
572.802483619258 12352.257504415418
573.8148520531431 12596.81400733714
574.8269634157932 12523.616406061994
575.8388177869692 12463.052630879143
576.8504152463938 12488.542463798707
577.8617558737587 12593.612730788047
578.8728397487175 12582.073060476707
579.883666950891 12597.841959042906
580.8942375598654 12686.029253983103
581.9045516551851 12760.673775732652
582.9146093163617 12973.359612184624
583.924410622878 12806.771291024555
584.9339556541727 12819.124776673336
585.9432444896538 13052.741221676475
586.9522772086875 12850.725946696048
587.9610538906127 12959.581491786243
588.9695746147318 12855.815891666341
589.9778394603054 12961.633050666362
590.985848506567 12903.385912104162
591.9936018327098 12909.410807454109
593.0010995178891 12699.09674207398
594.0083416412344 12776.64896139227
595.0153282818283 12678.962684178314
596.0220595187293 12632.238075574689
597.0285354309508 12617.328738165805
598.0347560974806 12523.748579872565
599.0407215972609 12448.194634376068
600.0464320092051 12497.890624647493
601.0518874121954 12526.002667961064
602.0570878850685 12405.468664324851
603.062033506636 12437.58431645932
604.0667243556636 12447.243095392818
605.0711605108936 12382.753386782837
606.0753420510264 12532.712780811558
607.0792690547278 12539.163982377317
608.082941600629 12478.258738173146
609.0863597673306 12350.725679070722
610.0895236333909 12515.316010552628
611.0924332773357 12634.43329201043
612.0950887776617 12637.303702942756
613.0974902128219 12677.018903259019
614.0996376612384 12934.837987924133
615.1015312013005 12830.554877356019
616.1031709113595 12917.167715680484
617.1045568697336 12713.453740581721
618.1056891547069 13003.25060862691
619.1065678445229 13075.687396963083
620.1071930173985 13365.041121364233
621.1075647515099 13289.6075984822
622.1076831250048 13368.929180220384
623.1075482159849 13534.543636573308
624.1071601025305 13585.002670540585
625.1065188626781 13753.36391775072
626.105624574433 13932.877393523424
627.1044773157682 14010.174723820115
628.1030771646128 13974.029070391023
629.1014241988742 14153.076942762364
630.0995184964158 14351.714461947937
631.0973601350688 14330.609311264347
632.0949491926294 14549.21705987404
633.0922857468631 14240.615678211621
634.089369875499 14358.923681508299
635.0862016562278 14416.329849578231
636.0827811667077 14173.763326574592
637.0791084845641 14194.282136534955
638.0751836873878 14002.915811170733
639.0710068527369 14116.088492987814
640.0665780581294 13912.307210488803
641.0618973810506 13905.806014023829
642.0569648989604 13747.344062193686
643.0517806892676 13565.183746826504
644.0463448293649 13391.265703161629
645.040657396592 13318.305721229623
646.0347184682723 13166.18478039935
647.0285281216875 13171.23131636158
648.0220864340772 13072.747615864066
649.0153934826558 12969.166206842707
650.0084493446047 12841.584677557836
651.0012540970674 12840.694505008945
651.9938078171526 12618.691768035837
652.9861105819346 12620.884897285154
653.9781624684565 12704.105345986642
654.9699635537254 12496.271534514684
655.9615139147136 12502.052962734855
656.9528136283589 12439.891709624466
657.9438627715699 12517.672909862338
658.9346614212154 12402.917299562409
659.925209654135 12228.443753121886
660.9155075471263 12365.949894308145
661.9055551769616 12347.704664517749
662.895352620375 12466.869144425786
663.8848999540678 12378.806186543812
664.8741972547068 12151.204661537016
665.863244598926 12219.25761693753
666.8520420633213 12248.381415641645
667.8405897244611 12139.205266503406
668.8288876588758 12118.25225447715
669.8169359430613 12218.485153043384
670.8047346534822 12178.813150181144
671.7922838665672 12118.057010651437
672.7795836587156 12154.693149725612
673.766634106285 12232.809018542293
674.7534352856092 12105.654782998608
675.7399872729766 12106.357296282076
676.7262901446538 12164.433504608427
677.712343976862 12088.104592005071
678.6981488457986 12161.172982593049
679.6837048276229 12065.91976309844
680.6690119984596 12198.654095897766
681.6540704344043 12064.813318351346
682.6388802115107 12164.34177831023
683.6234414058108 12111.21205366249
684.6077540932874 11966.64677797069
685.591818349907 12012.350164734145
686.575634251587 12014.342895240092
687.5592018742263 11984.937718338013
688.5425212936734 11899.263139369019
689.5255925857564 11989.613962578256
690.5084158262707 11986.854346401717
691.4909910909646 12003.436277338367
692.4733184555644 11820.509262930793
693.4553979957618 11953.670998931633
694.4372297872123 11969.82950793477
695.4188139055404 11847.179529789593
696.4001504263324 11813.190445289409
697.3812394251509 11972.051239318287
698.3620809775111 11842.945133023863
699.3426751589104 11867.415947212281
700.3230220448004 11817.23918641566
701.3031217106054 11851.345727991651
702.2829742317172 11939.70184140563
703.2625796834873 11799.46367058209
704.2419381412474 11799.320102730493
705.22104968028 11846.097159170418
706.1999143758458 11859.202175312263
707.178532303169 11797.041346991089
708.1569035374378 11813.965341295236
709.1350281538107 11881.08126014216
710.1129062274158 11889.108589726182
711.0905378333373 12044.960174006737
712.0679230466376 11939.056895214624
713.0450619423427 12000.896814156536
714.0219545954424 12134.408918073645
714.9986010808989 12096.775904645601
715.9750014736292 12164.521717111946
716.9511558485392 12314.118849958642
717.9270642804786 12348.171979670453
718.9027268442787 12449.017069044738
719.8781436147328 12380.76051201216
720.8533146666014 12332.498272679302
721.828240074612 12440.23741947242
722.8029199134635 12337.18911730684
723.7773542578125 12358.594172664098
724.751543182294 12301.096979201817
725.7254867615029 12293.269156226674
726.6991850700015 12137.5436119568
727.6726381823228 12133.053627801648
728.6458461729599 12187.801207859615
729.6188091163858 12094.750946442602
730.5915270870246 12079.52342613211
731.5640001592856 11952.34013011203
732.536228407529 12092.679736922155
733.5082119060917 12052.427914295688
734.4799507292755 11946.63077194799
735.4514449513481 11916.742040633202
736.4226946465496 12048.762582631354
737.3936998890786 12089.948666412201
738.3644607531078 11913.241378107008
739.3349773127793 11927.000635778899
740.3052496421951 11973.452089968676
741.27527781543 11826.630817178693
742.2450619065221 11722.941397373557
743.2146019894826 11707.809614868602
744.183898138288 11724.89362833097
745.1529504268801 11679.38844960088
746.1217589291682 11574.224266839285
747.0903237190341 11517.819259719789
748.058644870318 11600.026407513848
749.0267224568397 11490.028605665391
749.994556552374 11369.600302503311
750.9621472306771 11527.958538999063
751.9294945654583 11437.509512194496
752.8965986304011 11471.86700843641
753.8634594991636 11399.845376779176
754.8300772453586 11524.554786822267
755.7964519425768 11488.350744207415
756.762583664371 11520.364051885319
757.7284724842611 11508.144558174901
758.6941184757416 11346.716739294676
759.6595217122667 11379.78002766653
760.6246822672638 11383.850882504039
761.5896002141235 11335.018991203975
762.5542756262093 11451.044457594126
763.5187085768503 11460.943048313096
764.4828991393406 11411.708328650764
765.4468473869474 11366.626258135675
766.4105533929032 11328.854610923407
767.3740172304078 11248.725659018017
768.3372389726283 11415.136847419908
769.3002186926988 11285.872777833725
770.2629564637282 11140.119204108765
771.2254523587872 11244.426172302494
772.1877064509154 11155.183345924246
773.1497188131179 11039.288086761188
774.1114895183728 11073.304972682961
775.0730186396268 11136.15910488735
776.0343062497905 11092.829228879677
776.9953524217381 10966.429765600918
777.9561572283274 10991.041885029226
778.9167207423689 11079.985147184185
779.8770430366476 11013.777911245372
780.8371241839159 10978.501905753548
781.7969642568951 10877.65481237448
782.7565633282757 11205.502541084938
783.7159214707099 10918.355172771668
784.6750387568281 10975.563081377493
785.6339152592227 10931.146947214078
786.5925510504512 10905.15186035066
787.5509462030477 10869.048493326309
788.5091007895098 10923.842923853572
789.4670148823006 10913.332517370105
790.4246885538596 10832.467755504254
791.3821218765861 10946.141967769796
792.3393149228505 10836.248824890085
793.2962677649975 10863.5077582292
794.2529804753303 10975.281093188996
795.20945312613 10892.218343399027
796.1656857896378 10951.288181516167
797.1216785380675 10914.859944350968
798.0774314435985 10965.103604935797
799.0329445783846 11146.634472887617
799.9882180145414 11025.951994098006
800.9432518241574 10997.250900689327
801.89804607929 11040.609477751323
802.852600851962 11086.043396650746
803.8069162141637 11062.199628855073
804.760992237856 11132.776129275708
805.714828994971 11080.280274537063
806.6684265574077 11195.789183893266
807.6217849970271 11126.46740793814
808.574904385674 11060.089793138957
809.527784795142 11094.190199279186
810.4804262972102 11304.194655159536
811.4328289636178 11096.976710547693
812.3849928660748 10871.497836673425
813.3369180762638 10927.30716328867
814.2886046658241 10910.6642275728
815.2400527063783 10772.24763143429
816.1912622695108 10742.426530724686
817.1422334267718 10732.25475593099
818.0929662496856 10657.947798540526
819.0434608097457 10602.65363929981
819.9937171784059 10541.840797884764
820.9437354271013 10477.903165546795
821.8935156272255 10593.698808085157
822.8430578501484 10439.637505064235
823.7923621672016 10329.072147539588
824.7414286496896 10386.227756799992
825.6902573688876 10452.014164655258
826.6388483960363 10341.685320917348
827.5872018023492 10283.048599798398
828.5353176590033 10401.99820348661
829.4831960371503 10285.169061337223
830.4308370079016 10285.308779206094
831.3782406423525 10376.454837893982
832.3254070115545 10226.104035765722
833.2723361865319 10126.93538779262
834.2190282382799 10197.657297364507
835.1654832377644 10266.376391680013
836.1117012559116 10158.480441006386
837.0576823636256 10343.941065801304
838.003426631778 10110.75926189217
838.9489341312074 10047.403813816947
839.8942049327197 10129.087832442816
840.8392391070975 10235.857907625368
841.7840367250865 10176.491784792179
842.7285978573982 10056.134052933096
843.672922574724 10203.559289314897
844.6170109477152 10147.076275354802
845.560863046996 10113.078318886186
846.5044789431595 10025.861325394812
847.4478587067697 10096.269206707535
848.3910024083561 10187.050766223194
849.333910118421 10150.119457792036
850.2765819074339 10047.469839211331
851.2190178458332 10110.641578683088
852.161218004032 10256.083189845109
853.1031824524016 10129.850800112401
854.0449112612987 10083.556225500757
854.9864045010327 10192.517085478608
855.9276622418947 10014.39390052559
856.8686845541379 10140.428508815641
857.8094715079915 10088.936554202794
858.7500231736467 10149.321103858087
859.690339621271 10171.761695024219
860.6304209209939 10086.2445083157
861.5702671429244 10072.735090068005
862.5098783571284 10161.010808321433
863.4492546336569 10139.208583556614
864.3883960425155 10017.312345118886
865.3273026536863 10063.254321780667
866.2659745371238 10056.584609133743
867.2044117627465 10233.112766744882
868.1426144004472 10063.052468263828
869.0805825200823 10120.848784518801
870.0183161914847 10198.85233396885
870.9558154844526 10289.10141678431
871.8930804687552 10193.43941419971
872.8301112141307 10105.874097430778
873.7669077902865 10299.239967014435
874.7034702669062 10337.987066201124
875.6397987136315 10213.669465726001
876.5758932000863 10294.460716376214
877.5117537958522 10325.976398541865
878.4473805704911 10315.2156339504
879.3827735935283 10272.74258522617
880.3179329344603 10413.001027857897
881.2528586627541 10339.609269043618
882.1875508478479 10351.883934035766
883.1220095591489 10268.84754666279
884.0562348660296 10279.258682527656
884.9902268378391 10410.768603010967
885.9239855438955 10269.770281777122
886.8575110534839 10241.972769376154
887.7908034358588 10231.182652775604
888.7238627602474 10228.320243397802
889.6566890958475 10235.037389618248
890.5892825118208 10098.167496368962
891.5216430773125 10173.414231164585
892.4537708614189 10179.120879789301
893.3856659332196 10004.414587604824
894.3173283617652 9962.945971449972
895.2487582160684 10030.330299559853
896.179955565116 9927.564215656723
897.110920477864 9871.532017896896
898.0416530232451 9824.63110047314
898.9721532701478 9827.847879109535
899.9024212874428 9951.82541168078
900.8324571439662 9766.901032899203
901.7622609085302 9713.828249834614
902.6918326499072 9738.270138517246
903.6211724368477 9693.4359377745
904.5502803380696 9748.19505405072
905.4791564222614 9872.615986189292
906.4078007580792 9712.896350732335
907.3362134141571 9754.773679221751
908.2643944590909 9770.931285908251
909.1923439614493 9663.869934339393
910.1200619897754 9637.093065999112
911.0475486125779 9836.292004071782
911.9748038983344 9725.415755835144
912.9018279155007 9706.793485515665
913.8286207324982 9566.530316035743
914.7551824177117 9719.086641906451
915.6815130395116 9598.909517194372
916.6076126662283 9581.782713807463
917.533481366163 9597.479193188796
918.4591192075914 9597.89989231885
919.3845262587565 9648.406589139484
920.3097025878706 9595.942334168434
921.2346482631237 9557.619933603182
922.1593633526682 9617.338841728673
923.0838479246304 9653.658676765124
924.0081020471061 9700.694488728874
924.9321257881656 9531.973640590864
925.8559192158464 9480.532267545266
926.7794823981512 9545.452217591861
927.7028154030686 9520.795003943389
928.6259182985414 9374.377662893647
929.5487911524906 9669.023807064244
930.4714340328119 9650.958955346034
931.3938470073608 9500.613733434782
932.3160301439748 9587.94984379993
933.2379835104548 9615.476130579545
934.1597071745709 9543.471246800398
935.0812012040769 9629.375968671015
936.002465666681 9556.176033703618
936.9235006300696 9537.67559175482
937.8443061619055 9534.598495328684
938.7648823298077 9452.3024035945
939.6852292013809 9519.087396845609
940.6053468441951 9543.043149004267
941.5252353257874 9431.373422020168
942.4448947136698 9408.064510524322
943.364325075323 9450.437317269567
944.2835264782043 9556.049939275346
945.2024989897309 9490.106158347142
946.1212426773054 9484.22196066173
947.0397576082851 9491.939352328252
947.9580438500125 9562.3653259008
948.8761014697939 9646.176381573547
949.7939305349064 9551.010616899071
950.7115311125999 9480.82230288436
951.6289032700952 9497.362608196321
952.5460470745875 9644.802187960839
953.4629625932339 9526.658903304493
954.3796498931715 9611.41365636253
955.2961090415029 9568.935318949267
956.2123401053068 9619.445304865018
957.1283431516276 9484.240219602721
958.0441182474842 9454.348936707525
958.9596654598663 9615.778607454973
959.8749848557309 9503.635327528298
960.7900765020167 9479.231745495212
961.7049404656209 9528.727323277442
962.6195768134185 9464.0591326459
963.5339856122537 9506.076311864934
964.4481669289453 9507.982445878142
965.3621208302793 9436.973192068846
966.2758473830145 9425.823385549204
967.1893466538822 9554.151847928137
968.1026187095813 9493.240593099177
969.0156636167867 9501.590088297371
969.9284814421426 9575.165497143493
970.8410722522622 9531.94898143419
971.753436113735 9459.93992801163
972.6655730931161 9457.277698471127
973.5774832569368 9566.321762995189
974.4891666716958 9423.422066870839
975.4006234038698 9345.788773987013
976.3118535198955 9349.986482394565
977.2228570861935 9522.991646050985
978.1336341691494 9452.847196975945
979.0441848351202 9463.28114938153
979.9545091504333 9464.2736902522
980.864607181391 9513.086105358245
981.7744789942699 9471.366021132051
982.6841246553086 9548.836944715393
983.5935442307236 9504.3716909425
984.5027377867027 9572.55619020914
985.4117053894024 9548.555066914658
986.3204471049557 9559.13352462128
987.2289629994648 9646.395900955464
988.1372531390007 9692.278349787039
989.0453175896091 9494.499877364939
989.9531564173067 9535.474330997069
990.860769688079 9409.999348403086
991.7681574678918 9642.21999258443
992.6753198226706 9615.403401621066
993.582256818323 9582.316934964258
994.4889685207218 9630.32253731359
995.3954549957143 9855.313355690074
996.301716309119 9768.335434990626
997.2077525267232 9725.686397305295
998.1135637142943 9640.038904917585
999.0191499375615 9871.686921211078
999.924511262232 9747.321004422249
1000.8296477539861 9803.500777642263
1001.7345594784656 9747.110960461821
1002.6392465012996 9738.893522497927
1003.5437088880753 9774.366731917497
1004.4479467043584 9758.508609495333
1005.3519600156869 9514.505671561663
1006.2557488875718 9724.044215890299
1007.1593133854858 9661.841122479207
1008.0626535748888 9655.776270444721
1008.9657695212009 9567.274126460117
1009.8686612898182 9695.233492616873
1010.7713289461135 9692.985943424344
1011.6737725554212 9630.373337762276
1012.5759921830577 9628.780151425202
1013.4779878943027 9658.963769916514
1014.379759754418 9696.96080094655
1015.2813078286254 9460.803004471394
1016.18263218213 9480.841199358802
1017.0837328801026 9547.843187715993
1017.9846099876886 9672.622693225641
1018.8852635700023 9517.20049176254
1019.7856936921362 9351.452422345887
1020.6859004191447 9604.289027058123
1021.5858838160675 9490.486546557784
1022.4856439479063 9429.73389064256
1023.3851808796389 9496.445605607607
1024.2844946762143 9525.372689144193
1025.183585402554 9410.361107808189
1026.082453123554 9406.420377167928
1026.9810979040776 9399.279321933562
1027.8795198089647 9363.318184775433
1028.777718903024 9404.229295881996
1029.6756952510368 9386.269691764155
1030.5734489177648 9269.256292750677
1031.4709799679313 9378.00331700614
1032.3682884662358 9446.53475373283
1033.2653744773506 9352.956479326162
1034.1622380659192 9353.750231499858
1035.058879296559 9447.847660629086
1035.9552982338591 9482.24584255733
1036.8514949423825 9415.325141504838
1037.7474694866614 9397.068353027587
1038.6432219312028 9454.334013629099
1039.5387523404825 9507.770673031737
1040.4340607789582 9438.202043682022
1041.3291473110476 9457.214610605148
1042.2240120011465 9609.066981128553
1043.1186549136273 9550.322906811794
1044.0130761128294 9411.701101542387
1044.9072756630649 9473.300973342548
1045.8012536286205 9589.639381557003
1046.6950100737577 9501.738293903352
1047.588545062701 9603.423204670504
1048.481858659663 9559.438480640278
1049.3749509288118 9713.498103378039
1050.2678219343034 9511.119870186321
1051.1604717402515 9525.446554349786
1052.0529004107575 9495.54334220484
1052.9451080098825 9592.024488316256
1053.8370946016694 9567.497908497646
1054.7288602501267 9599.238152700793
1055.6204050192446 9402.650043684213
1056.511728972977 9552.680565433133
1057.402832175254 9516.429430454811
1058.2937146899785 9503.947708094243
1059.1843765810263 9409.56906256154
1060.0748179122456 9584.852914570523
1060.9650387474576 9435.634689787361
1061.855039150456 9582.449503591017
1062.7448191850071 9493.852682495208
1063.6343789148505 9444.494405289868
1064.5237184037014 9546.932401813927
1065.412837715241 9394.741978280927
1066.3017369131267 9347.604294923496
1067.190416060992 9441.640546153943
1068.0788752224398 9285.60851140985
1068.9671144610438 9295.371535700795
1069.8551338403558 9367.013716938538
1070.7429334239023 9514.785858766785
1071.6305132751695 9399.212342774184
1072.517873457633 9412.493417697751
1073.4050140347335 9362.645011824849
1074.2919350698776 9427.024813952
1075.1786366264623 9371.450998307668
1076.0651187678395 9375.991180732035
1076.95138155735 9280.84998754893
1077.8374250582929 9200.999941543201
1078.7232493339507 9280.493938181164
1079.608854447577 9302.339307665377
1080.4942404623907 9255.162945570337
1081.3794074415982 9347.540408186414
1082.2643554483657 9221.442557641287
1083.149084545841 9322.754661184485
1084.033594797138 9130.891500205702
1084.9178862653516 9309.239557768971
1085.8019590135427 9357.089940595086
1086.6858131047484 9151.475554581106
1087.5694486019802 9246.495294542785
1088.4528655682225 9314.017647598714
1089.3360640664287 9342.179205698809
1090.2190441595321 9195.39683984139
1091.1018059104317 9315.591669637668
1091.98434938201 9328.080530753396
1092.866674637111 9350.838448259094
1093.748781738559 9325.667908024576
1094.6306707491512 9179.727858716078
1095.5123417316554 9235.941224915536
1096.3937947488157 9195.64781518776
1097.2750298633455 9191.892341855573
1098.156047137938 9169.033543744168
1099.0368466352556 9297.240606688156
1099.9174284179317 9266.54002540957
1100.7977925485757 9122.291086107136
1101.6779390897755 9064.116507641711
1102.5578681040806 9193.590530636553
1103.4375796540226 9139.707893010436
1104.3170738021054 9167.68439206338
1105.1963506108077 9061.478269005347
1106.0754101425773 9109.540990099953
1106.9542524598382 8986.422508012904
1107.8328776249855 9047.567498146655
1108.7112857003904 8969.714878037255
1109.5894767483987 9008.893833958346
1110.4674508313292 9177.57935498332
1111.3452080114657 9088.556489017796
1112.2227483510815 9095.392163984383
1113.1000719124077 9155.742305125032
1113.9771787576592 9229.430365831968
1114.854068949022 9209.001490911927
1115.7307425486542 9231.601853282393
1116.6071996186893 9354.868797289144
1117.483440221229 9422.507915811062
1118.3594644183577 9392.020684836794
1119.235272272128 9334.609608897645
1120.1108638445658 9544.239751839354
1120.9862391976712 9707.96653876164
1121.8613983934229 9592.412818020412
1122.7363414937627 9661.315416792177
1123.6110685606182 9647.552395305436
1124.485579655884 9762.994792888305
1125.359874841426 9669.84982785055
1126.2339541790916 9663.099642396948
1127.1078177306936 9926.915156661109
1127.9814655580267 9719.246103872834
1128.854897722851 9776.103112031004
1129.7281142869106 9729.903361078657
1130.6011153119125 9845.122731851414
1131.473900859548 9943.258246228273
1132.3464709914697 9792.227795548193
1133.2188257693178 9677.187425251308
1134.0909652546961 9735.156637121743
1134.96288950919 9617.488809869381
1135.8345985943506 9779.802475467115
1136.7060925717087 9517.837288960554
1137.57737150277 9622.123680367886
1138.4484354490069 9679.851837263323
1139.3192844718778 9541.998276201217
1140.1899186327992 9388.44225488758
1141.060337993178 9559.18054451243
1141.930542614382 9389.34795246518
1142.8005325577597 9400.041683881711
1143.670307884635 9176.822580720995
1144.5398686563003 9391.30874215485
1145.409214934025 9262.296010870954
1146.2783467790541 9054.258405830547
1147.1472642526023 9122.682055399286
1148.0159674158622 9245.227893206978
1148.8844563300026 9114.521665055221
1149.7527310561618 9059.958585927438
1150.6207916554504 8874.812100454865
1151.4886381889592 8928.868557311163
1152.3562707177498 9048.514563385748
1153.2236893028585 8918.422158354573
1154.090894005296 8903.092527328297
1154.9578848860474 8979.949022679266
1155.8246620060709 8889.276305651318
1156.6912254262988 8863.434928068787
1157.5575752076438 8790.361199679517
1158.42371141098 9068.804360012733
1159.2896340971656 8964.228099003474
1160.1553433270346 8915.733960227457
1161.0208391613887 8856.10881288757
1161.8861216610057 8995.747287107515
1162.75119088664 8888.114308478982
1163.6160468990201 8924.858518972822
1164.4806897588442 8750.000940844882
1165.3451195267917 9036.66554872992
1166.2093362635114 8924.704120440249
1167.0733400296285 8818.979181384635
1167.9371308857444 8763.553469797862
1168.8007088924278 8856.410979753453
1169.6640741102328 9004.061976283896
1170.5272265996773 8649.524381100124
1171.390166421259 8595.635379234138
1172.252893635452 8868.31434442037
1173.1154083026995 8857.561793160185
1173.977710483421 8885.982575853377
1174.8398002380145 8707.06362934512
1175.7016776268483 8879.275770418079
1176.563342710264 8816.290630365656
1177.4247955485826 8720.087348250634
1178.2860362020947 8893.229374023218
1179.147064731069 8794.99249582217
1180.0078811957483 8921.005238798294
1180.8684856563486 8873.600821711692
1181.7288781730604 8849.719412761287
1182.589058806052 8973.402155078367
1183.4490276154593 9054.909534840423
1184.3087846614017 8962.343667510384
1185.1683300039676 8964.995288968077
1186.027663703222 9166.774848796837
1186.8867858192025 8960.610863479991
1187.7456964119228 8960.263350436742
1188.6043955413716 9025.267623933572
1189.4628832675116 9192.049064693423
1190.3211596502842 9183.63295130776
1191.179224749596 9180.829871080088
1192.0370786253388 9058.915701550379
1192.8947213373758 9370.182520980852
1193.7521529455407 9382.968975814885
1194.6093735096438 9153.36190880075
1195.466383089477 9144.282338560643
1196.3231817447977 9335.889307382324
1197.1797695353398 9372.724943096318
1198.0361465208189 9182.722429024947
1198.8923127609214 9151.147131484211
1199.7482683153048 9354.286124179835
1200.6040132436028 9318.736659873823
1201.459547605431 9303.520602742643
1202.3148714603722 9171.207996272226
1203.1699848679855 9210.417428520574
1204.0248878878065 9233.80142125556
1204.8795805793507 9179.375694557608
1205.7340630020935 9194.325250263773
1206.5883352155033 9415.876276487823
1207.4423972790064 9181.094531163637
1208.2962492520237 9153.24782358152
1209.1498911939307 9143.926560612666
1210.0033231640937 9197.69169976018
1210.8565452218427 9181.998898701715
1211.7095574264913 9018.296847184374
1212.5623598373222 8985.363046431079
1213.4149525135963 9018.47882981817
1214.2673355145507 9108.35683527987
1215.1195088993936 8912.59277196321
1215.9714727273113 8886.304781114417
1216.8232270574663 8993.604928060626
1217.6747719489904 8836.6356731827
1218.5261074609934 8855.590075029402
1219.3772336525653 8861.361570872763
1220.2281505827668 9071.98777143626
1221.0788583106296 9043.328467682924
1221.9293568951707 8800.09110140657
1222.7796463953746 8839.80239632279
1223.629726870202 8962.885715007109
1224.4795983785934 8994.058850510777
1225.3292609794553 8891.545824920351
1226.1787147316809 8786.87396872777
1227.0279596941327 8956.476906267202
1227.8769959256424 8959.101124688234
1228.7258234850306 8925.300044886173
1229.5744424310833 8731.931469289933
1230.422852822563 8935.776591206772
1231.2710547182105 9018.669379454299
1232.119048176739 8880.541527749026
1232.9668332568417 8654.78290974777
1233.8144100171812 8983.844831756112
1234.6617785163999 9023.76216474595
1235.508938813111 8773.807808305548
1236.3558909659114 8836.397036170516
1237.2026350333617 8952.929837545895
1238.049171074008 9024.981794131858
1238.8954991463652 8801.405522012848
1239.741619308932 8769.056061649004
1240.587531620169 9028.86352076015
1241.4332361385277 8941.763167941002
1242.2787329224248 8792.79870377223
1243.1240220302534 8740.894112851753
1243.9691035203869 8821.181287566407
1244.813977451171 8902.551861135182
1245.6586438809263 8944.650722767723
1246.5031028679496 8687.15164516957
1247.3473544705157 8827.687377971064
1248.1913987468706 8925.517487300922
1249.0352357552383 8725.331733304
1249.8788655538228 8733.377869112455
1250.7222882007918 8763.245237951449
1251.565503754302 8883.01848781142
1252.4085122724755 8796.244343855391
1253.2513138134182 8862.032084905068
1254.0939084352049 8769.752190625983
1254.9362961958905 8800.561788572746
1255.7784771535007 8752.561637142024
1256.6204513660432 8882.702246695146
1257.4622188915 9056.480545099745
1258.3037797878242 8780.59930270151
1259.1451341129468 8767.120239006927
1259.9862819247755 8845.913077598627
1260.8272232811978 8787.626713104724
1261.6679582400666 9018.022213018121
1262.5084868592203 8807.988887190411
1263.34880919647 8772.457123542965
1264.1889253095997 8838.505000165325
1265.0288352563712 8950.804966111275
1265.8685390945266 8873.602573682972
1266.7080368817751 8821.65585466969
1267.5473286758115 8915.600424704366
1268.386414534294 8912.73518340555
1269.2252945148703 8763.66904750755
1270.0639686751547 8768.84480681115
1270.9024370727402 8809.246427420807
1271.7406997651997 8712.00625764886
1272.5787568100714 8755.38883211118
1273.4166082648808 8752.80670135135
1274.2542541871244 8798.680964732668
1275.091694634275 8951.762571191397
1275.9289296637817 8652.212883811308
1276.7659593330663 8674.926981670227
1277.6027836995308 8701.483352515801
1278.4394028205552 8779.405967781677
1279.2758167534867 8648.36689646949
1280.112025555658 8755.894544523999
1280.9480292843746 8725.671774584454
1281.7838279969128 8603.506372767795
1282.6194217505326 8626.955889351979
1283.4548106024686 8555.555368682897
1284.289994609926 8668.187717159788
1285.1249738300921 8812.332996572432
1285.959748320127 8565.022097379911
1286.7943181371702 8670.551196773366
1287.6286833383328 8752.451927809214
1288.4628439807038 8768.495481088412
1289.2968001213521 8552.331380578904
1290.1305518173194 8689.242024058081
1290.9640991256183 8719.27562495506
1291.7974421032523 8670.614326797022
1292.630580807183 8731.40536423941
1293.463515294361 8694.730063577805
1294.29624562171 8741.684481938182
1295.12877184613 8643.713430062915
1295.961094024493 8792.855032632382
1296.79321221365 8680.873471672869
1297.6251264704333 8861.460745590342
1298.4568368516466 8872.080726941256
1299.2883434140658 8769.793956647738
1300.1196462144526 8671.31090488717
1300.9507453095375 8917.205927021085
1301.7816407560313 8804.899163206093
1302.6123326106172 8719.283359526788
1303.4428209299622 8563.338879728635
1304.2731057707024 8866.500304928302
1305.1031871894502 8680.405820305697
1305.933065242798 8928.189565603572
1306.7627399873181 8782.54014870896
1307.5922114795467 9081.090923128953
1308.4214797760123 8975.018508758234
1309.2505449332057 8754.288382610244
1310.0794070076026 8930.599019728932
1310.9080660556538 8976.472459381908
1311.736522133786 9081.42143787862
1312.5647752983987 8896.288553355624
1313.3928256058734 8731.322147378974
1314.2206731125661 8937.478714536528
1315.048317874809 8923.755672222516
1315.8757599489109 8830.401866632295
1316.7029993911547 8877.671754071978
1317.5300362578055 9025.538070189137
1318.356870605101 8787.265107884316
1319.183502489257 8775.77325915273
1320.0099319664623 8853.484310753753
1320.836159092889 8903.217550720063
1321.66218392468 8943.155276535606
1322.4880065179532 8812.509186009764
1323.3136269288134 8704.716618945316
1324.1390452133292 9007.534016007961
1324.9642614275563 8933.612028697418
1325.7892756275214 8919.114083827979
1326.6140878692295 8754.64515162128
1327.4386982086617 9138.971169803748
1328.2631067017755 8948.285953898438
1329.0873134045069 8912.689074966927
1329.911318372764 8776.844924999918
1330.735121662441 8844.509100069758
1331.558723329399 8706.539896742132
1332.3821234294774 8728.931789210445
1333.2053220185007 8700.396312077433
1334.0283191522612 8708.663361004179
1334.851114886529 8715.427134312762
1335.6737092770582 8736.18063958397
1336.4961023795695 8661.55256261458
1337.3182942497697 8802.039228790833
1338.1402849433325 8674.84857377243
1338.962074515921 8631.675974852651
1339.7836630231632 8467.526325836712
1340.6050505206676 8871.648141998981
1341.426237064028 8736.055263445309
1342.2472227088037 8815.688441342456
1343.0680075105338 8407.95592379841
1343.888591524741 8510.205835195069
1344.7089748069138 8696.985894442167
1345.5291574125276 8402.145064545894
1346.3491393970307 8376.480704883505
1347.168920815846 8500.20664073118
1347.9885017243778 8472.91812354032
1348.8078821780036 8370.127691525462
1349.6270622320844 8309.189851577637
1350.4460419419447 8380.789326273774
1351.2648213629054 8512.83190925878
1352.0834005502438 8226.4781455429
1352.90177955923 8174.003209039896
1353.7199584451064 8822.121730104549
1354.5379372630887 8389.503935691
1355.355716068374 8336.560009367557
1356.1732949161305 8183.872363694942
1356.9906738615155 8375.277602125094
1357.8078529596478 8411.62805635754
1358.6248322656375 8293.024367764905
1359.441611834567 8106.679026176488
1360.2581917214866 8503.657189723188
1361.0745719814367 8131.64191921473
1361.890752669433 8113.893065577989
1362.7067338404577 8172.428783605991
1363.5225155494845 8331.151261205625
1364.3380978514506 8432.33540247629
1365.1534808012839 8118.4072574191905
1365.9686644538815 7948.162526385777
1366.783648864117 8301.207771723535
1367.5984340868417 8230.037779864488
1368.413020176893 8081.581311859304
1369.2274071890715 7924.63476978096
1370.0415951781652 8199.557635501282
1370.8555841989346 7941.8537664553105
1371.6693743061223 7979.2326319009935
1372.48296555444 8062.684442027878
1373.2963579985844 8157.241368435336
1374.1095516932255 8061.613199908092
1374.9225466930166 7917.884462566634
1375.7353430525782 7883.41181233875
1376.5479408265164 7834.570966495104
1377.36034006941 8093.883938465397
1378.1725408358216 7975.78318050681
1378.9845431802805 7805.172437951738
1379.796347157304 8127.085044461816
1380.6079528213813 8021.663635941598
1381.4193602269788 7836.291131264935
1382.230569428546 7806.098464668545
1383.0415804805016 8164.655204252817
1383.852393437246 8059.997896007216
1384.6630083531563 7951.469931519721
1385.4734252825892 7806.757064887577
1386.2836442798798 8086.969024030342
1387.0936653993322 7913.9802741188305
1387.9034886952395 7707.292627397952
1388.713114221864 7909.373818436143
1389.5225420334482 7914.91558456475
1390.331772184214 7704.212657397582
1391.1408047283585 7745.519511259461
1391.9496397200564 7697.188907759222
1392.758277213461 7880.745808874289
1393.5667172627054 7966.611576055811
1394.3749599218918 7655.990416498574
1395.1830052451114 7511.927526703292
1395.9908532864265 7713.006599715921
1396.7985040998774 7831.970700880274
1397.6059577394808 7543.219782228373
1398.4132142592352 7642.7793962236465
1399.2202737131156 7617.555885825224
1400.027136155073 7677.118718604611
1400.8338016390353 7535.719357668796
1401.6402702189134 7537.946415622685
1402.446541948586 7698.278149849199
1403.2526168819204 7451.4512464724585
1404.058495072757 7593.430300788784
1404.8641765749107 7494.168045570618
1405.6696614421799 7616.560938468685
1406.4749497283356 7829.667653598348
1407.280041487129 7411.905096605379
1408.084936772295 7264.468028531315
1408.8896356375335 7685.495885475456
1409.6941381365323 7615.933734439868
1410.498444322955 7351.876242727538
1411.3025542504402 7352.150770810554
1412.106467972606 7471.637570847025
1412.9101855430508 7573.972889870592
1413.7137070153458 7324.31423252009
1414.5170324430437 7303.6078405985245
1415.320161879672 7392.354538453306
1416.1230953787435 7538.391599014321
1416.925832993742 7274.988214312466
1417.7283747781275 7197.463440198301
1418.5307207853439 7441.295300116772
1419.3328710688093 7352.419064285341
1420.134825681922 7180.453767938134
1420.9365846780584 7191.907913512218
1421.7381481105713 7427.324129423269
1422.539516032788 7355.481134128946
1423.3406884980232 7122.089023115422
1424.1416655595604 7037.015949982536
1424.942447270665 7229.8434372402335
1425.7430336845828 7301.467129952833
1426.5434248545298 7096.1649510830875
1427.3436208337116 7226.188380375128
1428.143621675301 7418.4661817751285
1428.9434274324558 7322.048861754227
1429.7430381583108 7091.413569044702
1430.5424539059713 7171.306902591152
1431.3416747285337 7595.907162342917
1432.1407006790632 7363.343235910099
1432.9395318106053 7305.406276174396
1433.7381681761835 7159.895289674014
1434.5366098288014 7139.165359870746
1435.3348568214424 7180.858826210095
1436.1329092070573 7065.777802702674
1436.9307670385879 7011.449054097202
1437.7284303689503 7192.636661559661
1438.5258992510335 7391.829082554691
1439.3231737377118 7255.044503070659
1440.1202538818306 7097.79388937486
1440.9171397362225 7270.4364290892745
1441.7138313536925 7298.481597872979
1442.5103287870243 6989.800547023784
1443.3066320889775 7102.797797296955
1444.1027413122956 7262.217980925951
1444.8986565096966 7085.408284652332
1445.694377733882 7183.922440938668
1446.4899050375207 6960.702279238515
1447.2852384732687 7056.825364556767
1448.0803780937622 7284.841598144475
1448.8753239516063 6961.7125250507615
1449.6700760993954 6867.279651159651
1450.464634589689 6937.126762587398
1451.2589994750397 7117.536474636878
1452.0531708079689 6912.379188618821
1452.8471486409799 6683.169552581989
1453.6409330265524 7118.694678481746
1454.4345240171442 6937.681245673036
1455.2279216651987 6907.8721502606295
1456.0211260231263 6934.182503838934
1456.8141371433194 7027.200800696951
1457.6069550781594 7047.4277574631105
1458.3995798799897 6706.511436296978
1459.1920116011424 6843.905775843648
1459.98425029393 6800.883412932245
1460.7762960106338 6739.116127114646
1461.5681488035225 6813.826460557107
1462.3598087248392 6812.815369353608
1463.1512758268036 6968.931129923585
1463.942550161617 6805.76902328304
1464.7336317814625 6667.426074499514
1465.524520738496 6782.768167614993
1466.3152170848552 6733.003803028635
1467.1057208726506 6868.97759937553
1467.8960321539817 6638.367583837195
1468.6861509809169 6543.5637331038015
1469.4760774055085 6654.416417576332
1470.265811479785 6864.6059511943995
1471.055353255755 6585.930159040649
1471.844702785409 6575.930522067513
1472.6338601207044 6635.716004927742
1473.4228253135934 7155.237540490654
1474.2115984159936 6584.2030843518705
1475.0001794798063 6347.2575390150705
1475.7885685569145 6640.116397086051
1476.576765699172 6694.858126556605
1477.3647709584238 6622.056768861819
1478.1525843864802 6736.404369743708
1478.9402060351367 6756.905532881161
1479.7276359561693 6636.64598587364
1480.514874201328 6600.278692465217
1481.3019208223468 6435.393180698587
1482.0887758709323 6536.644324389048
1482.8754393987747 6686.3861163497395
1483.6619114575406 6427.087790073293
1484.4481920988783 6590.16335017634
1485.2342813744108 6733.48223924047
1486.0201793357446 6684.640263166513
1486.8058860344572 6543.476365681687
1487.591401522117 6451.545218001222
1488.3767258502594 6567.359821250742
1489.1618590704056 6577.090836398817
1489.9468012340494 6336.082032483814
1490.7315523926754 6621.609469718385
1491.5161125977356 6691.40612773592
1492.3004819006637 6607.522051080014
1493.084660352877 6425.073897034733
1493.8686480057622 6515.954551122561
1494.6524449106964 6792.386235773675
1495.4360511190262 6695.432011106566
1496.219466682087 6515.353601130023
1497.0026916511779 6593.802382913518
1497.7857260775945 6580.257215868728
1498.5685700125996 6566.081206971883
1499.3512235074395 6577.055159433034
1500.133686613337 6470.094587183042
1500.9159593814966 6445.837062077163
1501.698041863101 6762.968547964713
1502.4799341093094 6400.3065574362745
1503.2616361712662 6346.139396687524
1504.043148100087 6605.4377053018225
1504.8244699468742 6455.300720137174
1505.6056017626997 6385.386467560187
1506.3865435986281 6213.239887966633
1507.1672955056893 6588.822726635257
1507.9478575348967 6372.875442961195
1508.7282297372512 6551.254922115113
1509.5084121637192 6268.033944064491
1510.2884048652577 6481.830695073401
1511.0682078927948 6383.155576864822
1511.8478212972423 6364.329692925769
1512.6272451294917 6239.095584007501
1513.4064794404076 6431.969073304188
1514.1855242808433 6354.6549980330265
1514.9643797016215 6411.903721026434
1515.743045753552 6322.530952820731
1516.5215224874191 6477.210468835993
1517.2998099539836 6167.247030735708
1518.077908203999 6403.749731546189
1518.8558172881785 6302.777384110991
1519.633537257234 6474.108421335579
1520.4110681618404 6351.284863113289
1521.1884100526604 6456.351207550529
1521.9655629803365 6353.274811391995
1522.7425269954856 6524.08759148466
1523.5193021487103 6567.752247073343
1524.2958884905856 6185.563468107236
1525.0722860716687 6234.303017222241
1525.848494942502 6306.939479475704
1526.624515153595 6288.693004446559
1527.4003467554485 6299.235624158992
1528.175989798534 6373.081383256216
1528.9514443333064 6306.689452801673
1529.726710410203 6539.353762375238
1530.5017880796331 6107.503512897074
1531.276677391992 6172.478722471922
1532.0513783976457 6567.452156112007
1532.825891146953 6197.9628557479455
1533.6002156902414 6425.757800521818
1534.3743520778207 6333.645283841717
1535.1483003599806 6339.150440843869
1535.9220605869923 6323.790705525373
1536.6956328091019 6384.217820128944
1537.4690170765407 6333.588217861333
1538.242213439511 6427.104726496331
1539.015221948208 6290.230298045133
1539.78804265279 6257.621279788992
1540.560675603405 6152.850691641261
1541.3331208501804 6465.086599707907
1542.1053784432224 6398.338139376972
1542.8774484326168 6328.656376907367
1543.649330868422 6269.848668777629
1544.4210258006842 6320.665066089254
1545.1925332794308 6233.76398599984
1545.9638533546604 6215.805363378853
1546.7349860763552 6219.527077725613
1547.5059314944829 6557.840429707967
1548.27668965898 6267.118880791281
1549.0472606197673 6339.608675943425
1549.817644426752 6060.261443730731
1550.5878411298072 6302.234573060044
1551.3578507787988 6376.661646733484
1552.1276734235635 6254.833625258522
1552.8973091139233 6248.018097175822
1553.6667578996767 6394.39311699166
1554.436019830604 6257.699521700977
1555.20509495646 6294.2992285002965
1555.9739833269869 6139.785199620898
1556.7426849919011 6166.823078644529
1557.511200000903 6539.721322597927
1558.2795284036674 6198.772155741275
1559.0476702498509 6172.174114864972
1559.8156255890954 6415.719612742431
1560.5833944710157 6367.20497332389
1561.3509769452048 6165.981486158552
1562.1183730612447 6205.8979098076925
1562.8855828686865 6314.510286878897
1563.6526064170703 6425.72606421598
1564.4194437559127 6413.250505192515
1565.1860949347047 6037.833221638458
1565.9525600029283 6448.050952734448
1566.7188390100328 6381.257902698574
1567.4849320054564 6116.857124492935
1568.250839038612 6135.421119301476
1569.0165601588997 6154.908657010358
1569.7820954156887 6260.683908402822
1570.5474448583373 6104.8479870562705
1571.31260853618 6033.412215608323
1572.0775864985299 5938.012034631139
1572.8423787946813 6194.676723779793
1573.6069854739108 6084.175605687702
1574.371406585471 6171.908246881469
1575.1356421785986 6199.736612750547
1575.899692302506 6157.233138919744
1576.6635570063845 6051.9122735002
1577.4272363394157 6040.133244250185
1578.190730350747 6113.640600007576
1578.9540390895163 6115.997953837484
1579.7171626048384 5912.679145113428
1580.480100945806 5881.535778913864
1581.2428541614918 5990.4260808447525
1582.0054223009538 5960.421978230509
1582.767805413223 5980.520710408752
1583.5300035473156 5970.5771441735815
1584.292016752228 6081.078229209558
1585.0538450769309 6094.56431649963
1585.8154885703807 5905.008593545832
1586.5769472815136 5837.721601189395
1587.3382212592405 6016.24398068293
1588.099310552463 6048.21058297668
1588.8602152100484 5811.25976399264
1589.6209352808564 5926.0234292836885
1590.3814708137234 6062.017609281521
1591.14182185746 5553.7787369425005
1591.9019884608679 5926.52570253585
1592.6619706727215 5726.893010022459
1593.4217685417734 5876.127817199691
1594.1813821167616 6026.798482027714
1594.9408114464022 5662.419404469741
1595.7000565793933 5801.184216609714
1596.459117564409 5901.165418870061
1597.2179944501113 5722.4501930647175
1597.9766872851324 5817.460379987446
1598.735196118092 5743.439507440138
1599.4935209975883 5877.569603880356
1600.2516619721973 5982.41817642754
1601.0096190904787 5669.799796947972
1601.7673924009723 5790.978213492968
1602.524981952196 5791.396836521112
1603.2823877926476 5681.223772765517
1604.0396099708087 5604.516565933276
1604.7966485351371 5631.955258961462
1605.5535035340745 5700.477289869688
1606.3101750160404 5831.555916727807
1607.0666630294363 5666.991938751602
1607.822967622642 5408.5878338254715
1608.5790888440224 5673.562456755105
1609.3350267419137 5813.559506258436
1610.0907813646445 5596.20538844329
1610.8463527605145 5649.972123299602
1611.601740977805 5655.98635691264
1612.356946064785 5491.758866424245
1613.1119680696902 5401.747826004512
1613.8668070407512 5345.897834302929
1614.6214630261748 5511.938165483217
1615.375936074137 5502.459132897806
1616.1302262328118 5494.243472737372
1616.8843335503425 5429.5098353946405
1617.638258074854 5347.099708884178
1618.391999854457 5464.541519489163
1619.1455589372363 5569.344605191046
1619.8989353712623 5468.975640644067
1620.65212920458 5244.772269356743
1621.4051404852235 5305.400431034699
1622.1579692611976 5296.239812665151
1622.9106155804966 5181.418531691448
1623.663079491087 5234.069684553309
1624.4153610409248 5415.974314818448
1625.1674602779385 5325.120272236295
1625.9193772500403 5187.870587871514
1626.6711120051277 5472.715708415496
1627.4226645910676 5278.662756477997
1628.174035055721 5047.088152248646
1628.9252234469168 5372.660796480684
1629.676229812474 5136.688936392052
1630.4270542001905 5520.029846154406
1631.1776966578382 5275.91253920522
1631.9281572331747 5226.1474110313475
1632.678435973945 5369.069927617976
1633.4285329278573 5244.377865178268
1634.1784481426203 5162.5344275162015
1634.9281816659113 5154.834969012575
1635.677733545388 5447.115396200541
1636.4271038286934 5162.512560235025
1637.176292563452 5210.855029051569
1637.9252997972635 5277.291710500654
1638.674125577716 5417.361124818095
1639.4227699523672 5571.76135019127
1640.171232968767 5079.72491107659
1640.9195146744423 5271.536483305063
1641.6676151168977 5381.239381163727
1642.4155343436178 5424.8653510452295
1643.1632724020765 5280.939030032282
1643.9108293397167 5291.818226098976
1644.658205203974 5189.803637261172
1645.4054000422566 5702.047712375263
1646.1524139019566 5279.0908509287165
1646.8992468304423 5101.7917846037835
1647.6458988750728 5197.603242999843
1648.3923700831765 5352.982214912606
1649.1386605020743 5192.400368654258
1649.8847701790564 5308.550541125229
1650.6306991614038 5292.5373882035265
1651.3764474963682 5445.177257192563
1652.1220152311944 5014.548795752473
1652.867402413096 5248.387377092943
1653.6126090892776 5072.0611119998075
1654.3576353069184 5408.8417315271745
1655.1024811131829 5192.979799468092
1655.8471465552066 5200.974489173372
1656.5916316801213 5379.930971077383
1657.3359365350298 5218.5543181280345
1658.0800611670165 5087.213569158854
1658.824005623148 5174.749986909068
1659.5677699504722 4997.438916009945
1660.3113541960192 5133.17859938755
1661.054758406799 5050.28224129155
1661.7979826297997 4797.64034399508
1662.5410269119966 4953.796369727861
1663.283891300338 5292.621516054175
1664.0265758417645 4857.984714926216
1664.7690805831826 4999.855504887817
1665.5114055714948 5263.366029496961
1666.2535508535748 5231.881166452493
1666.9955164762814 4732.322685905116
1667.7373024864555 4817.215819313155
1668.478908930916 5084.950274595034
1669.220335856462 4679.4685787256
1669.9615833098778 4804.049612663155
1670.7026513379296 4623.620998094411
1671.44353998736 4743.268422708342
1672.1842493048916 4790.637862611327
1672.9247793372379 4760.731717063822
1673.6651301310812 4794.682020458181
1674.4053017330934 4667.08684361596
1675.1452941899242 4662.469471401859
1675.885107548207 4459.155873110209
1676.6247418545518 4444.439839791716
1677.3641971555535 4661.767760254367
1678.1034734977893 4686.949063128215
1678.8425709278108 4606.991907873655
1679.5814894921605 4681.77784284369
1680.320229237359 4437.086422175623
1681.0587902098978 4664.600925237773
1681.7971724562685 4582.636137118114
1682.5353760229264 4583.321390594171
1683.2734009563173 4543.61022980041
1684.0112473028657 4394.20211989277
1684.7489151089794 4546.4331936014105
1685.4864044210462 4503.951755414471
1686.2237152854377 4244.763624765735
1686.960847748498 4614.0614729409335
1687.6978018565642 4373.1330737684275
1688.434577655944 4334.907352915929
1689.1711751929379 4308.373937746125
1689.9075945138156 4396.566285335975
1690.6438356648396 4295.250725598203
1691.3798986922448 4028.5470635428696
1692.1157836422499 4393.0134418336065
1692.851490561059 4278.444170530343
1693.587019494853 4305.5164386566
1694.3223704897991 4144.107320996817
1695.0575435920364 4113.60340244005
1695.792538847696 4480.100677446824
1696.527356302886 4197.346428908523
1697.2619960036936 4145.244395978736
1697.9964579961907 4276.70079668103
1698.730742326432 3870.613892905578
1699.4648490404488 3883.6508241104043
1700.1987781842563 3981.0148454446294
1700.9325298038548 4268.39013803277
1701.6661039452174 4292.927157612701
1702.3995006543082 4196.562173925974
1703.1327199770658 4169.995888997731
1703.865761959416 3994.4344041141703
1704.598626647261 4278.41023490979
1705.3313140864866 4027.294217765781
1706.0638243229587 4101.4742560375435
1706.7961574025303 4177.331388159712
1707.528313371029 4084.303630703273
1708.260292274268 3783.439984585025
1708.9920941580403 3957.06966624748
1709.7237190681226 4137.320222231063
1710.4551670502697 4002.26723402078
1711.18643815022 3685.4393914634747
1711.9175324136959 4212.047637900764
1712.6484498863938 3929.837895718694
1713.379190614005 3803.269397650876
1714.109754642188 4126.639216498736
1714.8401420165883 3863.1912320347865
1715.570352782839 3815.9384699452216
1716.3003869865497 4041.8792133789802
1717.0302446733076 3868.302097054494
1717.7599258886876 3845.706764769044
1718.4894306782444 4181.918261292877
1719.2187590875183 3777.749377930281
1719.9479111620203 4063.5177704763482
1720.6768869472544 3857.490498808671
1721.4056864887025 4132.600230983344
1722.1343098318284 4109.197324787305
1722.8627570220742 3802.2448216304547
1723.591028104871 3763.476475164842
1724.3191231256242 3762.842843194474
1725.0470421297232 3855.9822223636475
1725.7747851625427 3933.1800649709667
1726.5023522694337 3884.423064209897
1727.2297434957363 3890.323700600573
1727.9569588867635 3611.8946444162566
1728.6839984878152 3958.307578492342
1729.4108623441734 3536.434319953986
1730.1375505011038 3941.8538786013546
1730.8640630038426 3882.9418981080394
1731.5903998976264 3620.3000913350065
1732.316561227657 3875.4245116700026
1733.0425470391274 3713.1194875385677
1733.7683573772065 3848.0845237571607
1734.4939922870508 3785.873530542518
1735.2194518137949 3685.3707607217525
1735.9447360025606 3767.9512133693424
1736.669844898439 3745.2371498123566
1737.3947785465189 3677.9310293733242
1738.1195369918605 3572.752629356836
1738.8441202795093 3702.5128266256443
1739.5685284544943 3767.932761805918
1740.292761561821 3898.2665987678533
1741.0168196464838 3984.92673687478
1741.7407027534518 3668.5246066897766
1742.464410927687 3759.6911590042846
1743.187944214118 3696.8558008377126
1743.9113026576688 3593.4407601825405
1744.634486303241 3734.45415947673
1745.3574951957125 3596.0320114994693
1746.0803293799509 3678.5118581215843
1746.8029889008048 3655.0226403657493
1747.5254738031017 3900.7677448454187
1748.2477841316504 3639.122095923475
1748.969919931249 3664.41867593418
1749.6918812466665 3627.0963628419026
1750.4136681226646 3850.647357919929
1751.1352806039777 3739.8706909835623
1751.856718735331 3565.35365721884
1752.5779825614281 3627.4981324015907
1753.2990721269507 3703.1264067558577
1754.0199874765676 3768.0671598192225
1754.7407286549314 3529.914203570183
1755.4612957066693 3633.5575424044882
1756.1816886763954 3568.3984982219276
1756.9019076087097 3686.399284379736
1757.6219525481865 3777.5608226256436
1758.3418235393856 3736.122101860333
1759.061520626854 3763.996731669791
1759.7810438551096 3794.78122868783
1760.5003932686614 3541.7269350514944
1761.2195689119999 3837.42104863126
1761.938570829594 3498.7730950457653
1762.657399065898 3716.582327695121
1763.376053665348 3542.1318671295767
1764.0945346723602 3572.1164536494407
1764.812842131334 3667.712094651449
1765.5309760866512 3487.350650093608
1766.2489365826787 3626.0471187659577
1766.9667236637597 3538.785404445619
1767.684337374223 3330.6997591259633
1768.401777758383 3326.2520542594984
1769.1190448605284 3441.4045774711826
1769.836138724937 3402.4468022128253
1770.5530593958665 3752.0734305659666
1771.2698069175603 3721.399234192427
1771.9863813342326 3612.6933127910524
1772.702782690094 3452.6499133867246
1773.4190110293293 3648.874887141086
1774.1350663961111 3756.670229507301
1774.8509488345844 3545.1662177682724
1775.5666583888924 3557.4313186191457
1776.2821951031437 3783.6778437351422
1776.9975590214362 3464.826386200236
1777.7127501878585 3744.8959784960825
1778.4277686464684 3633.936099519956
1779.1426144413108 3749.811563844128
1779.8572876164162 3648.755041442345
1780.571788215797 3570.2261592904856
1781.2861162834415 3700.649296907064
1782.0002718633277 3463.822707936476
1782.7142549994132 3501.076214903232
1783.4280657356376 3629.3482501915378
1784.141704115922 3405.925207838144
1784.855170184177 3580.701157380353
1785.5684639842839 3511.5161268733145
1786.2815855601148 3204.374171997049
1786.9945349555237 3514.1207905139863
1787.707312214343 3488.414805158655
1788.4199173803918 3741.6743502680088
1789.132350497468 3340.3163439120276
1789.8446116093583 3340.395663171774
1790.556700759822 3448.8176610939213
1791.2686179926077 3301.303350721744
1791.9803633514493 3565.7100706142664
1792.6919368800554 3360.9278035787056
1793.4033386221236 3638.126424279961
1794.1145686213295 3505.5538701178243
1794.8256269213307 3820.9900551915002
1795.536513565774 3598.9484833475262
1796.247228598284 3211.632570707338
1796.9577720624693 3465.292272545492
1797.6681440019165 3432.697402688426
1798.3783444602013 3441.8741636077584
1799.0883734808776 3507.723865586223
1799.7982311074884 3680.609596454194
1800.5079173835475 3310.1519392776563
1801.2174323525633 3670.0627107096116
1801.9267760580187 3514.973519009829
1802.635948543386 3599.9842929010724
1803.3449498521113 3362.4793970690757
1804.0537800276325 3488.681360430547
1804.7624391133668 3461.0264742690015
1805.47092715271 3309.102202809915
1806.1792441890484 3313.746010886515
1806.8873902657433 3557.4039453598825
1807.5953654261448 3500.137695869762
1808.3031697135812 3345.6410195973667
1809.0108031713662 3329.7492145808815
1809.71826584279 3417.7529899317315
1810.425557771141 3405.8507695589287
1811.1326789996747 3851.893535431859
1811.839629571632 3420.621438943781
1812.5464095302468 3431.494452133412
1813.2530189187182 3532.325931789738
1813.959457780249 3367.7444940623222
1814.6657261580076 3502.7264739924663
1815.371824095153 3402.2895599279427
1816.0777516348262 3530.8092504894057
1816.78350882015 3256.5715089867863
1817.4890956942272 3375.3278506302827
1818.1945123001533 3260.814050888878
1818.8997586809928 3487.891704445162
1819.6048348798067 3289.60070475931
1820.3097409396287 3296.4165174198706
1821.0144769034796 3617.6488540444057
1821.7190428143622 3391.8928184990823
1822.423438715261 3665.224474117446
1823.1276646491478 3312.1005381210416
1823.8317206589727 3394.5441656540593
1824.5356067876692 3347.5129755265016
1825.2393230781581 3417.1912080065376
1825.942869573335 3234.6804650645167
1826.646246316086 3269.846954363403
1827.3494533492758 3457.2647151567617
1828.052490715756 3356.3175679618807
1828.7553584583547 3312.6132846333626
1829.458056619891 3383.4396468604327
1830.1605852431585 3156.406331988828
1830.8629443709433 3249.3871940411345
1831.5651340460063 3383.8868280639776
1832.2671543110919 3399.837765328687
1832.9690052089318 3312.2706109906685
1833.6706867822395 3115.140387533548
1834.3721990737104 3529.49285020423
1835.0735421260233 3441.180086423491
1835.774715981841 3449.7554473056857
1836.4757206838058 3617.5331968419864
1837.1765562745459 3074.0517826044024
1837.8772227966747 3125.505445876681
1838.5777202927839 3431.0292247183993
1839.2780488054523 3195.7499359644135
1839.9782083772352 3226.833120936575
1840.6781990506806 3572.2057450536545
1841.378020868313 3303.0343877849928
1842.0776738726418 3366.261699100122
1842.777158106157 3288.64206105609
1843.4764736113375 3184.267076601359
1844.1756204306403 3364.665070997065
1844.8745986065078 3332.467785517838
1845.5734081813607 3128.2405426813357
1846.2720491976124 3038.1026704486594
1846.970521697649 3223.229934575652
1847.6688257238511 3331.4382128920943
1848.3669613185684 3301.8012795795366
1849.0649285241452 3109.908503678073
1849.7627273829057 3250.5331285787606
1850.460357937156 3409.43506956303
1851.1578202291857 2875.32179356534
1851.8551143012664 3283.369970584882
1852.5522401956569 3315.6868134551687
1853.2491979545957 3502.823653615282
1853.9459876203055 3066.2806065051263
1854.6426092349902 3130.553853110966
1855.3390628408451 3213.4201076975555
1856.0353484800362 3390.740374307575
1856.7314661947203 3420.032212714227
1857.4274160270397 3141.871540211658
1858.123198019115 3192.786470328059
1858.8188122130487 3203.1060529302877
1859.5142586509319 3272.314259824853
1860.209537374838 3114.5097005586777
1860.9046484268183 3186.298672411317
1861.599591848917 3397.0533736937555
1862.294367683151 3112.0277368002135
1862.988975971528 3247.3065813342064
1863.6834167560355 3332.281281299748
1864.3776900786452 3284.145013039425
1865.0717959813119 3102.638319536999
1865.7657345059724 3121.440292305138
1866.4595056945564 3294.7817842585596
1867.1531095889586 3323.550345612054
1867.846546231076 3193.430783793677
1868.5398156627743 3373.6934520677264
1869.2329179259123 3316.1964086153735
1869.9258530623283 3427.696266445467
1870.618621113843 3057.021875206822
1871.3112221222636 3040.1947455554136
1872.0036561293764 3145.3278968793807
1872.695923176956 3294.4980352325088
1873.3880233067594 3368.21324005833
1874.0799565605212 3112.8288394048113
1874.7717229799673 3126.676030970617
1875.4633226068036 3348.6734475675185
1876.1547554827175 3237.5568010911984
1876.8460216493859 3094.4855691782122
1877.5371211484617 3155.3387249370376
1878.2280540215852 3352.4811773183924
1878.9188203103804 2930.2352632698776
1879.6094200564548 3274.491787544712
1880.299853301396 3098.8076453299745
1880.9901200867826 3307.0010005196623
1881.6802204541673 3190.489176875103
1882.3701544450942 3153.725607558605
1883.059922101087 3137.311803040987
1883.7495234636517 3344.170756795109
1884.4389585742792 3190.6301322626587
1885.1282274744517 3047.531323158958
1885.8173302056166 3618.4234703763714
1886.506266809225 3070.3333163286775
1887.195037326701 2897.4247583437673
1887.8836417994517 3213.9453940000394
1888.5720802688702 3468.4029256970557
1889.260352776333 3219.558815267174
1889.9484593632042 3308.0027677982
1890.63640007082 3127.806043283098
1891.3241749405151 3147.3851602008735
1892.0117840135954 3283.734793622275
1892.6992273313572 3119.373630355901
1893.3865049350788 2980.792088145127
1894.0736168660223 3463.725233742983
1894.7605631654333 3121.489584688683
1895.4473438745408 2976.858610954756
1896.133959034556 3354.020135480185
1896.820408686679 3124.2091949129695
1897.506692872088 3351.790456626374
1898.192811631945 3166.704601814706
1898.8787650073991 3173.0784497835257
1899.5645530395832 3303.4833945793007
1900.2501757696118 3356.3931343262643
1900.9356332385796 3046.3867002970937
1901.620925487574 3359.8386002471
1902.3060525576602 3163.2481037878815
1902.9910144898859 3277.132167183957
1903.6758113252872 2954.1197750553333
1904.3604431048789 3141.1515744189137
1905.0449098696663 3208.3932203122886
1905.7292116606295 3034.0778104836554
1906.4133485187394 3152.495863846019
1907.0973204849488 2687.8691361601827
1907.7811276001976 3046.741018998255
1908.4647699053967 3094.787128802279
1909.1482474414588 3017.1721399801904
1909.8315602492694 2933.75209156471
1910.5147083696957 3242.3014800989586
1911.1976918436012 3119.9701867847393
1911.880510711815 2931.02795900154
1912.5631650151681 3166.203774367858
1913.2456547944657 3002.603867897563
1913.927980090495 2992.7372547823247
1914.6101409440362 2984.705278569207
1915.2921373958416 3050.572501656034
1915.9739694866603 3071.299979941521
1916.655637257214 3394.5492770760875
1917.3371407482136 3057.430738347203
1918.0184800003572 3191.262381074372
1918.6996550543154 3169.4796162967186
1919.3806659507554 3091.8737065590954
1920.0615127303208 3332.3723674951884
1920.7421954336423 3167.1405763809285
1921.4227141013343 3288.734854621022
1922.103068773993 2972.5040276281547
1922.783259492202 3242.016179961741
1923.4632862965227 2970.239665313494
1924.1431492275078 2878.961982217685
1924.8228483256917 2961.994602807752
1925.5023836315922 3166.5339725220383
1926.1817551857057 2695.7471792448187
1926.8609630285227 3207.960057696517
1927.5400072005123 3120.0045427505875
1928.218887742125 2827.1264395498956
1928.8976046938005 2739.944900069048
1929.5761580959588 3032.5192514977634
1930.2545479890086 3193.5701716098406
1930.9327744133352 2763.091151547029
1931.6108374093164 3071.2046691705787
1932.2887370173066 3300.922489606101
1932.9664732776473 2610.6471569622604
1933.6440462306673 2894.948016381341
1934.3214559166754 2912.2797492291493
1934.9987023759659 3204.894359317367
1935.675785648813 2976.1756015672904
1936.3527057754836 2773.5232586925677
1937.029462796223 3108.644703677973
1937.70605675126 2902.955140748896
1938.3824876808085 3029.8182635033972
1939.058755625072 2782.7793003627035
1939.7348606242267 2907.0427458683384
1940.4108027184448 3044.9760290579284
1941.0865819478713 3250.113923178071
1941.7621983526478 2686.5351193456722
1942.4376519728921 2789.203966582403
1943.1129428487038 2757.818693398008
1943.7880710201734 2997.9530072744788
1944.4630365273733 3052.1031051645828
1945.1378394103576 2711.872123088346
1945.8124797091714 2651.5386711001306
1946.4869574638324 2590.992703244708
1947.161272714353 2945.581069472667
1947.8354255007234 3021.687232155878
1948.5094158629272 2977.0635726741625
1949.1832438409183 3153.8670605285943
1949.8569094746435 3028.8834399247144
1950.530412804037 3018.992824789289
1951.2037538690092 3129.3535163202273
1951.8769327094578 2958.324470413615
1952.5499493652678 2875.3434896189838
1953.222803876306 3107.1799870307996
1953.895496282421 2889.620363839706
1954.5680266234522 2933.5643283351083
1955.2403949392155 2979.391435841128
1955.9126012695142 2693.6268531400247
1956.5846456541403 2885.6157930919762
1957.2565281328643 2790.8172537101223
1957.9282487454457 2968.5892054894844
1958.5998075316202 3277.758699349232
1959.27120453112 2906.4571828935887
1959.9424397836501 2867.6376583088486
1960.613513328908 3077.7429774366865
1961.2844252065697 3100.81072223921
1961.9551754563017 2990.3201903261784
1962.6257641177453 2702.7078490396175
1963.29619123054 2848.081725094661
1963.966456834296 2717.0889309716285
1964.6365609686181 2676.382560808598
1965.306503673086 2922.1148892136425
1965.976284987275 2961.118941592499
1966.645904950734 2912.3409951621147
1967.315363603002 2625.7159579409567
1967.9846609836077 2841.9381592459868
1968.6537971320486 3063.130333657614
1969.3227720878222 2794.585559651935
1969.9915858904042 2846.828033157498
1970.660238579252 2977.21691144848
1971.3287301938108 2978.3971816138555
1971.997060773514 2528.907012719768
1972.665230357772 2797.638542459617
1973.3332389859843 2610.5377447606725
1974.0010866975335 2777.1966112733567
1974.6687735317864 2930.3863429082135
1975.3362995280932 2983.567671854588
1976.003664725793 2945.2946358078125
1976.6708691642052 2453.3194484399983
1977.3379128826364 2853.998663513363
1978.004795920373 2957.3041703399435
1978.6715183166925 3198.092301745165
1979.3380801108524 2496.173238543424
1980.0044813420973 2910.5881816917167
1980.6707220496555 2664.9805140795315
1981.3368022727373 2807.7612703711993
1982.0027220505417 2970.9883709100714
1982.66848142225 2470.399676545694
1983.3340804270283 2632.0006121921506
1983.999519104027 2792.0159688734298
1984.6647974923835 2971.455111658385
1985.329915631215 3026.6694638155236
1985.99487355963 2793.3348236432253
1986.6596713167146 2996.205714224015
1987.3243089415428 2749.062068202612
1987.9887864731754 2900.638463258551
1988.6531039506553 2669.010702954419
1989.3172614130071 3100.485965425372
1989.9812588992481 2876.7793144160596
1990.645096448372 2746.81152673109
1991.3087740993633 2823.2195741031387
1991.9722918911848 2852.170718440514
1992.635649862792 2755.4178248737026
1993.2988480531185 2882.9435569795664
1993.9618865010852 3163.276338218174
1994.6247652455968 2678.1643914269016
1995.287484325545 2554.772980711664
1995.9500437798033 2945.176779594017
1996.6124436472292 2689.3308973309076
1997.2746839666706 2990.013616284855
1997.936764776954 2791.0071994624727
1998.598686116895 2798.4621937588913
1999.2604480252903 3182.3514895966546
1999.9220505409212 2672.4805431217346
2000.5834937025593 2591.0810402354123
2001.2447775489582 2659.5940335075757
2001.9059021188514 2819.713044939221
2002.5668674509616 2630.3535858242276
2003.2276735839987 2730.4069466130186
2003.8883205566508 2998.745844139988
2004.5488084075987 2643.270626544247
2005.2091371755014 2701.951969737554
2005.8693068990033 2617.0068613846365
2006.5293176167397 2913.2142818466173
2007.1891693673224 2619.392739058821
2007.848862189354 2533.7927373105463
2008.5083961214223 2694.3902825935133
2009.1677712020955 2687.0887655903916
2009.8269874699254 2479.018941694444
2010.4860449634598 3032.5870517042863
2011.1449437212177 2355.0404797240217
2011.8036837817108 2953.0867475499927
2012.4622651834325 3000.2849367581434
2013.1206879648653 2863.2355813319
2013.7789521644736 3051.3268576092673
2014.4370578207036 2606.9808254912587
2015.0950049719922 2568.812485138683
2015.7527936567585 2855.316474026822
2016.4104239134067 2750.7002863803364
2017.067895780323 3134.374313962075
2017.725209295886 3106.9931185781784
2018.3823644984514 3079.460043188078
2019.0393614263648 2792.624727567924
2019.6962001179545 2527.3092553250754
2020.3528806115355 2958.867255495633
2021.0094029454067 2615.212539720592
2021.6657671578487 2677.5513968288296
2022.321973287133 2650.3210449230774
2022.9780213715148 2699.1739574843236
2023.6339114492293 2591.7180209945855
2024.2896435585026 2676.3907748986812
2024.9452177375442 2699.059785060241
2025.600634024544 2904.0885420975824
2026.2558924576842 2767.5967659783014
2026.9109930751292 2819.9545504252405
2027.565935915025 2589.7010443870977
2028.2207210155066 2972.919306881815
2028.8753484146964 3022.5215831919004
2029.529818150695 2526.5981363831083
2030.1841302615903 2820.7469851493015
2030.8382847854573 2518.0567224499446
2031.4922817603601 2583.946033763617
2032.1461212243357 2752.6629336167975
2032.7998032154192 2380.83894207795
2033.4533277716218 2727.991111470238
2034.1066949309443 2501.9898967192908
2034.7599047313688 2622.853212252101
2035.4129572108704 3029.883332937031
2036.0658524074006 2813.003687458844
2036.7185903589016 2708.2453690834705
2037.3711711032956 2842.81139891723
2038.023594678496 2668.6908798519353
2038.675861122394 2484.5633675165327
2039.3279704728757 2836.884710364184
2039.9799227678031 2361.740295632069
2040.6317180450278 2563.2201274890813
2041.2833563423865 2693.109208896292
2041.9348376977014 2719.900579939199
2042.5861621487784 2703.2283835413737
2043.2373297334088 2762.116523810849
2043.8883404893695 2721.5919802278977
2044.5391944544208 2863.8881159177645
2045.1898916663158 2787.058493404108
2045.8404321627804 2913.446264837375
2046.4908159815368 2606.4985171643984
2047.1410431602853 2491.6134741672126
2047.7911137367173 2321.503463564582
2048.441027748504 2726.380988050606
2049.090785233302 2527.9443708257195
2049.7403862287592 2676.114369820677
2050.389830772503 2913.1553703659238
2051.0391189021466 2326.976864688582
2051.688250655294 2640.7196173274665
2052.337226069527 2392.6041686377635
2052.986045182417 2749.9026841648365
2053.634708031521 2274.4080975113343
2054.283214654375 2806.144809944222
2054.931565088511 2371.932658999724
2055.579759371436 2547.915214246499
2056.2277975406523 2682.253570860763
2056.8756796336384 2491.37961708358
2057.5234056878617 2299.929339186291
2058.1709757407752 2381.3942752399826
2058.8183898298194 2741.2231718846456
2059.465647992416 2712.3577437174536
2060.1127502659747 2752.3904627027655
2060.759696687888 2468.2508319321178
2061.4064872955405 2871.983546383622
2062.053122126292 2882.623518075594
2062.699601217497 2281.236713696176
2063.345924606485 2599.395856221696
2063.992092330587 2715.9791727693473
2064.638104427102 2611.470951327959
2065.283960933324 2797.5827611375653
2065.92966188653 2779.4478949479953
2066.5752073239855 2761.321421723817
2067.2205972829397 2522.667722210911
2067.86583180062 2511.272839525839
2068.5109109142522 2568.1638445971976
2069.15583466104 2575.6176364715457
2069.8006030781708 2583.0809875393447
2070.445216202821 2742.6434415889794
2071.089674072153 2898.9087133757207
2071.7339767233116 2656.1813474226774
2072.3781241934303 2756.668713913818
2073.0221165196253 2728.3228855224656
2073.6659537390024 2666.9238716330915
2074.3096358886505 2693.5485772334882
2074.953163005637 2473.341057822326
2075.596535127028 2437.1276620696835
2076.2397522898664 2502.7987256096103
2076.882814531182 2605.220912145697
2077.5257218879924 2805.2042043224387
2078.1684743973 2498.4363153250206
2078.8110720960885 2497.6906509596274
2079.453515021336 2904.578935283148
2080.095803209997 2703.999105240565
2080.7379366990135 2654.866777149811
2081.37991552532 2560.752523284646
2082.0217397258275 2700.1352787000455
2082.6634093374414 2330.7526105487113
2083.3049243970418 2537.115647403001
2083.9462849415067 2660.8909359809427
2084.587491007689 2582.0050923194995
2085.2285426324324 2601.3352309582056
2085.869439852564 2720.2168497714397
2086.510182704902 2320.1239410736302
2087.1507712262483 2571.0114628698284
2087.791205453381 2415.655525810877
2088.4314854230743 2853.6202491413915
2089.0716111720867 2555.414915859315
2089.7115827371617 2277.645951133423
2090.351400155023 2367.951131088641
2090.991063462385 2458.537188462766
2091.6305726959527 2463.2578140565065
2092.2699278924047 2963.5524903823216
2092.9091290884153 2686.6249349416275
2093.548176320641 2427.855598990419
2094.187069625721 2594.2530543417083
2094.8258090402887 2282.1491798140523
2095.464394600951 2839.066180442768
2096.102826344313 2581.702721467932
2096.741104306955 2872.3729590365824
2097.379228525453 2347.5430562651545
2098.017199036358 2363.1052793532776
2098.6550158762147 2885.4831438130614
2099.2926790815527 2704.572892399822
2099.9301886888825 2638.980310373775
2100.5675447347076 2657.163767326246
2101.2047472555114 3049.4156013615084
2101.841796287761 2469.661352327959
2102.47869186792 2630.0674181215654
2103.1154340324265 2630.535043555673
2103.752022817709 2356.412130294781
2104.388458260184 2577.976990077466
2105.024740396251 2754.7854472852273
2105.660869262292 2336.8388146144353
2106.296844894685 2815.9641459038876
2106.93266732978 2522.765914973775
2107.5683366039284 2249.2854877725667
2108.2038527534532 2432.9892254479278
2108.8392158146726 2843.9736954329323
2109.4744258238843 2607.2816825517484
2110.1094828173755 2588.9600544640966
2110.744386831422 3092.1843715502446
2111.3791379022787 2674.1179084996684
2112.01373606619 2868.4767886101795
2112.648181359389 2556.648475920541
2113.28247381809 2736.7689025299555
2113.916613478492 2496.549309978927
2114.550600376786 2624.6223878371097
2115.1844345491445 2711.5323799150697
2115.818116031729 2392.1239018299716
2116.451644860679 2490.843732180173
2117.085021072133 2258.0319166445342
2117.718244702204 2539.606492750229
2118.3513157869984 2407.5299715784613
2118.984234362604 2426.687763780253
2119.617000465092 2553.439709896684
2120.249614130529 2811.340240535929
2120.8820753949585 2486.401043227307
2121.5143842944162 2457.791314358642
2122.14654086492 2316.3740378544508
2122.7785451424734 2591.424319281678
2123.4103971630702 2241.2822872620372
2124.042096962681 2676.265251756137
2124.6736445772767 2529.3313273540803
2125.305040042802 2430.2874020870254
2125.936283395191 2667.2862771095015
2126.567374670365 2568.021210490161
2127.198313904233 2383.9777349733013
2127.8291011326855 2376.682930027905
2128.4597363916037 2369.0904304538244
2129.0902197168507 2323.9183985739214
2129.720551144279 2343.1559638191725
2130.3507307097225 2699.6762636474296
2130.980758449008 2897.020183845972
2131.6106343979427 2770.9424159906985
2132.2403585923203 2644.5792400434966
2132.8699310679276 2836.841889839042
2133.499351860526 2519.8310006800134
2134.1286210058715 2683.4470394627238
2134.7577385397053 2291.1355521571595
2135.3867044977487 2688.8310107137413
2136.0155189157176 2765.5800117281055
2136.644181829308 2587.1724763851553
2137.2726932742025 2465.0548820200884
2137.901053286074 2806.894066151087
2138.5292619005777 2494.2269253015315
2139.1573191533535 2601.9417778092684
2139.7852250800315 2737.5698690887025
2140.4129797162295 2610.4621285198555
2141.0405830975433 2261.4480978365946
2141.6680352595613 2282.5135261983023
2142.2953362378576 2303.645287449602
2142.9224860679915 2476.443998585061
2143.549484785508 2339.760142928831
2144.1763324259373 2673.6859557196503
2144.803029024799 2531.7711262065204
2145.429574617594 2416.1003507602954
2146.0559692398165 2712.561583187531
2146.682212926942 2292.8923099373396
2147.308305714432 2251.210239070291
2147.9342476377333 2800.724947865301
2148.5600387322847 2670.0175416766615
2149.185679033506 2595.234535518006
2149.8111685768017 2505.2257059561207
2150.4365073975678 2331.1562204467077
2151.061695531187 2482.493205000156
2151.686733013021 2718.6568218286334
2152.311619878423 2446.5209174922215
2152.9363561627342 2446.514587055741
2153.560941901278 2310.5869759392986
2154.1853771293663 2707.7430988329497
2154.809661882293 2659.84881252095
2155.433796195348 2732.2670033230524
2156.0577801037944 2597.5202274732815
2156.681613642895 2700.235283100328
2157.3052968478896 2563.637622492685
2157.928829754006 2465.504897163234
2158.552212396462 2651.846015489275
2159.1754448104566 2441.8979426234246
2159.7985270311783 2150.793384565522
2160.4214590938027 2099.375398996519
2161.0442410334927 2155.192512652704
2161.6668728853874 2420.4970535946254
2162.289354684628 2245.581330771739
2162.911686466332 2351.1402422178217
2163.533868265602 2706.782449635254
2164.1559001175337 2868.53340906815
2164.7777820572046 2624.4191851887717
2165.399514119681 2355.1583520128897
2166.021096340013 2522.630151430087
2166.6425287532384 2159.273052954447
2167.263811394385 2336.146913403569
2167.8849442984574 2558.4679402098145
2168.505927500455 2136.05528688095
2169.126761035366 2445.287711896511
2169.7474449381552 2431.3560312096074
2170.367979243778 2121.7804071820974
2170.9883639871823 2633.190891828082
2171.608599203293 2345.478225498601
2172.2286849270276 2841.497146938191
2172.8486211932886 2968.976964934994
2173.4684080369625 2378.568676342865
2174.0880454929265 2319.560964602652
2174.7075335960417 2212.811068235109
2175.3268723811543 2637.474486338272
2175.9460618831 2300.4741455188423
2176.565102136701 2340.5631505878046
2177.1839931767627 2318.408853999171
2177.802735038078 2296.2293059800236
2178.421327755432 2220.7366916230544
2179.0397713635866 2332.9510051883703
2179.658065897298 2213.1371184628833
2180.276211391305 2527.2149266350575
2180.8942078803357 2159.5971526152643
2181.5120553991 2388.410693708301
2182.129753982299 2259.662623201105
2182.7473036646206 2609.87361476963
2183.3647044807367 2444.8727134291503
2183.9819564653044 2256.7059911180686
2184.599059652968 2510.037408624849
2185.216014078367 2656.114883466044
2185.832819776113 2102.943640990796
2186.4494767808137 2551.5524852033154
2187.065985127063 2466.313591183264
2187.682344849436 2348.146042619512
2188.298555982501 2630.9329341112884
2188.9146185608097 2468.8961546784076
2189.530532618901 2396.1788079380394
2190.1462981912937 2445.6919950920646
2190.761915312507 2623.249537104519
2191.377384017036 2441.7422469532694
2191.9927043393654 2403.127863703177
2192.6078763139667 1922.5132012957438
2193.2228999753006 2066.462963732101
2193.837775357808 2210.7398115156752
2194.452502495922 2059.7339559415636
2195.0670814240602 2265.9332952380055
2195.6815121766285 2203.7754377376104
2196.2957947880186 2263.642118615763
2196.9099292926057 2323.6375315615173
2197.523915724758 2610.7316356073416
2198.137754118825 2361.541515718797
2198.7514445091456 2657.735270709655
2199.3649869300443 2259.217546382726
2199.9783814158327 2563.0874602269587
2200.5916280008096 2953.5358185920218
2201.2047267192593 2627.5894183667983
2201.8176776054515 2578.2070699242386
2202.430480693649 2246.8631070226056
2203.0431360180955 2269.2263054718387
2203.6556436130195 2677.3219501812846
2204.268003512645 2651.6652042591195
2204.8802157511727 2626.0581115125087
2205.492280362796 2642.43254203054
2206.1041973816937 2387.3134415991362
2206.715966842032 2341.746810246956
2207.3275887779655 2170.966756448095
2207.93906322363 2308.808686231022
2208.550390213153 2604.316812700336
2209.1615697806465 2357.5557494096965
2209.7726019602105 2069.0747221253823
2210.3834867859277 1977.3696099403344
2210.9942242918787 2424.6620709563726
2211.6048145121167 2252.022824757027
2212.2152574806914 3105.138068849897
2212.825553231638 2440.5493767926087
2213.435701798975 3089.609965274693
2214.045703216707 2274.7928420809308
2214.655557518832 2181.57366903939
2215.2652647393297 2026.157409650803
2215.874824912169 1957.303726430007
2216.4842380713 2002.9049119825136
2217.09350425067 2048.7690253707788
2217.7026234842033 2260.7549433024924
2218.311595805819 2563.0943395023496
2218.9204212494133 2312.024253674101
2219.52909984888 2218.881812910666
2220.137631638092 2125.36679651682
2220.7460166509154 2525.7285976562107
2221.354254921198 2492.2999727155816
2221.9623464827764 2349.670491188345
2222.5702913694713 2373.396091647551
2223.178089615096 2326.717290523941
2223.7857412534486 2182.0871260990493
2224.39324631831 2237.406775652061
2225.000604843457 1994.3144983868624
2225.607816862641 2664.1671018797783
2226.214882409611 2556.5425602081127
2226.8218015180973 2425.4551652013306
2227.4285742218217 2289.6577971933857
2228.0352005544864 2636.877843497004
2228.6416805497847 2234.3655841253694
2229.248014241399 2406.480333840726
2229.8542016629945 2521.529435115922
2230.460242848223 2636.7478959165646
2231.0661378307304 2837.063159798632
2231.671886644139 2423.53208917136
2232.277489322065 2056.030259779101
2232.8829458981127 1962.8514130120086
2233.48825640587 2311.7921801631046
2234.0934208789095 2755.819582248744
2234.6984393507955 2588.6977754548157
2235.3033118550793 2896.604942985766
2235.9080384252975 2414.4319532232385
2236.5126190949723 2137.4607953397854
2237.1170538976166 2089.494795533085
2237.721342866729 2206.714117651929
2238.32548603579 2324.1286178460236
2238.9294834382763 2268.8882199475333
2239.533335107646 2000.9964397291005
2240.1370410773434 2095.7130824257983
2240.740601380803 2190.570783437598
2241.3440160514474 2314.2488439214294
2241.9472851226783 2380.8219706764635
2242.550408627896 2085.5321140700626
2243.1533866004793 2689.690233806776
2243.756219073799 2531.3349000253597
2244.3589060812064 2104.2111447327734
2244.961447656049 2063.268661470481
2245.5638438316564 2334.1751181321574
2246.166094641343 2376.3293152082592
2246.7682001184166 2349.021345555181
2247.3701602961664 2194.21058869826
2247.971975207871 2399.6712513046964
2248.5736448867974 2681.237369753612
2249.175169366197 2474.1107995432003
2249.7765486793123 2343.843297259268
2250.3777828593684 2382.9633362757904
2250.9788719395783 2421.984364608905
2251.579815953146 2159.6814947826406
2252.1806149332606 2249.1053436065063
2252.781268913097 2226.59332648777
2253.381777925817 2042.6721820430419
2253.9821420045737 2293.572106157281
2254.5823611825035 2580.723806534722
2255.1824354927303 2348.8780110292423
2255.782364968365 2261.341494809982
2256.38214964251 2173.754284043549
2256.9817895482483 2226.36996128077
2257.5812847186553 2477.3030307544973
2258.180635186791 2042.1026975600828
2258.779840985704 2275.402090111246
2259.37890214843 2307.4881881434135
2259.97781870799 2761.4495697886878
2260.5765906973957 2305.583660741286
2261.175218149645 2167.3030995986437
2261.773701097718 2142.02034538866
2262.3720395745895 2116.6373364584138
2262.970233613216 2004.9012936566571
2263.568283246548 2082.1711650361785
2264.1661885075137 2003.405773289263
2264.763949429038 2217.108266028837
2265.3615660440246 2470.524766484409
2265.959038385374 2085.056234897843
2266.5563664859637 2395.0259306648964
2267.153550378669 2103.3851234403337
2267.7505900963424 2321.2675628160305
2268.3474856718312 2128.3935903263573
2268.9442371379664 2322.6042950715937
2269.5408445275643 2062.456856397855
2270.1373078734377 2371.780497195842
2270.7336272083758 2213.6950873730357
2271.32980256516 2226.7572234510208
2271.925833976562 2189.2054997814657
2272.5217214753357 2561.2121474189253
2273.117465094223 2115.263251623585
2273.7130648659586 2108.1151307514133
2274.308520823257 2404.1122667558875
2274.903832998827 2409.537122353665
2275.4990014253563 2429.600653545139
2276.094026135528 2449.657130543155
2276.6889071620117 2147.5740811154674
2277.2836445374614 2467.9538807981808
2277.878238294519 2350.8199507243203
2278.472688465812 2210.162083129494
2279.066995083962 2069.217371761483
2279.6611581815705 2173.088196590872
2280.255177791232 1991.5755082708201
2280.8490539455233 2225.3704930076156
2281.442786677013 2459.68578214741
2282.0363760182554 2405.9388739262586
2282.6298220017943 2257.2417112857993
2283.223124660155 2385.9245966269173
2283.816284025859 2143.504516887767
2284.4093001314086 1920.9392522648461
2285.002173009292 2577.989056913989
2285.5949026919952 2387.566015943718
2286.1874892119777 2100.196387912847
2286.7799326016993 2331.7566142366436
2287.3722328936 1916.147206557473
2287.964390120109 1941.6282825124003
2288.556404313642 2332.3323742691873
2289.1482755066027 2591.194560489102
2289.7400037313873 2173.7357434769606
2290.3315890203703 2128.088753594922
2290.9230314059205 2103.713825731361
2291.5143309203904 2079.36479947114
2292.1054875961236 1959.3370060045158
2292.6965014654506 2194.0022047090215
2293.287372560684 2246.9242406612784
2293.878100914131 2165.9595297888345
2294.468686558086 2084.8916553465956
2295.059129524827 2295.5624175078733
2295.649429846617 2608.5872762178833
2296.239587555716 2657.6009322726977
2296.8296026843636 2333.186834006515
2297.419475264791 2761.886802962719
2298.0092053292137 2283.1781649324193
2298.598792909839 2267.489458073513
2299.1882380388597 2533.4425275727926
2299.777540748455 2298.0803001431786
2300.3667010707904 2589.767508145482
2300.9557190380256 2233.519922338021
2301.544594682302 2591.0920215527494
2302.1333280357503 2637.4347809464616
2302.721919130485 2683.874730642775
2303.3103679986198 2593.857464800206
2303.898674672242 2437.9976298443535
2304.486839183437 2001.9859555343533
2305.0748615642697 2440.695038880371
2305.6627418468015 2122.13853490956
2306.2504800630704 2168.1117221924383
2306.8380762451143 2241.7460882842274
2307.425530424949 2318.801438049294
2308.012842634582 2396.015586597242
2308.6000129060103 2431.1936575282393
2309.187041271214 2272.318057952453
2309.773927762164 2113.116771548553
2310.3606724108213 2539.014055362285
2310.9472752491274 2038.3009388420408
2311.5337363090184 2189.3683925849223
2312.120055622414 2196.996485512744
2312.706233221221 2134.279951214391
2313.2922691373424 1927.1941658705625
2313.8781634026564 1949.2468342152617
2314.463916049037 1971.323449746662
2315.049527108342 2304.230013426134
2315.6349966124235 2601.661984589181
2316.2203245931123 2558.533279918768
2316.8055110822315 1940.964393000218
2317.3905561115935 2227.294245207273
2317.9754597129977 2269.4686844690245
2318.560221918229 2311.755425941168
2319.1448427590603 2148.6386726043083
2319.729322267256 1867.3907446632504
2320.313660474563 2188.7464972486828
2320.8978574127195 2810.530893966224
2321.481913113452 2286.1725484597946
2322.0658276084705 1753.795817332159
2322.6496009294806 2220.749938269807
2323.233233108165 2786.0845531700456
2323.8167241762058 2515.223787509091
2324.4000741652617 2481.7512151641777
2324.983283106987 2708.409054309208
2325.5663510330232 2484.606922821757
2326.1492779749933 2337.455348963801
2326.7320639645204 2450.9481942193597
2327.3147090332004 2571.0750209068824
2327.897213212629 2691.108549292803
2328.4795765343843 2289.1476185822617
2329.0617990300307 2126.6064929279482
2329.643880731124 2442.5202947598714
2330.22582166921 2215.702027937343
2330.807621875816 2251.2405615819107
2331.3892813824623 1831.0402594216498
2331.9708002206517 1853.0728757805573
2332.5521784218818 2033.2176282445082
2333.133416017634 2213.8174431970074
2333.7145130393765 2255.298948706888
2334.295469518571 2528.62058044814
2334.876285486658 2471.6860725000147
2335.456960975076 2146.5924583662186
2336.037496015242 2460.1171714580805
2336.6178906385667 2166.8769258810466
2337.198144876451 2297.908446422793
2337.778258760278 2096.482208509452
2338.3582323214214 1901.4451051260926
2338.938065591243 2429.748781447936
2339.517758601087 2437.632695645617
2340.0973113822965 2274.8470291716435
2340.676723966193 2113.359037057514
2341.255996384094 2162.1433750639544
2341.835128667295 2359.6581642629535
2342.4141208470883 2394.9299710402747
2342.992972954751 2258.8171754675373
2343.5716850215467 2108.53498991162
2344.1502570787306 1576.09528819451
2344.7286891575386 1989.2484616806746
2345.3069812892045 2505.5911142555924
2345.885133504944 2490.1857137079087
2346.4631458359618 1994.0035604837853
2347.04101831345 2026.687292058007
2347.6187509685915 2249.3681821358377
2348.196343832553 1938.4635352961232
2348.7737969364935 1744.1387346721451
2349.351110311558 2146.9650664750197
2349.9282839888765 1952.6247258673764
2350.5053179995757 1894.533717731571
2351.0822123747585 1815.4489173082275
2351.658967145526 1909.7649998446843
2352.2355823429643 2004.351307032465
2352.812057998144 2201.002589490236
2353.3883941421263 2320.8518309154247
2353.9645908059647 2588.7534502043654
2354.540648020693 2323.943004664344
2355.116565817336 2016.3244508062003
2355.6923442269126 2205.5525713465895
2356.2679832804224 1884.7759682167587
2356.8434830088518 2037.0787573955652
2357.41884344318 2106.436864641703
2357.994064614377 1894.1583382863894
