#exp_cfg={"servo_angle": 0.0, "laser_lim": 100.0, "servo_angle_to": 18.0, "laser_wup": 0.0, "bt_dev": "EnSpectr-25AE3", "laser_wdn_max": 0.0, "frames": 10.0, "servo_used": 0, "servo_calib_use": 0, "laser_wdn_min": 0.0, "servo_pix_from": 90.0, "cooler_tout": 300.0, "servo_angle_from": 0.0, "servo_calib": "[-1.9174921013161362e-09, 3.9322238269163779e-05, -0.27385609119055809, 653.59552119713567]", "laser_autoctl": 0, "servo_pix_to": 3682.0, "laser_pw": 100.0, "cooler_on": 0, "laser_volt": 4.0, "cooler_autoctl": 0, "cooler_curr": 70.0, "cooler_startup": 10.0, "laser_fixed_pw": 0, "gain": 1.3, "offset": 2.53059635486, "servo_calib_degree": 3.0, "laser_curr": 55.0, "shutter": 8200.0, "servo_calib_step": 1.0, "laser_fixed_curr": 0, "exp": 2000.0, "ccd_volt": 4.7, "bt_addr": "00:06:66:62:5A:E3", "servo_delay": 500.0, "laser_autooff": 1}
#proc_cfg={"flat_auto_wnd": 200.0, "flat_auto_fr": 200.0, "flat_auto_shift": 5.0, "yconv": 1, "flatten": 1, "flatten_strength": 100.0, "xfrom": 300.0, "auto_max_frame": 2000.0, "auto_signal": 48000.0, "flat_auto_tol": 0.1, "autoclip": 1, "xrel_range": 0.0, "flat_auto_to": 4000.0, "intensity_adj": 1.0, "xrel": 7852.0, "rmhot": 1, "flat_auto_slit": 4.999999999999997, "auto_ini_exp": 300.0, "auto_off": 0, "xto": 2860.0, "flat_auto_ref": "", "flat_auto_rank": 1, "autobackg": 0, "xrel_adj": 0.0, "auto_black_lvl": 1, "base_wnd": 100.0, "sub_baseline": 0, "xconv": 2, "auto_max_exp": 1000.0, "auto_total_exp": 10000.0, "auto_exp": 0, "rmripple": 0, "black_lvl": 8280.15, "shutter_clip_adj": 0.0, "auto_bckg": 0, "flat_auto_thr": 0.9, "subbackg": 1}
316.8218498245369 19992.17180050743
317.89969571804795 19817.124643278203
318.977263876126 19838.71531085374
320.05455438786703 19693.048994225956
321.1315673423287 19662.14305382756
322.2083028285215 19608.943904209707
323.2847609354267 19565.802192112835
324.3609417519747 19620.221014873045
325.43684536705587 19480.224613753275
326.5124718695279 19361.073008881514
327.58782134820103 19451.386336068324
328.66289389184385 19353.90825709076
329.7376895891921 19107.042843121573
330.8122085289342 19197.490559409274
331.88645079971866 19133.775915192902
332.9604164901575 19085.673418707127
334.03410568881554 19052.79845018383
335.1075184842266 19203.830218684467
336.18065496487543 18983.464976976218
337.2535152192122 18989.05155664972
338.32609933564163 18998.848410087452
339.39840740253203 18899.603501431222
340.4704395082099 18832.625550311226
341.5421957409617 18895.1209300755
342.6136761890357 18889.54224430497
343.6848809406365 18856.968160626577
344.75581008392874 18745.809810529485
345.82646370703696 18755.971066412352
346.8968418980512 18709.15251706944
347.96694474501055 18763.631551613253
349.0367723359268 18685.644653739626
350.106324758759 18625.100943838937
351.1756021014353 18588.536779164468
352.2446044518383 18512.311286612072
353.31333189781435 18689.29355303768
354.38178452716966 18567.460441144598
355.449962427665 18662.974014108397
356.51786568702846 18505.873361843773
357.58549439294256 18675.788248931636
358.6528486330535 18573.25429471631
359.71992849496564 18528.662663658288
360.7867340662433 18478.65925407269
361.8532654344144 18424.84452472285
362.9195226869597 18667.13699802644
363.9855059113288 18342.5809985843
365.05121519492604 18375.734801180068
366.11665062511565 18520.910055491484
367.1818122892273 18543.602188925324
368.2467002745434 18448.76287847614
369.31131466831175 18500.252499102036
370.375655557742 18430.169561316106
371.4397230299983 18376.66119550578
372.5035171722102 18381.330487395346
373.5670380714637 18430.837296090715
374.6302858148101 18452.621467854995
375.6932604892554 18416.703336321207
376.7559621817709 18470.766257505624
377.81839097928605 18268.822261955436
378.8805469686886 18488.23043272293
379.94243023683157 18376.406653225033
381.0040408705263 18290.950315309103
382.0653789565458 18188.462764332646
383.1264445816196 18311.934126512064
384.1872378324406 18184.128128021985
385.2477587956637 18339.568506417178
386.3080075579037 18229.011334871284
387.3679842057336 18189.84820002981
388.4276888256918 18289.71374750322
389.48712150426945 18255.237933455013
390.54628232792857 18182.598179972985
391.6051713830857 18157.35637054909
392.66378875611736 18243.273984014933
393.7221345333637 18164.601853737382
394.7802088011249 18061.84744297382
395.838011645661 18073.778407447746
396.89554315319765 18022.404069191936
397.9528034099112 17919.01473600047
399.00979250194723 17872.169866408145
400.06651051541485 17845.22389293795
401.1229575363741 17926.747606046978
402.17913365085224 17882.43102092317
403.23503894483656 17933.572551545956
404.2906735042761 17835.07467786804
405.3460374150818 17792.353939495315
406.401130763119 17795.77352054518
407.455953634224 17820.233444934896
408.5105061141876 17859.727883328917
409.56478828876243 17540.94418410739
410.6188002436629 17677.76904490735
411.6725420645689 17608.21944381036
412.72601383711117 17713.1126625322
413.77921564689314 17768.592021538967
414.8321475794728 17562.644612516204
415.88480972036814 17501.08924537642
416.93720215506437 17755.246806444633
417.9893249690049 17515.46550124981
419.04117824759123 17467.83612379314
420.09276207619223 17367.00925076077
421.144076540133 17466.22434496415
422.1951217247042 17382.934385956767
423.24589771515275 17415.467494137054
424.2964045966928 17216.033658140183
425.34664245449494 17327.140328096935
426.3966113736933 17273.31506217123
427.4463114393875 17262.06749983102
428.49574273662984 17255.39534201202
429.5449053504417 17136.07907177231
430.5937993658026 17235.057336507547
431.6424248676558 17129.208458044013
432.6907819409007 17127.85692158597
433.73887067040596 17189.01165427532
434.7866911409965 17205.971305475945
435.8342434374608 17087.040745286555
436.88152764455117 17016.32954533108
437.9285438469724 17086.026011552818
438.9752921294057 17002.374960596753
440.02177257648145 16973.338869283623
441.06798527279716 16926.82648509928
442.1139303029122 17084.72970898283
443.1596077513459 17013.971555436994
444.2050177025794 17046.63758188302
445.25016024105753 16916.39730030649
446.2950354511886 16917.945770860264
447.33964341733736 16910.29424718319
448.383984223834 16859.34391981559
449.4280579549686 16811.474143538173
450.471864694995 16831.57251141971
451.5154045281306 16899.361376062232
452.5586775385509 16779.6592515553
453.60168381039693 16686.113507416514
454.64442342776783 16885.251210549584
455.6868964747264 16727.226460140475
456.7291030353008 16728.01536376529
457.77104319347563 16793.90428545541
458.8127170332027 16741.30579819742
459.854124638392 16723.053920403843
460.895266092919 16814.899648113653
461.93614148061897 16794.17616808547
462.97675088529104 16826.232842641748
464.01709439069236 16783.36300662018
465.0571720805492 16743.992075605645
466.0969840385442 16693.93448128608
467.1365303483253 16829.249475013476
468.17581109350067 16697.94899057601
469.2148263576437 16678.21639120052
470.2535762242878 16704.692992297518
471.29206077693016 16801.40498357752
472.33028009902773 16791.544663488923
473.3682342740012 16820.21429801416
474.40592338523857 16722.1504596938
475.4433475160804 16900.05839297189
476.4805067498364 16827.666544163643
477.51740116978 16817.663508565747
478.5540308591426 17052.763543060748
479.59039590112116 16975.533605987173
480.6264963788726 17056.996505063093
481.6623323755193 17219.60767499484
482.6979039741436 17181.276407736546
483.7332112577915 17394.394648729227
484.76825430947247 17455.374372605536
485.80303321215797 17479.291500577696
486.837548048783 17555.65695427942
487.8717989022425 17797.060430895977
488.90578585539697 17849.216612079526
489.9395089910686 17866.008957708862
490.97296839203955 17766.248055146792
492.00616414106116 17636.290578781198
493.0390963208429 17679.787359187503
494.0717650140559 17662.237868628137
495.10417030333883 17578.07022630475
496.1363122712901 17566.614983291263
497.16819100046814 17371.327486959875
498.1998065734024 17240.08228668405
499.2311590725767 17144.075858439486
500.26224858044407 17040.495926132946
501.2930751794156 16948.000274231457
502.3236389518679 16931.130239147642
503.35393998014115 16733.907398554544
504.38397834653733 16718.949280281995
505.4137541333221 16730.541369425093
506.4432674227228 16606.7512743513
507.4725182969323 16470.159612034367
508.5015068381035 16470.650563098672
509.53023312835467 16549.423496178446
510.55869724976765 16531.974235588412
511.58689928438434 16290.426951881807
512.6148393142121 16319.924125556307
513.6425174212218 16359.95747290364
514.6699336873462 16363.49668353686
515.6970881944835 16445.320479116657
516.7239810244901 16326.239394169843
517.7506122591931 16298.236473284085
518.7769819803761 16475.755557337354
519.8030902697901 16364.235993190368
520.8289372091476 16384.17999563237
521.8545228801249 16557.481090337682
522.8798473643619 16496.114529185892
523.9049107434621 16465.151725146156
524.9297130989908 16473.901579315578
525.9542545124805 16435.973919610515
526.9785350654201 16393.02131182432
528.0025548392696 16379.92204019806
529.0263139154504 16381.691384846421
530.0498123753423 16480.42783220022
531.073050300296 16355.697521330227
532.0960277716204 16286.089263422318
533.1187448705896 16323.620873002108
534.1412016784416 16246.25313161799
535.1633982763833 16277.055654385036
536.1853347455726 16164.074199137855
537.2070111671401 16082.26215544714
538.2284276221817 16072.557175137918
539.2495841917516 16001.601478474073
540.2704809568677 15886.319605950426
541.2911179985167 15983.974747997217
542.3114953976419 15799.152339559223
543.3316132351592 15809.849736836357
544.3514715919409 15703.620146117895
545.3710705488247 15761.568825101796
546.3904101866156 15703.460276043183
547.4094905860784 15826.24080597913
548.4283118279418 15670.993910959976
549.4468739929034 15833.011762283873
550.4651771616191 15672.57665915436
551.4832214147063 15690.994901280374
552.501006832761 15816.097577950413
553.5185334963226 15730.81749571542
554.5358014859103 15713.327421168808
555.5528108820035 15660.048762117498
556.5695617650363 15593.660073041934
557.5860542154242 15636.165570080842
558.6022883135283 15569.155971436569
559.6182641396881 15451.595178098602
560.6339817741991 15544.068918222149
561.6494412973225 15521.025196702987
562.6646427892883 15507.936014470408
563.6795863302796 15471.256268294313
564.694272000459 15458.199375608538
565.7086998799423 15594.324244555213
566.7228700488104 15388.766195751823
567.7367825871115 15433.395520715672
568.7504375748576 15416.001639148826
569.7638350920224 15446.240385486424
570.7769752185486 15463.099594135143
571.7898580343353 15300.538568393193
572.802483619258 15316.974623826838
573.8148520531431 15569.864531609102
574.8269634157932 15462.476841017447
575.8388177869692 15403.074319581117
576.8504152463938 15393.78277706723
577.8617558737587 15538.655673538193
578.8728397487175 15507.923122893966
579.883666950891 15669.66785796182
580.8942375598654 15621.337568344872
581.9045516551851 15744.906057234115
582.9146093163617 15912.821607473894
583.924410622878 15775.510051401881
584.9339556541727 15817.426016158712
585.9432444896538 16104.708799793481
586.9522772086875 15848.229920921314
587.9610538906127 15937.287558368795
588.9695746147318 15840.125572629335
589.9778394603054 15873.130177440198
590.985848506567 15831.109935193837
591.9936018327098 15890.604297399088
593.0010995178891 15540.652595032585
594.0083416412344 15669.349482955906
595.0153282818283 15602.158173744028
596.0220595187293 15470.00605705278
597.0285354309508 15496.625856257044
598.0347560974806 15483.416982297107
599.0407215972609 15419.242677757016
600.0464320092051 15377.609046548145
601.0518874121954 15424.363831379625
602.0570878850685 15401.307600400241
603.062033506636 15379.85207467874
604.0667243556636 15413.716833713572
605.0711605108936 15214.522181876182
606.0753420510264 15485.25238406646
607.0792690547278 15358.738593989206
608.082941600629 15324.226456579225
609.0863597673306 15182.653982312966
610.0895236333909 15370.782609059304
611.0924332773357 15469.922666405071
612.0950887776617 15474.805695715739
613.0974902128219 15477.533816410598
614.0996376612384 15758.426445534298
615.1015312013005 15747.028734518375
616.1031709113595 15949.735137644913
617.1045568697336 15747.095888816493
618.1056891547069 16018.092545202195
619.1065678445229 16055.773800690658
620.1071930173985 16507.166864047613
621.1075647515099 16371.459958758856
622.1076831250048 16446.82786110504
623.1075482159849 16646.468528758247
624.1071601025305 16697.409597501824
625.1065188626781 16875.032110749893
626.105624574433 17099.74963598795
627.1044773157682 17098.985683387396
628.1030771646128 17223.327658861643
629.1014241988742 17306.267034902346
630.0995184964158 17444.452924087433
631.0973601350688 17456.021093197465
632.0949491926294 17717.246048796867
633.0922857468631 17372.68836590527
634.089369875499 17416.518961286238
635.0862016562278 17391.55540648775
636.0827811667077 17097.734207457797
637.0791084845641 17174.208317774817
638.0751836873878 17007.667531614185
639.0710068527369 16968.613110905026
640.0665780581294 16764.217382323026
641.0618973810506 16600.346167076204
642.0569648989604 16590.8539650574
643.0517806892676 16273.544866297187
644.0463448293649 16190.843337342274
645.040657396592 15974.450263515635
646.0347184682723 15933.923967719262
647.0285281216875 15763.9452905921
648.0220864340772 15718.777800939288
649.0153934826558 15551.492424800013
650.0084493446047 15493.869671872526
651.0012540970674 15525.587594753717
651.9938078171526 15342.575435896044
652.9861105819346 15290.824280421079
653.9781624684565 15319.505433659588
654.9699635537254 15162.974528581894
655.9615139147136 15070.869299633283
656.9528136283589 15047.765178154354
657.9438627715699 15032.368975237705
658.9346614212154 14907.495769049967
659.925209654135 14716.558355695248
660.9155075471263 14796.296433352112
661.9055551769616 14768.134686213536
662.895352620375 14835.281049916483
663.8848999540678 14851.549854468252
664.8741972547068 14646.145086379334
665.863244598926 14656.007717409779
666.8520420633213 14671.027515418533
667.8405897244611 14624.055861876706
668.8288876588758 14507.030502831234
669.8169359430613 14724.633821864361
670.8047346534822 14524.981286130444
671.7922838665672 14521.63546132131
672.7795836587156 14538.735664316973
673.766634106285 14633.488405567628
674.7534352856092 14567.428110814435
675.7399872729766 14521.24523392537
676.7262901446538 14467.118145330754
677.712343976862 14531.672815865726
678.6981488457986 14551.927715501943
679.6837048276229 14417.861830493148
680.6690119984596 14530.475623860086
681.6540704344043 14540.986698794612
682.6388802115107 14355.293995186643
683.6234414058108 14402.747541449144
684.6077540932874 14306.118895139443
685.591818349907 14415.779437745592
686.575634251587 14249.805478140037
687.5592018742263 14365.593937625448
688.5425212936734 14199.0826675144
689.5255925857564 14238.552703357313
690.5084158262707 14217.953660517942
691.4909910909646 14192.953006588237
692.4733184555644 14037.431704822477
693.4553979957618 14153.281950897295
694.4372297872123 14100.158361298652
695.4188139055404 14034.520772270136
696.4001504263324 13964.363338373547
697.3812394251509 14191.368090273478
698.3620809775111 14009.149863960842
699.3426751589104 14115.114084548684
700.3230220448004 13984.580688423495
701.3031217106054 14065.852179898438
702.2829742317172 14243.348737256392
703.2625796834873 13981.602271824828
704.2419381412474 13990.445032893233
705.22104968028 14108.253625622205
706.1999143758458 14013.650590600595
707.178532303169 14048.535305344762
708.1569035374378 14125.315013258583
709.1350281538107 14158.44801406562
710.1129062274158 14141.08468709898
711.0905378333373 14335.67592891554
712.0679230466376 14289.203806789103
713.0450619423427 14431.493112084238
714.0219545954424 14517.543932903198
714.9986010808989 14365.855474583605
715.9750014736292 14600.417013787326
716.9511558485392 14783.519988636423
717.9270642804786 14893.771899898271
718.9027268442787 14878.610808390393
719.8781436147328 14846.32970350289
720.8533146666014 14800.426626226461
721.828240074612 14843.662504160491
722.8029199134635 14767.415429656772
723.7773542578125 14743.03332396425
724.751543182294 14701.068015317025
725.7254867615029 14680.864809355244
726.6991850700015 14444.472105114464
727.6726381823228 14447.241391912738
728.6458461729599 14471.115159288831
729.6188091163858 14344.594551132159
730.5915270870246 14368.2350412779
731.5640001592856 14134.18936429589
732.536228407529 14241.401483653177
733.5082119060917 14266.26892828057
734.4799507292755 14274.392963217048
735.4514449513481 14226.57403158703
736.4226946465496 14310.805422758986
737.3936998890786 14383.664256318662
738.3644607531078 14211.959187389937
739.3349773127793 14240.422043962459
740.3052496421951 14144.855936111435
741.27527781543 14015.339174491155
742.2450619065221 13889.144251815558
743.2146019894826 13923.666045646145
744.183898138288 13847.303385023304
745.1529504268801 13748.796604494524
746.1217589291682 13686.005411159753
747.0903237190341 13486.471665465584
748.058644870318 13620.185698596275
749.0267224568397 13498.454860152147
749.994556552374 13329.270410890938
750.9621472306771 13427.281564346156
751.9294945654583 13295.586797468666
752.8965986304011 13381.335799724688
753.8634594991636 13241.81917393907
754.8300772453586 13385.170710375998
755.7964519425768 13296.016013933748
756.762583664371 13321.932366847463
757.7284724842611 13302.180258650467
758.6941184757416 13229.747267308569
759.6595217122667 13256.78320774498
760.6246822672638 13271.858109304987
761.5896002141235 13201.457233272518
762.5542756262093 13223.415838800624
763.5187085768503 13244.407277033246
764.4828991393406 13118.69001264617
765.4468473869474 13185.568763425708
766.4105533929032 13118.304598323157
767.3740172304078 13151.963772880365
768.3372389726283 13276.514040145252
769.3002186926988 13085.28279914625
770.2629564637282 13032.748055946044
771.2254523587872 13087.81647715562
772.1877064509154 12996.442366767627
773.1497188131179 12868.79652182165
774.1114895183728 12786.864181048582
775.0730186396268 12932.228397482922
776.0343062497905 12815.14649552
776.9953524217381 12769.414715428617
777.9561572283274 12779.062123081641
778.9167207423689 12801.702717922804
779.8770430366476 12746.551100588602
780.8371241839159 12747.606698477532
781.7969642568951 12696.947841242923
782.7565633282757 12974.944438054059
783.7159214707099 12672.261222058538
784.6750387568281 12692.900390780054
785.6339152592227 12679.06072152121
786.5925510504512 12672.401508755896
787.5509462030477 12683.687428945983
788.5091007895098 12679.446343301242
789.4670148823006 12726.724405679273
790.4246885538596 12727.451280652576
791.3821218765861 12706.207747895147
792.3393149228505 12622.88883497506
793.2962677649975 12710.634524199118
794.2529804753303 12814.673428859573
795.20945312613 12805.936403108375
796.1656857896378 12736.208720391622
797.1216785380675 12736.06629216425
798.0774314435985 12888.524925994392
799.0329445783846 13039.982275119904
799.9882180145414 12925.286700328028
800.9432518241574 12939.604154615345
801.89804607929 13157.861713454713
802.852600851962 13111.480204692634
803.8069162141637 13162.981371294485
804.760992237856 13226.509170518262
805.714828994971 13188.138511059928
806.6684265574077 13302.094239238173
807.6217849970271 13144.114147876924
808.574904385674 13184.10052872035
809.527784795142 13191.274986226694
810.4804262972102 13255.926427824053
811.4328289636178 13085.770049848605
812.3849928660748 12882.703971116674
813.3369180762638 12926.103634550998
814.2886046658241 12953.730046196193
815.2400527063783 12738.838577387518
816.1912622695108 12685.862099875078
817.1422334267718 12693.258193428937
818.0929662496856 12617.196685071935
819.0434608097457 12483.353828858399
819.9937171784059 12428.799594022206
820.9437354271013 12386.496621721219
821.8935156272255 12480.010279540495
822.8430578501484 12269.69845889368
823.7923621672016 12190.99911642614
824.7414286496896 12254.92757554397
825.6902573688876 12278.422190184327
826.6388483960363 12244.507615127133
827.5872018023492 12156.47658529238
828.5353176590033 12210.5144195907
829.4831960371503 12065.854935190458
830.4308370079016 12111.83365165468
831.3782406423525 12102.693614681068
832.3254070115545 12100.419389595034
833.2723361865319 11999.46183973504
834.2190282382799 12071.79616410565
835.1654832377644 12088.691589361992
836.1117012559116 12023.19624519732
837.0576823636256 12143.7146426619
838.003426631778 11860.86235093784
838.9489341312074 11865.331717446976
839.8942049327197 11944.037559719936
840.8392391070975 11984.769822767415
841.7840367250865 11934.3367536258
842.7285978573982 11954.208429987373
843.672922574724 12027.39274668648
844.6170109477152 11931.715135846938
845.560863046996 11979.646173740599
846.5044789431595 11858.480549431606
847.4478587067697 11945.699825999469
848.3910024083561 12013.32910825458
849.333910118421 11927.428093336996
850.2765819074339 11868.00952771246
851.2190178458332 12024.267193698028
852.161218004032 12045.872737441565
853.1031824524016 11995.083624123356
854.0449112612987 11887.675496087006
854.9864045010327 12078.19689635303
855.9276622418947 11855.77952165898
856.8686845541379 11904.89512494191
857.8094715079915 11827.76725647017
858.7500231736467 12034.165042099676
859.690339621271 11960.135555045561
860.6304209209939 11870.436153280514
861.5702671429244 11761.736487396636
862.5098783571284 11982.55515221951
863.4492546336569 11982.47147183671
864.3883960425155 11890.846180880928
865.3273026536863 11858.56406263894
866.2659745371238 11968.276266781862
867.2044117627465 11962.709341462558
868.1426144004472 11891.110998498463
869.0805825200823 12040.288253818382
870.0183161914847 12039.3331671793
870.9558154844526 12158.428106546007
871.8930804687552 12151.598067278757
872.8301112141307 12084.679299432508
873.7669077902865 12278.514757763924
874.7034702669062 12324.035142058949
875.6397987136315 12286.467638245134
876.5758932000863 12286.13829848041
877.5117537958522 12396.717339102652
878.4473805704911 12378.415279611068
879.3827735935283 12301.03421105403
880.3179329344603 12407.576524846609
881.2528586627541 12437.169822036994
882.1875508478479 12409.533530986815
883.1220095591489 12302.272730711955
884.0562348660296 12284.492666414528
884.9902268378391 12455.504301913395
885.9239855438955 12380.476339434117
886.8575110534839 12245.07855477303
887.7908034358588 12226.734960400292
888.7238627602474 12263.13974168494
889.6566890958475 12228.782551346812
890.5892825118208 12068.206872859531
891.5216430773125 12097.302469360422
892.4537708614189 12072.985257823322
893.3856659332196 11951.881118137933
894.3173283617652 11749.616127833022
895.2487582160684 11791.44522926636
896.179955565116 11759.585369130127
897.110920477864 11709.621248720343
898.0416530232451 11704.948910230487
898.9721532701478 11615.557113952964
899.9024212874428 11715.869448454187
900.8324571439662 11477.01786316024
901.7622609085302 11457.616270945238
902.6918326499072 11402.967576758516
903.6211724368477 11522.279938528553
904.5502803380696 11372.163190410836
905.4791564222614 11609.204833124517
906.4078007580792 11411.531443053795
907.3362134141571 11511.813619356448
908.2643944590909 11510.174595655642
909.1923439614493 11395.738642462762
910.1200619897754 11395.274304051305
911.0475486125779 11590.018547614036
911.9748038983344 11447.497856498574
912.9018279155007 11304.7880534762
913.8286207324982 11312.310827089985
914.7551824177117 11388.415851258731
915.6815130395116 11287.378299610946
916.6076126662283 11264.557279812207
917.533481366163 11225.979615634653
918.4591192075914 11365.357460608477
919.3845262587565 11361.717580415885
920.3097025878706 11334.183703835322
921.2346482631237 11282.556669102856
922.1593633526682 11361.981651222957
923.0838479246304 11348.601247072724
924.0081020471061 11442.825415514188
924.9321257881656 11130.604323901382
925.8559192158464 11184.432418212202
926.7794823981512 11181.969539734784
927.7028154030686 11217.41987108292
928.6259182985414 11044.49661968372
929.5487911524906 11256.700624116374
930.4714340328119 11243.041930137097
931.3938470073608 11055.4427428846
932.3160301439748 11202.00605559731
933.2379835104548 11194.956516858232
934.1597071745709 11117.452307131078
935.0812012040769 11134.186601664353
936.002465666681 11125.242281715668
936.9235006300696 11198.054550541938
937.8443061619055 11048.309869562532
938.7648823298077 11013.008246121524
939.6852292013809 11016.257823470723
940.6053468441951 11143.993584997903
941.5252353257874 10989.946679528319
942.4448947136698 11053.110780826044
943.364325075323 11059.48655133308
944.2835264782043 11096.789452566063
945.2024989897309 11036.437531040476
946.1212426773054 11016.435909252807
947.0397576082851 11010.000966267113
947.9580438500125 11179.080547555937
948.8761014697939 11157.648122150476
949.7939305349064 11125.449023267325
950.7115311125999 10972.604714799247
951.6289032700952 11025.824432531097
952.5460470745875 11143.476279849267
953.4629625932339 11068.576405739685
954.3796498931715 11206.244930907133
955.2961090415029 11048.81412397029
956.2123401053068 11065.667363552999
957.1283431516276 11035.907122078554
958.0441182474842 10913.143753654767
958.9596654598663 11110.24900289421
959.8749848557309 11041.361278817285
960.7900765020167 10877.653511761933
961.7049404656209 11006.32400090874
962.6195768134185 11017.137944801736
963.5339856122537 10944.859796518409
964.4481669289453 11019.222558187914
965.3621208302793 10800.76170305005
966.2758473830145 10874.594449057162
967.1893466538822 10904.520102373746
968.1026187095813 10882.73277445272
969.0156636167867 10920.825782106496
969.9284814421426 10931.542291497379
970.8410722522622 10968.18446783684
971.753436113735 10790.479878690381
972.6655730931161 10830.924442746089
973.5774832569368 10947.882615532697
974.4891666716958 10848.548007397823
975.4006234038698 10785.54500965741
976.3118535198955 10777.125235451462
977.2228570861935 10956.75976060877
978.1336341691494 10876.447793185018
979.0441848351202 10806.599581829581
979.9545091504333 10860.497810100696
980.864607181391 10979.507053174204
981.7744789942699 10846.134424721453
982.6841246553086 11001.992960414565
983.5935442307236 10949.835778323544
984.5027377867027 11012.435125430351
985.4117053894024 10916.948051876581
986.3204471049557 10967.381117651337
987.2289629994648 11026.806472875343
988.1372531390007 11135.257249715245
989.0453175896091 10915.686526916079
989.9531564173067 11026.509625839193
990.860769688079 10812.397012110478
991.7681574678918 11039.159019243507
992.6753198226706 11078.574060952918
993.582256818323 11045.462961046967
994.4889685207218 11011.348224064817
995.3954549957143 11202.101587427489
996.301716309119 11188.370734681379
997.2077525267232 11106.803873000237
998.1135637142943 11068.86188755108
999.0191499375615 11253.64406507338
999.924511262232 11186.000889414996
1000.8296477539861 11212.062208309497
1001.7345594784656 11071.071574041693
1002.6392465012996 11167.438174874485
1003.5437088880753 11176.73929627514
1004.4479467043584 11098.771712984484
1005.3519600156869 10946.878070621913
1006.2557488875718 11006.791336115577
1007.1593133854858 10965.553230505808
1008.0626535748888 11030.36114054656
1008.9657695212009 10820.322644105403
1009.8686612898182 11153.968361239498
1010.7713289461135 11058.685153749466
1011.6737725554212 10992.078480872502
1012.5759921830577 10987.955161751814
1013.4779878943027 10995.611213974847
1014.379759754418 10936.349199007851
1015.2813078286254 10912.754354717927
1016.18263218213 10728.405021758661
1017.0837328801026 10835.192317218261
1017.9846099876886 10896.207735303164
1018.8852635700023 10701.79779839507
1019.7856936921362 10701.212864348192
1020.6859004191447 10896.743847900254
1021.5858838160675 10792.149249121845
1022.4856439479063 10677.52546206436
1023.3851808796389 10652.135467815517
1024.2844946762143 10802.143280954377
1025.183585402554 10712.926327838632
1026.082453123554 10570.854127272398
1026.9810979040776 10664.389693870107
1027.8795198089647 10525.542509561365
1028.777718903024 10517.284461045718
1029.6756952510368 10418.332225181817
1030.5734489177648 10456.789126494947
1031.4709799679313 10642.146100655302
1032.3682884662358 10595.485989072638
1033.2653744773506 10477.103259503923
1034.1622380659192 10472.922231924731
1035.058879296559 10620.649596022458
1035.9552982338591 10611.05161023537
1036.8514949423825 10555.793464490109
1037.7474694866614 10516.066090512084
1038.6432219312028 10567.669332724685
1039.5387523404825 10830.947301145105
1040.4340607789582 10730.137812540763
1041.3291473110476 10797.343063975513
1042.2240120011465 11038.3761714137
1043.1186549136273 10992.519944470969
1044.0130761128294 10937.06469503103
1044.9072756630649 11084.193445195202
1045.8012536286205 11244.650380875422
1046.6950100737577 11168.142965657444
1047.588545062701 11293.08373021014
1048.481858659663 11220.074775231395
1049.3749509288118 11329.391434827372
1050.2678219343034 11258.99310416722
1051.1604717402515 11228.164266793307
1052.0529004107575 11193.251362633111
1052.9451080098825 11368.33153723834
1053.8370946016694 11189.384368882713
1054.7288602501267 11234.380797736123
1055.6204050192446 11060.256866423299
1056.511728972977 11124.170107581904
1057.402832175254 10959.225448853265
1058.2937146899785 11004.384618062428
1059.1843765810263 10862.72162225888
1060.0748179122456 11075.901331758218
1060.9650387474576 10834.044646165596
1061.855039150456 10890.02860662562
1062.7448191850071 10836.514354814924
1063.6343789148505 10708.156738289917
1064.5237184037014 10756.639233097201
1065.412837715241 10661.504766333002
1066.3017369131267 10581.545476983138
1067.190416060992 10596.945445174531
1068.0788752224398 10430.364107858157
1068.9671144610438 10539.986937134765
1069.8551338403558 10476.580643964195
1070.7429334239023 10609.46450312595
1071.6305132751695 10398.360587233758
1072.517873457633 10484.877379455344
1073.4050140347335 10445.498057699153
1074.2919350698776 10353.461629326313
1075.1786366264623 10253.24656578111
1076.0651187678395 10452.91407046362
1076.95138155735 10226.512141988307
1077.8374250582929 10191.905661440065
1078.7232493339507 10349.024915972088
1079.608854447577 10297.111995000498
1080.4942404623907 10144.164835681493
1081.3794074415982 10380.650228193324
1082.2643554483657 10238.109361905092
1083.149084545841 10281.980120420716
1084.033594797138 10127.1930578172
1084.9178862653516 10201.482069985137
1085.8019590135427 10233.576288990527
1086.6858131047484 10075.243804467656
1087.5694486019802 10207.410057848054
1088.4528655682225 10237.183254921672
1089.3360640664287 10328.810535457906
1090.2190441595321 10065.241962120013
1091.1018059104317 10118.01134354889
1091.98434938201 10243.542649342391
1092.866674637111 10290.530459648686
1093.748781738559 10176.184223396056
1094.6306707491512 10119.935791040245
1095.5123417316554 10242.341868059739
1096.3937947488157 10067.04796101958
1097.2750298633455 10092.906682846266
1098.156047137938 10120.746687664921
1099.0368466352556 10211.525317200296
1099.9174284179317 10102.149060159014
1100.7977925485757 10083.054391428668
1101.6779390897755 10004.538180185555
1102.5578681040806 9963.677753738324
1103.4375796540226 10020.988425888565
1104.3170738021054 10034.822021432894
1105.1963506108077 9951.943550043683
1106.0754101425773 9858.757515866986
1106.9542524598382 9918.067066039297
1107.8328776249855 9800.040242517516
1108.7112857003904 9748.269583221652
1109.5894767483987 9768.240362295142
1110.4674508313292 9844.558467538942
1111.3452080114657 9843.96910700641
1112.2227483510815 9959.18953210589
1113.1000719124077 9908.887610233662
1113.9771787576592 10043.230178158588
1114.854068949022 9918.332472311811
1115.7307425486542 9957.61384415479
1116.6071996186893 10172.977601210043
1117.483440221229 10306.989260470069
1118.3594644183577 10195.180213560683
1119.235272272128 10202.260767439959
1120.1108638445658 10406.906435903597
1120.9862391976712 10581.544107593845
1121.8613983934229 10453.246493286479
1122.7363414937627 10535.535066770779
1123.6110685606182 10599.455080702468
1124.485579655884 10742.740110397022
1125.359874841426 10717.689005809258
1126.2339541790916 10716.275421640052
1127.1078177306936 10857.864738580223
1127.9814655580267 10761.548932568909
1128.854897722851 10860.272867289117
1129.7281142869106 10851.024325405448
1130.6011153119125 10874.778262954484
1131.473900859548 10900.259423145983
1132.3464709914697 10873.35474108392
1133.2188257693178 10668.55287084218
1134.0909652546961 10733.996871583176
1134.96288950919 10681.486976166285
1135.8345985943506 10717.306325142034
1136.7060925717087 10445.437543668379
1137.57737150277 10576.892274954693
1138.4484354490069 10537.394500652534
1139.3192844718778 10362.192708039378
1140.1899186327992 10119.475154301577
1141.060337993178 10277.764283160117
1141.930542614382 10126.847572664828
1142.8005325577597 10115.01257509791
1143.670307884635 9853.665661396224
1144.5398686563003 9998.819028290838
1145.409214934025 9796.076382362051
1146.2783467790541 9677.067464465417
1147.1472642526023 9664.391934608355
1148.0159674158622 9792.985024854954
1148.8844563300026 9581.721844707918
1149.7527310561618 9468.403565180612
1150.6207916554504 9396.5845253163
1151.4886381889592 9483.662481654841
1152.3562707177498 9488.021787952386
1153.2236893028585 9271.714641752344
1154.090894005296 9302.427580205022
1154.9578848860474 9364.228929382025
1155.8246620060709 9374.866620509083
1156.6912254262988 9253.230874729623
1157.5575752076438 9239.049977758272
1158.42371141098 9371.800770496318
1159.2896340971656 9248.242509045545
1160.1553433270346 9273.623199517617
1161.0208391613887 9174.595483432835
1161.8861216610057 9300.818021585157
1162.75119088664 9202.39542182418
1163.6160468990201 9052.25005205988
1164.4806897588442 9045.16855524379
1165.3451195267917 9337.253592985353
1166.2093362635114 9188.305349521943
1167.0733400296285 9072.116621247693
1167.9371308857444 9049.568581372368
1168.8007088924278 9048.573193025995
1169.6640741102328 9089.286216657782
1170.5272265996773 8929.41187098905
1171.390166421259 8809.393250057285
1172.252893635452 9111.9891854209
1173.1154083026995 9055.2541554896
1173.977710483421 9101.112089039925
1174.8398002380145 8937.511431977879
1175.7016776268483 9052.829369097994
1176.563342710264 9053.68426322393
1177.4247955485826 8909.169665250653
1178.2860362020947 9066.016673174769
1179.147064731069 8984.89940587901
1180.0078811957483 9091.963517526252
1180.8684856563486 9024.695708150693
1181.7288781730604 8950.847860410739
1182.589058806052 9100.781095794675
1183.4490276154593 9231.27748581288
1184.3087846614017 9098.679857888881
1185.1683300039676 9113.255614168522
1186.027663703222 9292.850239706846
1186.8867858192025 9226.503386238655
1187.7456964119228 9169.397800997727
1188.6043955413716 9165.258013857248
1189.4628832675116 9373.844911304766
1190.3211596502842 9297.900199769916
1191.179224749596 9392.744835772894
1192.0370786253388 9315.369344302519
1192.8947213373758 9544.491287216875
1193.7521529455407 9518.631397989764
1194.6093735096438 9449.025121689592
1195.466383089477 9321.993156521105
1196.3231817447977 9539.75027332491
1197.1797695353398 9578.942053610928
1198.0361465208189 9353.30923262762
1198.8923127609214 9347.505059914922
1199.7482683153048 9451.237205848225
1200.6040132436028 9548.138827355684
1201.459547605431 9424.526430450218
1202.3148714603722 9297.16245564383
1203.1699848679855 9308.941170302829
1204.0248878878065 9415.80645234842
1204.8795805793507 9332.16780118282
1205.7340630020935 9249.021150198907
1206.5883352155033 9464.379788773658
1207.4423972790064 9212.282750230963
1208.2962492520237 9159.979400512424
1209.1498911939307 9163.134911304891
1210.0033231640937 9219.591297403462
1210.8565452218427 9157.067442106474
1211.7095574264913 9086.239382280084
1212.5623598373222 8953.678302661421
1213.4149525135963 8989.896415605011
1214.2673355145507 9036.302675380151
1215.1195088993936 8865.129774104978
1215.9714727273113 8889.501666857885
1216.8232270574663 9003.091527419885
1217.6747719489904 8712.644847789308
1218.5261074609934 8712.605166946418
1219.3772336525653 8760.128096885075
1220.2281505827668 8829.658113820522
1221.0788583106296 8862.5830715758
1221.9293568951707 8725.697363442228
1222.7796463953746 8614.542439014544
1223.629726870202 8798.0187048892
1224.4795983785934 8862.090411796189
1225.3292609794553 8749.089264547038
1226.1787147316809 8677.37862556398
1227.0279596941327 8830.610450981276
1227.8769959256424 8781.491247044427
1228.7258234850306 8783.859423372842
1229.5744424310833 8545.460711536429
1230.422852822563 8746.427413984762
1231.2710547182105 8735.019995765673
1232.119048176739 8623.866801855931
1232.9668332568417 8532.673087965555
1233.8144100171812 8715.416498838389
1234.6617785163999 8687.118420143652
1235.508938813111 8536.861390861342
1236.3558909659114 8564.023748095853
1237.2026350333617 8720.948246198315
1238.049171074008 8707.186734741226
1238.8954991463652 8607.357330481698
1239.741619308932 8431.222783778512
1240.587531620169 9429.79876242116
1241.4332361385277 8604.565716414416
1242.2787329224248 8549.11770005217
1243.1240220302534 8436.661533072584
1243.9691035203869 8444.261610899071
1244.813977451171 8627.28562613412
1245.6586438809263 8536.636151691675
1246.5031028679496 8322.707858073376
1247.3473544705157 8544.126049323584
1248.1913987468706 8500.688350477174
1249.0352357552383 8457.881695831089
1249.8788655538228 8482.155326274085
1250.7222882007918 8533.847779761245
1251.565503754302 8528.935376961825
1252.4085122724755 8447.556396542252
1253.2513138134182 8531.309343889241
1254.0939084352049 8470.068989998526
1254.9362961958905 8414.449825945443
1255.7784771535007 8512.698026820517
1256.6204513660432 8488.217812034836
1257.4622188915 8639.462368921319
1258.3037797878242 8517.332089506119
1259.1451341129468 8503.551424924268
1259.9862819247755 8607.494324622228
1260.8272232811978 8629.147631949423
1261.6679582400666 8694.493805392958
1262.5084868592203 8441.032458391697
1263.34880919647 8448.613485503516
1264.1889253095997 8637.529536185626
1265.0288352563712 8641.809673563257
1265.8685390945266 8520.489690500031
1266.7080368817751 8453.35687600795
1267.5473286758115 8693.617969135517
1268.386414534294 8577.431652247595
1269.2252945148703 8392.151831264055
1270.0639686751547 8503.996172376992
1270.9024370727402 8477.526621935172
1271.7406997651997 8376.513109491783
1272.5787568100714 8412.263770140546
1273.4166082648808 8402.508200171991
1274.2542541871244 8476.3250267808
1275.091694634275 8508.069629412008
1275.9289296637817 8294.340820242753
1276.7659593330663 8353.840199219285
1277.6027836995308 8485.447191263773
1278.4394028205552 8396.20013327373
1279.2758167534867 8267.213528294127
1280.112025555658 8267.232072080977
1280.9480292843746 8397.188599288209
1281.7838279969128 8280.550425085217
1282.6194217505326 8211.328579512643
1283.4548106024686 8099.642709993897
1284.289994609926 8272.251616206351
1285.1249738300921 8354.108622681233
1285.959748320127 8256.177561368926
1286.7943181371702 8210.955778005864
1287.6286833383328 8320.762539317358
1288.4628439807038 8246.808497856719
1289.2968001213521 8261.373472465159
1290.1305518173194 8292.558636312582
1290.9640991256183 8433.148267055269
1291.7974421032523 8279.062565734392
1292.630580807183 8270.13795488061
1293.463515294361 8265.031731802907
1294.29624562171 8372.688383654937
1295.12877184613 8201.878218088968
1295.961094024493 8359.498511330765
1296.79321221365 8301.963243548254
1297.6251264704333 8389.720740151735
1298.4568368516466 8640.974921158067
1299.2883434140658 8414.608677244802
1300.1196462144526 8237.440056895797
1300.9507453095375 8476.47548973001
1301.7816407560313 8345.368383252986
1302.6123326106172 8400.556975666432
1303.4428209299622 8225.889160435898
1304.2731057707024 8564.604482359926
1305.1031871894502 8364.756966630343
1305.933065242798 8340.667035154835
1306.7627399873181 8393.848436232805
1307.5922114795467 8589.518247511081
1308.4214797760123 8572.113021700508
1309.2505449332057 8325.484160743652
1310.0794070076026 8461.321289913409
1310.9080660556538 8604.171307744515
1311.736522133786 8543.093395227468
1312.5647752983987 8434.95553889398
1313.3928256058734 8371.754401474533
1314.2206731125661 8491.578435761028
1315.048317874809 8501.209030088838
1315.8757599489109 8484.16842883269
1316.7029993911547 8496.380848619146
1317.5300362578055 8609.640246108649
1318.356870605101 8498.363011504629
1319.183502489257 8437.104771329623
1320.0099319664623 8572.230575688893
1320.836159092889 8560.463534495195
1321.66218392468 8677.653424053584
1322.4880065179532 8574.673426475692
1323.3136269288134 8486.466450694365
1324.1390452133292 8694.56045721718
1324.9642614275563 8691.555589673671
1325.7892756275214 8651.37296512874
1326.6140878692295 8499.395426317431
1327.4386982086617 8809.531462578661
1328.2631067017755 8555.768851784847
1329.0873134045069 8563.279551528647
1329.911318372764 8575.45010802898
1330.735121662441 8622.503328608338
1331.558723329399 8505.890772987419
1332.3821234294774 8475.896997675967
1333.2053220185007 8397.992825309837
1334.0283191522612 8471.738729650264
1334.851114886529 8490.678870700409
1335.6737092770582 8445.555611528014
1336.4961023795695 8396.952630065107
1337.3182942497697 8345.447445120393
1338.1402849433325 8529.793359684545
1338.962074515921 8230.055964284295
1339.7836630231632 8181.048390245625
1340.6050505206676 8593.203352029584
1341.426237064028 8464.621161952235
1342.2472227088037 8561.606107365678
1343.0680075105338 8218.812698929676
1343.888591524741 8176.571180719191
1344.7089748069138 8427.29535679903
1345.5291574125276 8125.509645045846
1346.3491393970307 8063.850717461106
1347.168920815846 8191.488004632474
1347.9885017243778 8259.526544339109
1348.8078821780036 8107.719655214477
1349.6270622320844 8280.64766431972
1350.4460419419447 8205.443352302074
1351.2648213629054 8206.619852482494
1352.0834005502438 8006.57545666337
1352.90177955923 8041.053359658448
1353.7199584451064 8505.84695485563
1354.5379372630887 8205.15798410989
1355.355716068374 8024.498187856128
1356.1732949161305 8007.076153618596
1356.9906738615155 8108.77438674062
1357.8078529596478 8125.490846004375
1358.6248322656375 8131.49174788262
1359.441611834567 7910.854899144761
1360.2581917214866 8252.443164197151
1361.0745719814367 7944.9026833074895
1361.890752669433 7859.020161239052
1362.7067338404577 7918.888838278457
1363.5225155494845 8159.698669122566
1364.3380978514506 8208.429232814084
1365.1534808012839 7930.253372438361
1365.9686644538815 7813.2915120317575
1366.783648864117 8082.5450079438915
1367.5984340868417 8047.240072338203
1368.413020176893 7981.391624644924
1369.2274071890715 7721.916261408119
1370.0415951781652 8021.132435235721
1370.8555841989346 7695.268680698224
1371.6693743061223 7797.918924342894
1372.48296555444 7791.319312387825
1373.2963579985844 7946.4300092762105
1374.1095516932255 7864.004889005407
1374.9225466930166 7769.21275817977
1375.7353430525782 7745.324503214402
1376.5479408265164 7762.585527307408
1377.36034006941 7817.322293616865
1378.1725408358216 7751.4236806066965
1378.9845431802805 7622.917746758959
1379.796347157304 8044.228961205585
1380.6079528213813 7820.990727743178
1381.4193602269788 7661.744402290958
1382.230569428546 7643.774974326489
1383.0415804805016 7979.176364089374
1383.852393437246 7823.435269224069
1384.6630083531563 7776.510278650101
1385.4734252825892 7700.457717028583
1386.2836442798798 7819.355230394396
1387.0936653993322 7683.326856344664
1387.9034886952395 7587.363816556698
1388.713114221864 7827.069680496755
1389.5225420334482 7705.989580159059
1390.331772184214 7618.056051057506
1391.1408047283585 7678.193246099096
1391.9496397200564 7484.197489815245
1392.758277213461 7734.035985627517
1393.5667172627054 7619.557951037027
1394.3749599218918 7502.1408522275015
1395.1830052451114 7446.623154204701
1395.9908532864265 7520.129922125243
1396.7985040998774 7765.538218222525
1397.6059577394808 7351.288604690371
1398.4132142592352 7503.2596753646985
1399.2202737131156 7400.585086215642
1400.027136155073 7481.714318883108
1400.8338016390353 7365.680390660747
1401.6402702189134 7428.518656745291
1402.446541948586 7455.33700167428
1403.2526168819204 7277.259802656624
1404.058495072757 7416.909186566254
1404.8641765749107 7344.67015670553
1405.6696614421799 7382.527682415168
1406.4749497283356 7616.653008658254
1407.280041487129 7289.234223137331
1408.084936772295 7139.495712857764
1408.8896356375335 7376.224658349987
1409.6941381365323 7386.794151093968
1410.498444322955 7105.5532264818
1411.3025542504402 7180.68062382846
1412.106467972606 7244.597818300717
1412.9101855430508 7367.57628575134
1413.7137070153458 7141.896027454112
1414.5170324430437 7121.556679707658
1415.320161879672 7237.1101019166745
1416.1230953787435 7530.191215990808
1416.925832993742 7064.822731143613
1417.7283747781275 6942.377452029272
1418.5307207853439 7250.6638208993145
1419.3328710688093 7208.650595681633
1420.134825681922 6990.051019716785
1420.9365846780584 7093.884461804946
1421.7381481105713 7206.612709257237
1422.539516032788 7166.751799710112
1423.3406884980232 6895.913752789407
1424.1416655595604 6939.698439723934
1424.942447270665 7088.961858763224
1425.7430336845828 7070.075120974337
1426.5434248545298 6947.1555024995105
1427.3436208337116 7080.9316918137965
1428.143621675301 7199.197036955511
1428.9434274324558 7164.723970717803
1429.7430381583108 6930.559682153273
1430.5424539059713 6930.578262075444
1431.3416747285337 7525.177649672679
1432.1407006790632 7167.660551594674
1432.9395318106053 7061.647543650181
1433.7381681761835 6978.448374071531
1434.5366098288014 7022.988465925938
1435.3348568214424 7125.006329034331
1436.1329092070573 7025.702619630513
1436.9307670385879 7074.90940495084
1437.7284303689503 7223.299524667733
1438.5258992510335 7315.345875273662
1439.3231737377118 7120.586052581229
1440.1202538818306 7069.453711931155
1440.9171397362225 7113.50800206518
1441.7138313536925 7062.221200393809
1442.5103287870243 6948.252918582999
1443.3066320889775 6869.423264056453
1444.1027413122956 7155.434838007843
1444.8986565096966 6974.5038169792115
1445.694377733882 7005.329190637087
1446.4899050375207 6866.192844356656
1447.2852384732687 6896.817057216077
1448.0803780937622 7147.086332141911
1448.8753239516063 6850.2791431125925
1449.6700760993954 6718.94057204544
1450.464634589689 6851.997164395037
1451.2589994750397 7031.766103848709
1452.0531708079689 6766.583830316018
1452.8471486409799 6708.051450328623
1453.6409330265524 6911.4854400189415
1454.4345240171442 6848.19539539181
1455.2279216651987 6727.545807607807
1456.0211260231263 6841.098462029251
1456.8141371433194 6852.9855423293875
1457.6069550781594 6841.214578034067
1458.3995798799897 6639.316934462839
1459.1920116011424 6698.316225816163
1459.98425029393 6704.548786683081
1460.7762960106338 6586.9145317727725
1461.5681488035225 6559.148141373871
1462.3598087248392 6601.02780144634
1463.1512758268036 6701.084328243827
1463.942550161617 6679.368624477718
1464.7336317814625 6438.295383717981
1465.524520738496 6533.641730655459
1466.3152170848552 6543.277977985983
1467.1057208726506 6672.697094985902
1467.8960321539817 6488.155946379817
1468.6861509809169 6341.183588249101
1469.4760774055085 6471.241493121743
1470.265811479785 6623.932698872342
1471.055353255755 6452.388265831322
1471.844702785409 6441.157273246532
1472.6338601207044 6448.680835478696
1473.4228253135934 6946.988883428536
1474.2115984159936 6409.311279327983
1475.0001794798063 6180.486300188652
1475.7885685569145 6490.2827031604465
1476.576765699172 6473.146080384605
1477.3647709584238 6289.50236244649
1478.1525843864802 6527.3312282797615
1478.9402060351367 6419.758500637216
1479.7276359561693 6399.574194352567
1480.514874201328 6356.579499874182
1481.3019208223468 6141.3703991468965
1482.0887758709323 6235.97737098403
1482.8754393987747 6397.397271223576
1483.6619114575406 6085.91154103015
1484.4481920988783 6380.766313847046
1485.2342813744108 6477.199106274342
1486.0201793357446 6424.062695152833
1486.8058860344572 6314.156280397049
1487.591401522117 6130.738068194673
1488.3767258502594 6261.773550076714
1489.1618590704056 6298.026520686906
1489.9468012340494 6140.033040711969
1490.7315523926754 6239.880171700413
1491.5161125977356 6415.354521739177
1492.3004819006637 6169.325572394113
1493.084660352877 6093.264492217168
1493.8686480057622 6203.0253745464925
1494.6524449106964 6458.394964002173
1495.4360511190262 6371.992002546633
1496.219466682087 6091.988315310062
1497.0026916511779 6294.489835565397
1497.7857260775945 6207.227863070323
1498.5685700125996 6330.439197630716
1499.3512235074395 6158.70065109787
1500.133686613337 6184.464814855639
1500.9159593814966 6225.360914245093
1501.698041863101 6473.986435265914
1502.4799341093094 6115.328391186262
1503.2616361712662 6091.580666015723
1504.043148100087 6333.246025151819
1504.8244699468742 6292.958548607041
1505.6056017626997 6151.244717348561
1506.3865435986281 6052.999795795147
1507.1672955056893 6339.732581148832
1507.9478575348967 6051.655494374707
1508.7282297372512 6197.655907464243
1509.5084121637192 6142.835909156043
1510.2884048652577 6177.810902888455
1511.0682078927948 6172.848048553326
1511.8478212972423 6003.995177369985
1512.6272451294917 6056.422011358281
1513.4064794404076 6202.422674208515
1514.1855242808433 6067.269420623013
1514.9643797016215 6183.986058134532
1515.743045753552 6143.182930987261
1516.5215224874191 6297.789727116036
1517.2998099539836 6044.966622116379
1518.077908203999 6057.271876882351
1518.8558172881785 6126.120599052784
1519.633537257234 6277.208380097732
1520.4110681618404 6132.881373180329
1521.1884100526604 6254.269350067792
1521.9655629803365 6125.361148559014
1522.7425269954856 6239.10344969785
1523.5193021487103 6347.438252755521
1524.2958884905856 5974.271215357029
1525.0722860716687 6160.192328645075
1525.848494942502 6154.85230104112
1526.624515153595 6108.868043843437
1527.4003467554485 6198.546162723659
1528.175989798534 6181.938514396413
1528.9514443333064 6224.3194424488065
1529.726710410203 6282.072507011603
1530.5017880796331 6009.004707732295
1531.276677391992 6056.037942801457
1532.0513783976457 6137.561810738082
1532.825891146953 6079.527250104027
1533.6002156902414 6131.85138127252
1534.3743520778207 6215.6911002975785
1535.1483003599806 6028.8302162577975
1535.9220605869923 6100.519390831609
1536.6956328091019 6106.321808830626
1537.4690170765407 6025.758429378058
1538.242213439511 6182.899624654527
1539.015221948208 6017.283284649888
1539.78804265279 6022.9493226524
1540.560675603405 5908.6588106936015
1541.3331208501804 6233.761601552493
1542.1053784432224 6201.078321153664
1542.8774484326168 6216.603413439943
1543.649330868422 6009.986425824147
1544.4210258006842 6110.536313992362
1545.1925332794308 6059.072693222798
1545.9638533546604 6049.107363129965
1546.7349860763552 5898.288838214472
1547.5059314944829 6201.908291822817
1548.27668965898 6066.793399531625
1549.0472606197673 6093.955745066258
1549.817644426752 5946.139611857149
1550.5878411298072 6184.86282912556
1551.3578507787988 6143.505709486709
1552.1276734235635 6084.3863315588915
1552.8973091139233 6074.893952651214
1553.6667578996767 6326.38735869374
1554.436019830604 6165.02207486942
1555.20509495646 6088.487852677042
1555.9739833269869 6003.960956058366
1556.7426849919011 5905.000673025638
1557.511200000903 6402.424486326714
1558.2795284036674 5983.46634924216
1559.0476702498509 6020.122994785047
1559.8156255890954 6269.2834477586475
1560.5833944710157 6153.397947150536
1561.3509769452048 6001.561664515295
1562.1183730612447 6094.104267118005
1562.8855828686865 6180.98557044823
1563.6526064170703 6346.202017485532
1564.4194437559127 6158.334923771805
1565.1860949347047 5940.2731897970025
1565.9525600029283 6313.333080441094
1566.7188390100328 6268.142670945331
1567.4849320054564 6097.73231855959
1568.250839038612 6106.666901931983
1569.0165601588997 6045.322383243523
1569.7820954156887 6124.692837583972
1570.5474448583373 6088.227635062469
1571.31260853618 5966.641687755953
1572.0775864985299 5959.319872723167
1572.8423787946813 6048.631841903852
1573.6069854739108 6050.112242889077
1574.371406585471 6046.9024724579995
1575.1356421785986 6079.774760778055
1575.899692302506 6025.514229276334
1576.6635570063845 5964.023528200703
1577.4272363394157 5965.734106721238
1578.190730350747 6107.885059415532
1578.9540390895163 5981.007747425267
1579.7171626048384 5672.824911418838
1580.480100945806 5796.983132725545
1581.2428541614918 6060.8973686942645
1582.0054223009538 6000.952146355624
1582.767805413223 5973.4198444503145
1583.5300035473156 5858.9210826655235
1584.292016752228 6079.852230090748
1585.0538450769309 5900.984829544125
1585.8154885703807 5793.801001150596
1586.5769472815136 5805.707166657117
1587.3382212592405 5907.525810333345
1588.099310552463 5942.703524316641
1588.8602152100484 5743.747546072833
1589.6209352808564 5989.803689342467
1590.3814708137234 5977.988910484139
1591.14182185746 5457.858835418709
1591.9019884608679 5804.224155581392
1592.6619706727215 5711.173692565312
1593.4217685417734 5798.469558927577
1594.1813821167616 6083.574611292689
1594.9408114464022 5795.088233374512
1595.7000565793933 5977.496456377254
1596.459117564409 5880.774298671675
1597.2179944501113 5795.226631675297
1597.9766872851324 5958.397042242834
1598.735196118092 5824.255545790055
1599.4935209975883 6031.956022635409
1600.2516619721973 6095.174408476201
1601.0096190904787 5833.067477108706
1601.7673924009723 5733.2987343144705
1602.524981952196 5911.093097235912
1603.2823877926476 5826.293982876743
1604.0396099708087 5789.637879431365
1604.7966485351371 5790.569050322115
1605.5535035340745 5751.218557374796
1606.3101750160404 6035.069051850618
1607.0666630294363 5807.896102399964
1607.822967622642 5566.938457279475
1608.5790888440224 5904.833030552275
1609.3350267419137 6037.59666386743
1610.0907813646445 5722.0285684187465
1610.8463527605145 5775.845809275397
1611.601740977805 5988.059015812017
1612.356946064785 5819.251569503729
1613.1119680696902 5654.331432880601
1613.8668070407512 5617.323572841092
1614.6214630261748 5877.286753712637
1615.375936074137 5731.834766248775
1616.1302262328118 5883.98580201078
1616.8843335503425 5703.310325198001
1617.638258074854 5708.882753089924
1618.391999854457 5825.071462283825
1619.1455589372363 5915.868174954145
1619.8989353712623 5706.806465335637
1620.65212920458 5530.402586462281
1621.4051404852235 5628.829237355071
1622.1579692611976 5682.449804799388
1622.9106155804966 5446.761154750319
1623.663079491087 5655.322269424782
1624.4153610409248 5787.727850808773
1625.1674602779385 5494.691542050174
1625.9193772500403 5456.974238798132
1626.6711120051277 5798.895941092736
1627.4226645910676 5735.101051569121
1628.174035055721 5383.9079326188685
1628.9252234469168 5635.7793626513985
1629.676229812474 5491.510522395316
1630.4270542001905 5876.390659445448
1631.1776966578382 5485.806632968313
1631.9281572331747 5505.46975650983
1632.678435973945 5628.185818707481
1633.4285329278573 5549.2662492287345
1634.1784481426203 5424.757047491925
1634.9281816659113 5508.560994083157
1635.677733545388 5786.784984168074
1636.4271038286934 5466.949947402872
1637.176292563452 5513.476705746732
1637.9252997972635 5487.206081390819
1638.674125577716 5683.553918926687
1639.4227699523672 5930.644492268186
1640.171232968767 5351.9195836997405
1640.9195146744423 5506.272967264454
1641.6676151168977 5625.827513179321
1642.4155343436178 5649.062813418241
1643.1632724020765 5565.191100327905
1643.9108293397167 5521.88792378629
1644.658205203974 5425.533505828302
1645.4054000422566 5888.957716049795
1646.1524139019566 5518.502860580769
1646.8992468304423 5408.226166520277
1647.6458988750728 5383.362890123149
1648.3923700831765 5566.436885247251
1649.1386605020743 5438.421849795728
1649.8847701790564 5635.574845514917
1650.6306991614038 5519.480838099949
1651.3764474963682 5547.008019960636
1652.1220152311944 5356.134004714864
1652.867402413096 5496.674322353071
1653.6126090892776 5455.196958694518
1654.3576353069184 5737.465929188885
1655.1024811131829 5430.1481975158795
1655.8471465552066 5486.401512431149
1656.5916316801213 5648.241720490833
1657.3359365350298 5556.911404686192
1658.0800611670165 5476.251443574251
1658.824005623148 5470.589821828924
1659.5677699504722 5309.07054483574
1660.3113541960192 5401.766238107584
1661.054758406799 5396.453428828279
1661.7979826297997 5251.119127826269
1662.5410269119966 5421.23774068388
1663.283891300338 5633.7968051477865
1664.0265758417645 5272.242754485931
1664.7690805831826 5263.421719439391
1665.5114055714948 5527.2171617915665
1666.2535508535748 5632.614976189821
1666.9955164762814 5209.243674865206
1667.7373024864555 5294.545261254095
1668.478908930916 5435.618146780413
1669.220335856462 5212.897903083916
1669.9615833098778 5234.074744638088
1670.7026513379296 5100.849260482433
1671.44353998736 5365.9560951481935
1672.1842493048916 5337.562083765735
1672.9247793372379 5157.00287786452
1673.6651301310812 5361.017089872258
1674.4053017330934 5126.162118881546
1675.1452941899242 5329.933708249193
1675.885107548207 4873.389266798632
1676.6247418545518 5023.7855394941125
1677.3641971555535 5208.008125293638
1678.1034734977893 5186.353437573328
1678.8425709278108 5163.552108552105
1679.5814894921605 5191.351161003227
1680.320229237359 5046.268369302113
1681.0587902098978 5161.936479702212
1681.7971724562685 5102.613922266087
1682.5353760229264 5098.578598379456
1683.2734009563173 5064.952723565379
1684.0112473028657 5037.06254145908
1684.7489151089794 5096.583597614228
1685.4864044210462 5161.375303847713
1686.2237152854377 4911.329986532471
1686.960847748498 5200.116139845329
1687.6978018565642 4851.067652839256
1688.434577655944 4855.286452168961
1689.1711751929379 4937.293269125498
1689.9075945138156 5012.273408134036
1690.6438356648396 4817.789078178934
1691.3798986922448 4671.5545754848
1692.1157836422499 4893.8996818488085
1692.851490561059 4843.099911162212
1693.587019494853 4855.990513639923
1694.3223704897991 4659.915308210735
1695.0575435920364 4730.422675306176
1695.792538847696 4995.0044175826715
1696.527356302886 4789.941992090478
1697.2619960036936 4647.485074070738
1697.9964579961907 4782.842492531729
1698.730742326432 4350.673728305112
1699.4648490404488 4513.303435839576
1700.1987781842563 4486.49839503928
1700.9325298038548 4803.479083835284
1701.6661039452174 4730.070860617067
1702.3995006543082 4641.317875268321
1703.1327199770658 4694.348767685132
1703.865761959416 4542.676599544274
1704.598626647261 4751.332873158619
1705.3313140864866 4450.561437135099
1706.0638243229587 4542.784065315426
1706.7961574025303 4714.133147191476
1707.528313371029 4488.754054032064
1708.260292274268 4236.228729980092
1708.9920941580403 4508.501345606655
1709.7237190681226 4493.148158266622
1710.4551670502697 4452.303177058791
1711.18643815022 4223.110451299259
1711.9175324136959 4545.536716846723
1712.6484498863938 4374.71821115145
1713.379190614005 4266.977577273037
1714.109754642188 4535.002380895758
1714.8401420165883 4381.824527250446
1715.570352782839 4328.323997188917
1716.3003869865497 4361.233206854855
1717.0302446733076 4304.15007376225
1717.7599258886876 4185.026979731278
1718.4894306782444 4446.170983793747
1719.2187590875183 4186.374231872548
1719.9479111620203 4396.993550212379
1720.6768869472544 4233.892619021156
1721.4056864887025 4614.152728257836
1722.1343098318284 4448.027766108061
1722.8627570220742 4208.876451241
1723.591028104871 4096.137185153731
1724.3191231256242 4031.9158547818042
1725.0470421297232 4225.268499232102
1725.7747851625427 4291.438757324034
1726.5023522694337 4346.806203862779
1727.2297434957363 4236.948448973641
1727.9569588867635 4047.630222647106
1728.6839984878152 4263.804259214208
1729.4108623441734 3917.5458897102108
1730.1375505011038 4252.242018433525
1730.8640630038426 4225.303029625464
1731.5903998976264 4083.974533478703
1732.316561227657 4135.940552560953
1733.0425470391274 4098.987952277481
1733.7683573772065 4256.420931028007
1734.4939922870508 4167.352603229158
1735.2194518137949 4177.590216322194
1735.9447360025606 4180.769149542508
1736.669844898439 4089.884152671277
1737.3947785465189 4112.18851356706
1738.1195369918605 3866.874307117946
1738.8441202795093 3960.9487665026195
1739.5685284544943 4188.711307199994
1740.292761561821 4151.705830588203
1741.0168196464838 4171.127082893961
1741.7407027534518 4037.2210284183216
1742.464410927687 4152.380982676144
1743.187944214118 4022.274636557637
1743.9113026576688 3905.2629101987814
1744.634486303241 4094.9188138886275
1745.3574951957125 3941.413345580854
1746.0803293799509 4158.127420723389
1746.8029889008048 3930.9297336416757
1747.5254738031017 4316.529598363064
1748.2477841316504 3960.350235908606
1748.969919931249 4057.0608352138493
1749.6918812466665 3949.7434249076505
1750.4136681226646 4208.4622221853015
1751.1352806039777 4055.42212915393
1751.856718735331 3885.8926405875345
1752.5779825614281 3949.1635182304913
1753.2990721269507 3952.836538364383
1754.0199874765676 4193.223350081743
1754.7407286549314 3830.848559203182
1755.4612957066693 4042.4821018972616
1756.1816886763954 3942.580763769266
1756.9019076087097 4004.62779176056
1757.6219525481865 4083.512595413396
1758.3418235393856 3998.4348476692803
1759.061520626854 4093.803490899313
1759.7810438551096 4102.806340358172
1760.5003932686614 3951.795331482323
1761.2195689119999 4068.869135788619
1761.938570829594 3917.8588992177856
1762.657399065898 4066.0285016405533
1763.376053665348 3905.9335101005963
1764.0945346723602 3851.2747972702214
1764.812842131334 4065.8772872580244
1765.5309760866512 3864.5929502279105
1766.2489365826787 3781.3949584892334
1766.9667236637597 3924.6160035789508
1767.684337374223 3731.127932446081
1768.401777758383 3680.460772814705
1769.1190448605284 3775.4216570440963
1769.836138724937 3798.6224539059563
1770.5530593958665 4021.016883375791
1771.2698069175603 4074.8068659801256
1771.9863813342326 4054.7232771381605
1772.702782690094 3811.6057529711143
1773.4190110293293 3878.363873753733
1774.1350663961111 4032.6094792057083
1774.8509488345844 3743.9400786511455
1775.5666583888924 3917.6509959306086
1776.2821951031437 3990.733112667549
1776.9975590214362 3887.9159159282244
1777.7127501878585 4098.666449122009
1778.4277686464684 3824.613772863816
1779.1426144413108 3963.8804409711643
1779.8572876164162 3960.057455436011
1780.571788215797 3874.589758225994
1781.2861162834415 3820.4835764887894
1782.0002718633277 3881.397874660527
1782.7142549994132 3806.3403094196683
1783.4280657356376 3923.621091340432
1784.141704115922 3656.094712409129
1784.855170184177 3806.049738596771
1785.5684639842839 3912.36191147074
1786.2815855601148 3752.6616894020417
1786.9945349555237 3816.02033317949
1787.707312214343 3808.3544317158353
1788.4199173803918 3992.182930118101
1789.132350497468 3671.351928828716
1789.8446116093583 3768.3795759004524
1790.556700759822 3855.313940778615
1791.2686179926077 3436.478030013409
1791.9803633514493 3718.958979196389
1792.6919368800554 3683.161770945887
1793.4033386221236 3850.4980168388074
1794.1145686213295 3792.52840845291
1794.8256269213307 4060.8150536370676
1795.536513565774 3912.737355051913
1796.247228598284 3613.47736718898
1796.9577720624693 3705.8698872037467
1797.6681440019165 3639.8371810379663
1798.3783444602013 3849.062120003091
1799.0883734808776 3809.9337833974773
1799.7982311074884 3873.510100802812
1800.5079173835475 3630.204931678271
1801.2174323525633 3847.5956437468185
1801.9267760580187 3758.7025746019
1802.635948543386 3747.1880581598
1803.3449498521113 3602.394387480773
1804.0537800276325 3655.1020992180406
1804.7624391133668 3743.4642012932104
1805.47092715271 3585.089414554745
1806.1792441890484 3613.125644236562
1806.8873902657433 3820.485194995598
1807.5953654261448 3640.53960821687
1808.3031697135812 3545.128143013105
1809.0108031713662 3703.1333859832534
1809.71826584279 3686.5726177777556
1810.425557771141 3564.9593971473614
1811.1326789996747 4106.892042420185
1811.839629571632 3683.2613234391065
1812.5464095302468 3568.3518922759067
1813.2530189187182 3721.8025497377494
1813.959457780249 3576.497393791849
1814.6657261580076 3567.9560985993908
1815.371824095153 3532.699087489282
1816.0777516348262 3753.1985791964726
1816.78350882015 3387.9358652211267
1817.4890956942272 3494.2116622922754
1818.1945123001533 3546.309857522791
1818.8997586809928 3675.5720257413277
1819.6048348798067 3603.903438485816
1820.3097409396287 3533.7647940456677
1821.0144769034796 3830.7940083030676
1821.7190428143622 3637.0216477787835
1822.423438715261 3892.8221174951273
1823.1276646491478 3573.3653182368216
1823.8317206589727 3550.046722431419
1824.5356067876692 3581.1935054509363
1825.2393230781581 3648.404040937335
1825.942869573335 3445.769226147319
1826.646246316086 3473.4143302806706
1827.3494533492758 3700.401682461147
1828.052490715756 3607.92441413555
1828.7553584583547 3537.363013636029
1829.458056619891 3732.8139940526808
1830.1605852431585 3439.386865328316
1830.8629443709433 3321.9221530307614
1831.5651340460063 3592.9475153982653
1832.2671543110919 3552.5198846809753
1832.9690052089318 3469.25225942753
1833.6706867822395 3432.567280169334
1834.3721990737104 3599.6952742814524
1835.0735421260233 3661.8965604417804
1835.774715981841 3558.163490027793
1836.4757206838058 3856.538288107662
1837.1765562745459 3265.9049393459236
1837.8772227966747 3290.5062092809976
1838.5777202927839 3552.9366726184344
1839.2780488054523 3626.147140611004
1839.9782083772352 3456.316304611424
1840.6781990506806 3636.6664393166816
1841.378020868313 3528.4941834064675
1842.0776738726418 3481.8771081916966
1842.777158106157 3456.282871836155
1843.4764736113375 3346.9530462282805
1844.1756204306403 3596.748247371008
1844.8745986065078 3580.247381790445
1845.5734081813607 3316.2759721350076
1846.2720491976124 3368.9299582311432
1846.970521697649 3428.40306968261
1847.6688257238511 3452.589280568273
1848.3669613185684 3559.336920223709
1849.0649285241452 3313.707818987361
1849.7627273829057 3431.744138549109
1850.460357937156 3652.569872703799
1851.1578202291857 3173.4538654749626
1851.8551143012664 3407.469741973136
1852.5522401956569 3620.5713699237413
1853.2491979545957 3545.982685896234
1853.9459876203055 3275.6767331014244
1854.6426092349902 3341.7670132475746
1855.3390628408451 3234.21964088396
1856.0353484800362 3657.4356956396564
1856.7314661947203 3364.0200724659217
1857.4274160270397 3299.237835063353
1858.123198019115 3405.6208862426065
1858.8188122130487 3361.58729602939
1859.5142586509319 3436.116727116213
1860.209537374838 3492.534933908218
1860.9046484268183 3244.526110674572
1861.599591848917 3653.252540462884
1862.294367683151 3323.2427397863917
1862.988975971528 3374.345096588785
1863.6834167560355 3539.451160087536
1864.3776900786452 3579.394302091731
1865.0717959813119 3291.8056535033998
1865.7657345059724 3410.136601308378
1866.4595056945564 3456.3061995082962
1867.1531095889586 3476.4689168267696
1867.846546231076 3427.7478868171756
1868.5398156627743 3626.5769635198094
1869.2329179259123 3411.724925377058
1869.9258530623283 3582.885837802707
1870.618621113843 3320.200115131223
1871.3112221222636 3233.3779575973094
1872.0036561293764 3256.9807519423425
1872.695923176956 3425.572593136575
1873.3880233067594 3536.3297805793018
1874.0799565605212 3318.9239777496105
1874.7717229799673 3300.3343718176648
1875.4633226068036 3595.6457598875
1876.1547554827175 3387.66887652633
1876.8460216493859 3314.483419584768
1877.5371211484617 3344.5828205138505
1878.2280540215852 3534.8020209903093
1878.9188203103804 3125.9789402037522
1879.6094200564548 3436.7241712087243
1880.299853301396 3352.4839752893945
1880.9901200867826 3438.4270484987283
1881.6802204541673 3357.5304950361037
1882.3701544450942 3332.440612843681
1883.059922101087 3374.842947683193
1883.7495234636517 3588.9869027333452
1884.4389585742792 3413.3525998511386
1885.1282274744517 3314.955357181386
1885.8173302056166 3766.54639446903
1886.506266809225 3389.8634549538488
1887.195037326701 3219.8506631202686
1887.8836417994517 3273.9189384906317
1888.5720802688702 3611.571570800506
1889.260352776333 3258.1458744208167
1889.9484593632042 3466.6113901938566
1890.63640007082 3273.9939947357225
1891.3241749405151 3353.783937693164
1892.0117840135954 3342.193587337647
1892.6992273313572 3241.666777091841
1893.3865049350788 3318.9782161253947
1894.0736168660223 3660.006933870656
1894.7605631654333 3281.000240903323
1895.4473438745408 3178.841827523672
1896.133959034556 3493.9142315741205
1896.820408686679 3250.6552101669613
1897.506692872088 3574.9233712740834
1898.192811631945 3237.285361621927
1898.8787650073991 3314.2096209737974
1899.5645530395832 3363.2949019201906
1900.2501757696118 3435.2526180573805
1900.9356332385796 3155.196334720744
1901.620925487574 3543.981257809674
1902.3060525576602 3465.514411774568
1902.9910144898859 3342.6396158844873
1903.6758113252872 3100.6125671012805
1904.3604431048789 3316.9272741772293
1905.0449098696663 3198.4842687807677
1905.7292116606295 3278.655758340152
1906.4133485187394 3394.6048066256844
1907.0973204849488 3080.16787324914
1907.7811276001976 3183.2143340212497
1908.4647699053967 3291.8650237040843
1909.1482474414588 3053.0505997873365
1909.8315602492694 3174.3542987260234
1910.5147083696957 3417.8900172293643
1911.1976918436012 3238.698123383757
1911.880510711815 3220.0876007404827
1912.5631650151681 3385.4914873769208
1913.2456547944657 3192.5597014002033
1913.927980090495 3067.5513633027776
1914.6101409440362 3209.998702692177
1915.2921373958416 3226.1574773431103
1915.9739694866603 3296.921046343349
1916.655637257214 3405.7636659825257
1917.3371407482136 3076.9840408308146
1918.0184800003572 3369.226943224883
1918.6996550543154 3352.208311158434
1919.3806659507554 3333.1663574881795
1920.0615127303208 3355.693114874905
1920.7421954336423 3331.641729056983
1921.4227141013343 3272.12478930904
1922.103068773993 3169.7218688903963
1922.783259492202 3417.9453975534097
1923.4632862965227 3198.392977508396
1924.1431492275078 3078.386227573996
1924.8228483256917 3130.7987631770047
1925.5023836315922 3209.5526215605905
1926.1817551857057 2988.941988335391
1926.8609630285227 3295.8845639824094
1927.5400072005123 3229.50709005117
1928.218887742125 3072.414266924733
1928.8976046938005 2943.320080780538
1929.5761580959588 3154.5302875311245
1930.2545479890086 3252.824435839214
1930.9327744133352 3039.5001169442253
1931.6108374093164 3141.888185595857
1932.2887370173066 3476.2510638841427
1932.9664732776473 2859.7405367758233
1933.6440462306673 3232.128410714756
1934.3214559166754 3014.477440179603
1934.9987023759659 3359.240226608046
1935.675785648813 3352.319207183572
1936.3527057754836 2949.049953396911
1937.029462796223 3382.1185903630003
1937.70605675126 3139.666864477495
1938.3824876808085 3077.4982322518954
1939.058755625072 2915.267092526266
1939.7348606242267 3153.1346666758536
1940.4108027184448 3112.8635497966766
1941.0865819478713 3327.6355217426376
1941.7621983526478 2980.3552786224436
1942.4376519728921 2933.9468615538863
1943.1129428487038 3114.628978291025
1943.7880710201734 3290.843015109303
1944.4630365273733 3270.354992926406
1945.1378394103576 2932.275235759148
1945.8124797091714 2897.1997359320767
1946.4869574638324 2861.953275637694
1947.161272714353 3157.947991883319
1947.8354255007234 3212.040189797032
1948.5094158629272 3197.5510032335983
1949.1832438409183 3242.0203142573037
1949.8569094746435 3292.3698537312753
1950.530412804037 3234.25876984278
1951.2037538690092 3310.86196142499
1951.8769327094578 3062.3254578464716
1952.5499493652678 3078.5432555231623
1953.222803876306 3138.420143385744
1953.895496282421 3131.096206230167
1954.5680266234522 3161.578271149577
1955.2403949392155 3102.3069406459404
1955.9126012695142 2850.752546711582
1956.5846456541403 3127.7355161940613
1957.2565281328643 2980.36653953426
1957.9282487454457 3058.603821294374
1958.5998075316202 3241.7024369717537
1959.27120453112 3125.7732079310745
1959.9424397836501 3068.5210288787325
1960.613513328908 3284.669629463459
1961.2844252065697 3296.1325546410785
1961.9551754563017 3183.829902882627
1962.6257641177453 2846.257928574696
1963.29619123054 3026.136753448114
1963.966456834296 2827.3832525501575
1964.6365609686181 2851.703550495419
1965.306503673086 3256.0884624389864
1965.976284987275 2908.0339733573073
1966.645904950734 2946.968444318632
1967.315363603002 2969.071701237849
1967.9846609836077 3103.5422577534946
1968.6537971320486 3078.06009420111
1969.3227720878222 3103.7716483354634
1969.9915858904042 2937.82281838734
1970.660238579252 3085.0392077582237
1971.3287301938108 3199.934430234861
1971.997060773514 2672.4270440905443
1972.665230357772 3056.034338422837
1973.3332389859843 2726.523134022663
1974.0010866975335 3018.1533374438345
1974.6687735317864 3141.7942475629834
1975.3362995280932 3301.3896383549973
1976.003664725793 3006.030042934977
1976.6708691642052 2725.903592856916
1977.3379128826364 2900.89053756904
1978.004795920373 3153.574131269434
1978.6715183166925 3318.760932486791
1979.3380801108524 2758.456148026735
1980.0044813420973 3152.082658483255
1980.6707220496555 2776.8868652781525
1981.3368022727373 2872.806897079814
1982.0027220505417 3077.070554777284
1982.66848142225 2747.660723089436
1983.3340804270283 2817.394201246231
1983.999519104027 3026.7149752105224
1984.6647974923835 3097.0139696659426
1985.329915631215 3199.5646060724353
1985.99487355963 2950.3110534122015
1986.6596713167146 3109.046966482184
1987.3243089415428 3000.001253487967
1987.9887864731754 3193.1281720984816
1988.6531039506553 2747.839315734539
1989.3172614130071 3245.023409409333
1989.9812588992481 3049.743625509214
1990.645096448372 2914.8713991628106
1991.3087740993633 2954.9795246373733
1991.9722918911848 2918.1747135682153
1992.635649862792 2876.263366055259
1993.2988480531185 3112.5534759518096
1993.9618865010852 3241.6674016052852
1994.6247652455968 2862.4531343060457
1995.287484325545 2714.8163206112213
1995.9500437798033 2978.955397091687
1996.6124436472292 2679.249176644304
1997.2746839666706 3042.2716155182593
1997.936764776954 2926.224094607738
1998.598686116895 3052.6990163228584
1999.2604480252903 3292.244719236398
1999.9220505409212 2762.9860689005664
2000.5834937025593 2715.613318487929
2001.2447775489582 2821.303937496693
2001.9059021188514 2977.45472686869
2002.5668674509616 2774.826814943459
2003.2276735839987 2995.715389853671
2003.8883205566508 3154.7913700213767
2004.5488084075987 2819.05383842408
2005.2091371755014 2785.832614943824
2005.8693068990033 2916.1709640056692
2006.5293176167397 2897.8103805984892
2007.1891693673224 2859.9868934514134
2007.848862189354 2607.585600651798
2008.5083961214223 2966.6400921484606
2009.1677712020955 2750.6477375290424
2009.8269874699254 2704.023469382294
2010.4860449634598 3207.843441355274
2011.1449437212177 2579.59100276372
2011.8036837817108 3096.4195423672545
2012.4622651834325 3075.784376715816
2013.1206879648653 3102.3900212930303
2013.7789521644736 3222.5985644924303
2014.4370578207036 2674.411241881559
2015.0950049719922 2982.8292051407916
2015.7527936567585 3005.2181169204387
2016.4104239134067 3006.447350230324
2017.067895780323 3144.026475904208
2017.725209295886 2589.1498982436765
2018.3823644984514 3092.3212355925148
2019.0393614263648 2983.9467725164764
2019.6962001179545 2793.3418085171884
2020.3528806115355 3071.894107531168
2021.0094029454067 2718.7945528906134
2021.6657671578487 2811.1786658417004
2022.321973287133 2893.2220228870747
2022.9780213715148 2868.529166978541
2023.6339114492293 2867.522566853809
2024.2896435585026 2728.09354959629
2024.9452177375442 2858.4570512781966
2025.600634024544 3119.805050130998
2026.2558924576842 2991.239585769384
2026.9109930751292 2919.5976765747505
2027.565935915025 2768.609345495031
2028.2207210155066 3156.4755540450287
2028.8753484146964 2953.0789408786095
2029.529818150695 2673.74424986694
2030.1841302615903 3048.838998303548
2030.8382847854573 2774.8940022226498
2031.4922817603601 2899.119766152829
2032.1461212243357 2845.8992847541995
2032.7998032154192 2573.9707000092567
2033.4533277716218 2877.415567391124
2034.1066949309443 2794.3865751941294
2034.7599047313688 2846.2180666875315
2035.4129572108704 3122.4629103843813
2036.0658524074006 3001.46880836966
2036.7185903589016 2817.4982536152365
2037.3711711032956 2838.537012916676
2038.023594678496 2730.6555704817233
2038.675861122394 2711.255340833629
2039.3279704728757 3038.378410756638
2039.9799227678031 2536.889143586023
2040.6317180450278 2608.8297665785053
2041.2833563423865 2786.5278877400515
2041.9348376977014 2852.3549222924553
2042.5861621487784 2806.9016555672324
2043.2373297334088 2961.7640978251707
2043.8883404893695 2821.0357028764483
2044.5391944544208 3074.001047131659
2045.1898916663158 2999.593449583078
2045.8404321627804 3183.20592331393
2046.4908159815368 2859.6544494910686
2047.1410431602853 2647.466217963998
2047.7911137367173 2555.90252778158
2048.441027748504 2958.6549949505193
2049.090785233302 2668.327290311811
2049.7403862287592 2804.2131676106096
2050.389830772503 3072.7553248847303
2051.0391189021466 2579.904553110329
2051.688250655294 2863.43175681527
2052.337226069527 2487.225740871829
2052.986045182417 2962.7702373684583
2053.634708031521 2664.2824914203247
2054.283214654375 3005.8237812797965
2054.931565088511 2460.0823787484874
2055.579759371436 2655.3399893395263
2056.2277975406523 2716.301824031733
2056.8756796336384 2978.443872728839
2057.5234056878617 2598.8529555910663
2058.1709757407752 2658.944076062877
2058.8183898298194 2948.639536671
2059.465647992416 2891.4964152815323
2060.1127502659747 2992.7386560393543
2060.759696687888 2585.1087089711696
2061.4064872955405 2937.856353203776
2062.053122126292 2831.759108599831
2062.699601217497 2550.0676530272303
2063.345924606485 2808.198042790997
2063.992092330587 2987.243858466884
2064.638104427102 2739.849300058332
2065.283960933324 3022.513325289189
2065.92966188653 2995.38661277284
2066.5752073239855 2870.5442786693
2067.2205972829397 2528.493580583099
2067.86583180062 2825.2974469534565
2068.5109109142522 2740.1095783985547
2069.15583466104 2205.2432085105793
2069.8006030781708 2752.909078147729
2070.445216202821 2933.058307558314
2071.089674072153 3204.5369451808333
2071.7339767233116 2845.6285801339095
2072.3781241934303 2721.4429102284294
2073.0221165196253 2991.0032417835782
2073.6659537390024 2849.796204131124
2074.3096358886505 2890.2351152608253
2074.953163005637 2411.7415665668627
2075.596535127028 2552.8238319264665
2076.2397522898664 2513.245239630566
2076.882814531182 2851.6597606247005
2077.5257218879924 2832.8586245208417
2078.1684743973 2715.367487749729
2078.8110720960885 2426.6744315262713
2079.453515021336 2863.3792340734585
2080.095803209997 2902.933463465217
2080.7379366990135 2605.573502753384
2081.37991552532 2660.971199200837
2082.0217397258275 2867.153955733038
2082.6634093374414 2485.1909686009403
2083.3049243970418 2540.7159250351892
2083.9462849415067 2714.064083492625
2084.587491007689 2661.7486803819766
2085.2285426324324 2735.403103114882
2085.869439852564 2731.916085963942
2086.510182704902 2504.149473145454
2087.1507712262483 2744.7802671078016
2087.791205453381 2633.5952534340145
2088.4314854230743 2789.995510606991
2089.0716111720867 2719.176144183718
2089.7115827371617 2521.676853574883
2090.351400155023 2531.408411191401
2090.991063462385 2541.285859619213
2091.6305726959527 2590.3401691474455
2092.2699278924047 3074.444362302712
2092.9091290884153 2669.2659900653935
2093.548176320641 2507.4430581014094
2094.187069625721 2900.8180232044942
2094.8258090402887 2526.997070142004
2095.464394600951 2761.853543255652
2096.102826344313 2820.049846564395
2096.741104306955 2914.8091620456344
2097.379228525453 2274.777233111565
2098.017199036358 2621.085883725459
2098.6550158762147 2850.2718665226516
2099.2926790815527 2747.1971086726808
2099.9301886888825 2770.239073118749
2100.5675447347076 2727.075516009062
2101.2047472555114 3126.503620396873
2101.841796287761 2706.7997950710583
2102.47869186792 2772.5618389145084
2103.1154340324265 2713.8084774881695
2103.752022817709 2600.2634502262795
2104.388458260184 2786.3930299573544
2105.024740396251 2707.277591754264
2105.660869262292 2565.9976660555544
2106.296844894685 2882.9842567682085
2106.93266732978 2619.752265642731
2107.5683366039284 2300.903773153984
2108.2038527534532 2605.7095146417496
2108.8392158146726 2766.1305739536356
2109.4744258238843 2619.4459434904165
2110.1094828173755 2652.8664301369436
2110.744386831422 3061.0178632161774
2111.3791379022787 2624.81915974255
2112.01373606619 2821.528059233143
2112.648181359389 2756.3311339564907
2113.28247381809 2795.041503114754
2113.916613478492 2655.5246477133423
2114.550600376786 2785.0054411074566
2115.1844345491445 2771.233336541677
2115.818116031729 2522.455456162168
2116.451644860679 2624.965501458707
2117.085021072133 2519.0751879934182
2117.718244702204 2532.4374182939837
2118.3513157869984 2609.207075637255
2118.984234362604 2454.9557004549597
2119.617000465092 2590.2942671708324
2120.249614130529 2720.8912853571414
2120.8820753949585 2501.2580303953887
2121.5143842944162 2548.6928797944283
2122.14654086492 2473.637385349123
2122.7785451424734 2745.1574359202505
2123.4103971630702 2373.0455470928428
2124.042096962681 2852.5226911890422
2124.6736445772767 2672.5257454114217
2125.305040042802 2584.7898116319184
2125.936283395191 2600.671739347126
2126.567374670365 2564.4617150346344
2127.198313904233 2385.3722817618204
2127.8291011326855 2809.9352502033407
2128.4597363916037 2317.073698079449
2129.0902197168507 2588.8918743199697
2129.720551144279 2390.592993387713
2130.3507307097225 2808.158253544651
2130.980758449008 2900.9137141847164
2131.6106343979427 2498.702368709212
2132.2403585923203 2874.24437700568
2132.8699310679276 2923.106967240323
2133.499351860526 2718.508332683708
2134.1286210058715 2783.536623838832
2134.7577385397053 2401.2750335434603
2135.3867044977487 2615.2072333660576
2136.0155189157176 2809.531485488567
2136.644181829308 2745.09963865096
2137.2726932742025 2371.230076661548
2137.901053286074 2810.8131050862617
2138.5292619005777 2612.3683233044912
2139.1573191533535 2565.6673850590987
2139.7852250800315 2617.0177755281434
2140.4129797162295 2757.869427427446
2141.0405830975433 2492.1358019991553
2141.6680352595613 2846.305321468911
2142.2953362378576 2373.2208496702833
2142.9224860679915 2565.037888404671
2143.549484785508 2471.437351256346
2144.1763324259373 2725.743519230925
2144.803029024799 2539.531708308057
2145.429574617594 2505.0307248557933
2146.0559692398165 2698.758813324258
2146.682212926942 2376.882202397046
2147.308305714432 2530.992957656182
2147.9342476377333 2793.2531685237564
2148.5600387322847 2610.3674521274224
2149.185679033506 2674.338614764423
2149.8111685768017 2677.395767823222
2150.4365073975678 2624.592930428752
2151.061695531187 2477.5478405201893
2151.686733013021 2561.6899394546917
2152.311619878423 2511.8978770985277
2152.9363561627342 2705.2551663597815
2153.560941901278 2451.7000829929552
2154.1853771293663 2716.881401129257
2154.809661882293 2570.1576355522147
2155.433796195348 2705.4540995736797
2156.0577801037944 2732.6211589371505
2156.681613642895 2647.681824327373
2157.3052968478896 2527.784799450706
2157.928829754006 2575.032855346356
2158.552212396462 2590.22195069345
2159.1754448104566 2603.033104663442
2159.7985270311783 2349.387629008499
2160.4214590938027 2263.289627300957
2161.0442410334927 2168.2577069441286
2161.6668728853874 2486.5245518385445
2162.289354684628 2434.4703090536004
2162.911686466332 2501.386796647425
2163.533868265602 2723.779259563293
2164.1559001175337 2828.516027348355
2164.7777820572046 2716.6804385558235
2165.399514119681 2408.546376804445
2166.021096340013 2229.8241409991833
2166.6425287532384 2340.167329266087
2167.263811394385 2450.8273836851913
2167.8849442984574 2640.691907486739
2168.505927500455 2279.648794014757
2169.126761035366 2606.0169766002623
2169.7474449381552 2524.3198844339645
2170.367979243778 2218.793844975303
2170.9883639871823 2666.119088503196
2171.608599203293 2522.8142605931275
2172.2286849270276 2932.3396341332664
2172.8486211932886 3052.0448264985926
2173.4684080369625 2377.4157503494152
2174.0880454929265 2346.1116962013175
2174.7075335960417 2323.9345879099383
2175.3268723811543 2673.349495805499
2175.9460618831 2467.4954380411314
2176.565102136701 2299.6242207152563
2177.1839931767627 2373.0104154699266
2177.802735038078 2446.6246395723465
2178.421327755432 2483.154867239521
2179.0397713635866 2378.438676110516
2179.658065897298 2093.1834349850787
2180.276211391305 2417.8044519368877
2180.8942078803357 2443.3959963050543
2181.5120553991 2456.8877869561156
2182.129753982299 2494.4871853866744
2182.7473036646206 2599.302229696785
2183.3647044807367 2469.231564801482
2183.9819564653044 2302.6222002162785
2184.599059652968 2727.1007892372018
2185.216014078367 2704.841655378424
2185.832819776113 2707.450257758851
2186.4494767808137 2709.910139029148
2187.065985127063 2584.236456767537
2187.682344849436 2334.7672580558874
2188.298555982501 2867.0499058741348
2188.9146185608097 2654.994281017928
2189.530532618901 2545.75428742884
2190.1462981912937 2417.3159529077193
2190.761915312507 2491.453589403893
2191.377384017036 2650.2490436851895
2191.9927043393654 2585.9328828626194
2192.6078763139667 2089.1247591673846
2193.2228999753006 2203.8800622248805
2193.837775357808 2318.905863742877
2194.452502495922 2184.431547926067
2195.0670814240602 2425.00323374831
2195.6815121766285 2368.490833083972
2196.2957947880186 2331.7564113425187
2196.9099292926057 2294.9559492583444
2197.523915724758 2689.3002937004276
2198.137754118825 2452.585167055404
2198.7514445091456 2630.340378612619
2199.3649869300443 2164.174303927534
2199.9783814158327 2653.062770456939
2200.5916280008096 3072.669745882359
2201.2047267192593 2576.5178401478424
2201.8176776054515 2521.524129670416
2202.430480693649 2412.2688882587527
2203.0431360180955 2476.554429724406
2203.6556436130195 2712.299150271398
2204.268003512645 2294.9733249676183
2204.8802157511727 2574.582172584558
2205.492280362796 2781.0066918060393
2206.1041973816937 2412.6889830741848
2206.715966842032 2456.8931377051194
2207.3275887779655 2336.82338645282
2207.93906322363 2418.647348753906
2208.550390213153 2625.606704558373
2209.1615697806465 2512.72414918781
2209.7726019602105 2125.660280021207
2210.3834867859277 2131.367885463588
2210.9942242918787 2350.002776615004
2211.6048145121167 2297.404082134418
2212.2152574806914 2395.8717143380304
2212.825553231638 2494.4519482051683
2213.435701798975 3098.2739929908607
2214.045703216707 2446.231633757106
2214.655557518832 2038.6909071260848
2215.2652647393297 2270.17881631448
2215.874824912169 1978.7686968290673
2216.4842380713 2377.4672227225824
2217.09350425067 2282.248496820836
2217.7026234842033 2272.3280144830132
2218.311595805819 2627.45024675746
2218.9204212494133 2462.131359656262
2219.52909984888 2976.7056718640897
2220.137631638092 2848.222262975135
2220.7460166509154 2719.292286576587
2221.354254921198 2660.2396422301263
2221.9623464827764 2491.9334191908156
2222.5702913694713 2346.2818257244357
2223.178089615096 2506.628766157517
2223.7857412534486 2424.0515256706085
2224.39324631831 2168.441599596792
2225.000604843457 2236.7213485364564
2225.607816862641 2762.475851026634
2226.214882409611 2656.374360214827
2226.8218015180973 2560.0471057677896
2227.4285742218217 2331.7793294460453
2228.0352005544864 2498.137640721343
2228.6416805497847 2225.8592310044837
2229.248014241399 2450.120934349068
2229.8542016629945 2145.587378146959
2230.460242848223 2481.757043006134
2231.0661378307304 2607.9795827231806
2231.671886644139 2358.3770346903234
2232.277489322065 2186.9667803197303
2232.8829458981127 2002.2847099266596
2233.48825640587 2447.261183523431
2234.0934208789095 2905.9335537488737
2234.6984393507955 2756.391860293492
2235.3033118550793 2769.972426214254
2235.9080384252975 2421.90782152231
2236.5126190949723 2248.590143900158
2237.1170538976166 2199.251940323137
2237.721342866729 1836.9636177960588
2238.32548603579 2344.798920771261
2238.9294834382763 2613.2444342309327
2239.533335107646 2062.7403210813604
2240.1370410773434 2516.157554887617
2240.740601380803 2384.533783906167
2241.3440160514474 2218.935178881932
2241.9472851226783 2455.995181469428
2242.550408627896 2300.5695598339353
2243.1533866004793 2695.7657174109804
2243.756219073799 2468.132143285873
2244.3589060812064 2341.936563511909
2244.961447656049 2144.6734013236223
2245.5638438316564 2400.8737541115543
2246.166094641343 2450.4884696810796
2246.7682001184166 2349.206460913986
2247.3701602961664 2391.5533473828555
2247.971975207871 2460.694775299228
2248.5736448867974 2650.231820416711
2249.175169366197 2542.6838182859383
2249.7765486793123 2280.0462690515205
2250.3777828593684 2432.292343354108
2250.9788719395783 2398.326170223231
2251.579815953146 2414.8801453680653
2252.1806149332606 2161.248937482628
2252.781268913097 2473.152678035642
2253.381777925817 2148.937825159155
2253.9821420045737 2392.427334426088
2254.5823611825035 2561.4639759313036
2255.1824354927303 2525.6964059328657
2255.782364968365 2340.16780566198
2256.38214964251 2154.4553406951472
2256.9817895482483 2157.554719288936
2257.5812847186553 2478.991909084747
2258.180635186791 2141.4517872744605
2258.779840985704 2281.604912710368
2259.37890214843 2458.178990695521
2259.97781870799 2330.81746272744
2260.5765906973957 2203.2472952054604
2261.175218149645 2295.7624242713164
2261.773701097718 2173.9273956174457
2262.3720395745895 2051.823998387152
2262.970233613216 2256.2349558053807
2263.568283246548 2245.8832095534076
2264.1661885075137 2174.8151067637873
2264.763949429038 2364.3784624558007
2265.3615660440246 2522.3042191925774
2265.959038385374 2149.0190905858476
2266.5563664859637 2367.8647658221125
2267.153550378669 2172.0057939533663
2267.7505900963424 2300.1504297198885
2268.3474856718312 2204.7510790063725
2268.9442371379664 2344.1425401450897
2269.5408445275643 2067.2268662419688
2270.1373078734377 2394.891867452391
2270.7336272083758 2287.3096508486233
2271.32980256516 2268.2929880522906
2271.925833976562 2407.062631045001
2272.5217214753357 2707.172565600361
2273.117465094223 2333.557267243827
2273.7130648659586 2163.655061722484
2274.308520823257 2293.500980227811
2274.903832998827 2194.068065741706
2275.4990014253563 2094.4235057513188
2276.094026135528 2452.9368447561287
2276.6889071620117 2059.7130725368097
2277.2836445374614 2318.1700789564024
2277.878238294519 2539.7985241276738
2278.472688465812 2344.310742959469
2279.066995083962 2148.44874423262
2279.6611581815705 2204.299865233642
2280.255177791232 2029.018796283705
2280.8490539455233 2303.2288507876665
2281.442786677013 2578.0305296352844
2282.0363760182554 2431.0301156689716
2282.6298220017943 2232.51495083095
2283.223124660155 2450.0482082995272
2283.816284025859 2254.528509433317
2284.4093001314086 2654.074454761411
2285.002173009292 2524.9878784120206
2285.5949026919952 2395.594080621923
2286.1874892119777 2130.1893918191954
2286.7799326016993 2028.9412747789033
2287.3722328936 1927.3452780983328
2287.964390120109 1960.7033767954513
2288.556404313642 2412.8356816725454
2289.1482755066027 2272.257091873764
2289.7400037313873 2131.347354302089
2290.3315890203703 2219.837978982863
2290.9230314059205 2152.093220982141
2291.5143309203904 2084.305551263829
2292.1054875961236 2116.1947361303633
2292.6965014654506 2518.900243596131
2293.287372560684 2431.038253413148
2293.878100914131 2355.028403788263
2294.468686558086 2278.9320599451785
2295.059129524827 2255.9957533457264
2295.649429846617 2525.983505310217
2296.239587555716 2418.6908278457086
2296.8296026843636 2207.327386068228
2297.419475264791 2246.1855262032072
2298.0092053292137 2284.9766510804557
2298.598792909839 2355.689048019305
2299.1882380388597 2247.022914145444
2299.777540748455 2393.620832950804
2300.3667010707904 2540.262994388416
2300.9557190380256 2493.6209629012005
2301.544594682302 2271.858087585163
2302.1333280357503 2656.9081338485976
2302.721919130485 2484.8162523232013
2303.3103679986198 2558.684472173804
2303.898674672242 2576.576218877291
2304.486839183437 2040.8360173128592
2305.0748615642697 2410.270722962516
2305.6627418468015 2122.3402303460384
2306.2504800630704 2186.082566734941
2306.8380762451143 2238.7138333291564
2307.425530424949 2341.670699450086
2308.012842634582 2444.84563660527
2308.6000129060103 2731.606473580913
2309.187041271214 2970.2900106923053
2309.773927762164 2381.6910973498366
2310.3606724108213 2506.6491830487726
2310.9472752491274 1992.8536449999397
2311.5337363090184 2431.1691796871296
2312.120055622414 2077.886525866682
2312.706233221221 1952.834959914524
2313.2922691373424 2248.546803763215
2313.8781634026564 2086.435423146934
2314.463916049037 2383.7995014616067
2315.049527108342 2611.954026994886
2315.6349966124235 2455.335862606591
2316.2203245931123 2231.5437638945214
2316.8055110822315 2007.1793428012775
2317.3905561115935 2100.2916991220222
2317.9754597129977 2145.632497541496
2318.560221918229 2412.9639315399177
2319.1448427590603 2256.593805294105
2319.729322267256 2083.349614317691
2320.313660474563 2466.455068240046
2320.8978574127195 2349.024396485109
2321.481913113452 2231.4002068296486
2322.0658276084705 2062.657414985875
2322.6496009294806 2152.4577268799326
2323.233233108165 2670.8473359800373
2323.8167241762058 2373.0166222050675
2324.4000741652617 2475.2498176342765
2324.983283106987 2481.8245713009014
2325.5663510330232 2636.1958029871466
2326.1492779749933 2342.7172807745346
2326.7320639645204 2248.905875204758
2327.3147090332004 2075.3521050786067
2327.897213212629 2140.1629718275185
2328.4795765343843 2204.9000606046457
2329.0617990300307 1888.497554720229
2329.643880731124 2363.241711600227
2330.22582166921 2319.151523489103
2330.807621875816 2500.4256973304327
2331.3892813824623 1990.5928041586171
2331.9708002206517 2146.8074603821105
2332.5521784218818 2268.648413911244
2333.133416017634 2390.8378348632523
2333.7145130393765 2313.3753164847476
2334.295469518571 2503.277939350458
2334.876285486658 2393.44319600823
2335.456960975076 2092.1672953651364
2336.037496015242 2521.8684949089325
2336.6178906385667 2187.626919642877
2337.198144876451 2452.3230966740475
2337.778258760278 2230.494111380166
2338.3582323214214 2356.7615113324086
2338.938065591243 2483.263216597247
2339.517758601087 2539.402435266992
2340.0973113822965 2435.3129702532015
2340.676723966193 1944.5318038772832
2341.255996384094 2233.153624167627
2341.835128667295 2321.8483232387334
2342.4141208470883 2261.920359608499
2342.992972954751 2401.0554353306866
2343.5716850215467 2193.7042433198394
2344.1502570787306 1643.993963468735
2344.7286891575386 2069.36991366563
2345.3069812892045 2679.664446361818
2345.885133504944 2579.140336783723
2346.4631458359618 2138.7410344478435
2347.04101831345 2208.1101617892755
2347.6187509685915 2467.5164697217488
2348.196343832553 2107.8978304674024
2348.7737969364935 1927.640414269227
2349.351110311558 2210.062936430914
2349.9282839888765 2017.5119475269694
2350.5053179995757 2246.3085434000377
2351.0822123747585 1812.1669969997463
2351.658967145526 1931.0052916505585
2352.2355823429643 2050.156284690306
2352.812057998144 2313.537031948849
2353.3883941421263 2127.8409260121975
2353.9645908059647 2490.5006128245013
2354.540648020693 2417.459624176946
2355.116565817336 2145.1877057055967
2355.6923442269126 2147.555238320128
2356.2679832804224 1789.6265167026827
2356.8434830088518 2129.2362666805066
2357.41884344318 2237.6259693765164
2357.994064614377 2285.9004439073187
