#exp_cfg={"servo_angle": 0.0, "laser_lim": 100.0, "servo_angle_to": 18.0, "laser_wup": 0.0, "bt_dev": "EnSpectr-25AE3", "laser_wdn_max": 0.0, "frames": 10.0, "servo_used": 0, "servo_calib_use": 0, "laser_wdn_min": 0.0, "servo_pix_from": 90.0, "cooler_tout": 300.0, "servo_angle_from": 0.0, "servo_calib": "[-1.9174921013161362e-09, 3.9322238269163779e-05, -0.27385609119055809, 653.59552119713567]", "laser_autoctl": 0, "servo_pix_to": 3682.0, "laser_pw": 100.0, "cooler_on": 0, "laser_volt": 4.0, "cooler_autoctl": 0, "cooler_curr": 70.0, "cooler_startup": 10.0, "laser_fixed_pw": 0, "gain": 1.3, "offset": 2.53059635486, "servo_calib_degree": 3.0, "laser_curr": 55.0, "shutter": 8200.0, "servo_calib_step": 1.0, "laser_fixed_curr": 0, "exp": 2000.0, "ccd_volt": 4.7, "bt_addr": "00:06:66:62:5A:E3", "servo_delay": 500.0, "laser_autooff": 1}
#proc_cfg={"flat_auto_wnd": 200.0, "flat_auto_fr": 200.0, "flat_auto_shift": 5.0, "yconv": 1, "flatten": 1, "flatten_strength": 100.0, "xfrom": 300.0, "auto_max_frame": 2000.0, "auto_signal": 48000.0, "flat_auto_tol": 0.1, "autoclip": 1, "xrel_range": 0.0, "flat_auto_to": 4000.0, "intensity_adj": 1.0, "xrel": 7852.0, "rmhot": 1, "flat_auto_slit": 4.999999999999997, "auto_ini_exp": 300.0, "auto_off": 0, "xto": 2860.0, "flat_auto_ref": "", "flat_auto_rank": 1, "autobackg": 0, "xrel_adj": 0.0, "auto_black_lvl": 1, "base_wnd": 100.0, "sub_baseline": 0, "xconv": 2, "auto_max_exp": 1000.0, "auto_total_exp": 10000.0, "auto_exp": 0, "rmripple": 0, "black_lvl": 8278.3375, "shutter_clip_adj": 0.0, "auto_bckg": 0, "flat_auto_thr": 0.9, "subbackg": 1}
316.8218498245369 16598.38628393058
317.89969571804795 16444.594554988606
318.977263876126 16307.668592440172
320.05455438786703 16200.489707369828
321.1315673423287 16231.36317845298
322.2083028285215 16315.3842453869
323.2847609354267 16204.186204524765
324.3609417519747 16112.809099137658
325.43684536705587 16096.68362163837
326.5124718695279 16039.002740958875
327.58782134820103 16077.878257685961
328.66289389184385 16028.647387419387
329.7376895891921 15781.281174068814
330.8122085289342 15804.080269242771
331.88645079971866 15822.254437905296
332.9604164901575 15760.004693142077
334.03410568881554 15739.373342808996
335.1075184842266 15870.118783382559
336.18065496487543 15606.187385661124
337.2535152192122 15679.6035887754
338.32609933564163 15687.795103716391
339.39840740253203 15578.79727071129
340.4704395082099 15580.362884913728
341.5421957409617 15621.468468817864
342.6136761890357 15595.59475687863
343.6848809406365 15522.42440884975
344.75581008392874 15498.252621900247
345.82646370703696 15377.100448186768
346.8968418980512 15291.361510987155
347.96694474501055 15426.71791002023
349.0367723359268 15502.558850952835
350.106324758759 15378.338905069555
351.1756021014353 15237.37375140874
352.2446044518383 15359.770679570129
353.31333189781435 15390.701266601289
354.38178452716966 15272.171599793412
355.449962427665 15304.369514944494
356.51786568702846 15278.97827674123
357.58549439294256 15396.24031121693
358.6528486330535 15361.442690983202
359.71992849496564 15282.383705866945
360.7867340662433 15253.51452318838
361.8532654344144 15265.032903545822
362.9195226869597 15433.068483562287
363.9855059113288 15150.571796428503
365.05121519492604 15139.647057889571
366.11665062511565 15202.647449263764
367.1818122892273 15279.639712642334
368.2467002745434 15111.40405948745
369.31131466831175 15276.946686233123
370.375655557742 15265.16997982639
371.4397230299983 15271.704761775143
372.5035171722102 15215.042038618205
373.5670380714637 15281.714190582443
374.6302858148101 15338.976283458853
375.6932604892554 15318.876829078767
376.7559621817709 15357.062250687188
377.81839097928605 15154.845089484374
378.8805469686886 15251.551855274101
379.94243023683157 15160.26905829006
381.0040408705263 15190.173032876914
382.0653789565458 15173.869685592255
383.1264445816196 15197.448453543135
384.1872378324406 15223.15554486337
385.2477587956637 15188.735428089107
386.3080075579037 15089.037457816885
387.3679842057336 15009.9967798373
388.4276888256918 15094.665893070627
389.48712150426945 15073.849144739317
390.54628232792857 15053.449674627467
391.6051713830857 14991.52949125769
392.66378875611736 15064.732552383914
393.7221345333637 14972.108501139932
394.7802088011249 14920.987794942728
395.838011645661 14931.296665318538
396.89554315319765 14855.552731076958
397.9528034099112 14763.64404289989
399.00979250194723 14796.203409309921
400.06651051541485 14757.902696827823
401.1229575363741 14823.470704564952
402.17913365085224 14670.639364827633
403.23503894483656 14809.33102891305
404.2906735042761 14610.584619796606
405.3460374150818 14580.876660260736
406.401130763119 14596.361803486298
407.455953634224 14637.99336754648
408.5105061141876 14605.093825270542
409.56478828876243 14431.434260542062
410.6188002436629 14481.569586919542
411.6725420645689 14477.766109766115
412.72601383711117 14434.628782989723
413.77921564689314 14541.152192397267
414.8321475794728 14382.622590542498
415.88480972036814 14364.855124613236
416.93720215506437 14439.034302649725
417.9893249690049 14282.667118863053
419.04117824759123 14218.993843019309
420.09276207619223 14172.324362004942
421.144076540133 14188.390024298104
422.1951217247042 14185.91020178422
423.24589771515275 14190.741915683442
424.2964045966928 14088.037229257287
425.34664245449494 14178.324152303623
426.3966113736933 14153.458206276719
427.4463114393875 14101.854238394275
428.49574273662984 14074.444703323781
429.5449053504417 13992.209561087002
430.5937993658026 14107.835465922853
431.6424248676558 13883.636486060775
432.6907819409007 13965.509648319136
433.73887067040596 13926.10350437063
434.7866911409965 13931.25922316236
435.8342434374608 13933.924470467075
436.88152764455117 13873.43862362557
437.9285438469724 13874.252781344487
438.9752921294057 13843.951139377948
440.02177257648145 13820.910007053371
441.06798527279716 13773.540829347863
442.1139303029122 13807.356333351378
443.1596077513459 13977.699400526933
444.2050177025794 13778.427817509193
445.25016024105753 13844.722736361233
446.2950354511886 13813.514585302906
447.33964341733736 13793.91791626242
448.383984223834 13676.317211446594
449.4280579549686 13666.552474457654
450.471864694995 13719.234462407805
451.5154045281306 13806.692873947168
452.5586775385509 13735.085049285504
453.60168381039693 13689.187152759798
454.64442342776783 13814.586279283947
455.6868964747264 13706.651742898757
456.7291030353008 13657.122191933795
457.77104319347563 13778.59700435797
458.8127170332027 13719.05257598263
459.854124638392 13675.44857851721
460.895266092919 13766.803552849195
461.93614148061897 13678.474611154987
462.97675088529104 13791.09724482224
464.01709439069236 13806.466281691672
465.0571720805492 13751.772377960606
466.0969840385442 13781.001354352478
467.1365303483253 13960.858621934505
468.17581109350067 13807.617317089363
469.2148263576437 13778.708732545545
470.2535762242878 13735.686041876932
471.29206077693016 13862.441963878126
472.33028009902773 13876.643794020769
473.3682342740012 13876.055878250703
474.40592338523857 13855.900815977762
475.4433475160804 13932.276239087394
476.4805067498364 13922.286416589432
477.51740116978 13950.317170035993
478.5540308591426 14081.676376917361
479.59039590112116 14184.774851726868
480.6264963788726 14130.985505503239
481.6623323755193 14360.40829825084
482.6979039741436 14422.37496141221
483.7332112577915 14553.329761145953
484.76825430947247 14697.545784714148
485.80303321215797 14867.254561856282
486.837548048783 14980.548316765426
487.8717989022425 15099.78333668205
488.90578585539697 15298.455111529624
489.9395089910686 15409.804114863384
490.97296839203955 15372.62517826426
492.00616414106116 15325.839649199985
493.0390963208429 15388.317234940001
494.0717650140559 15360.723118651862
495.10417030333883 15375.256471053985
496.1363122712901 15277.67165499197
497.16819100046814 15124.719529967746
498.1998065734024 14976.549646152092
499.2311590725767 14913.000125780934
500.26224858044407 14727.218367928008
501.2930751794156 14594.322199261103
502.3236389518679 14493.90774432974
503.35393998014115 14264.652262738475
504.38397834653733 14216.194603343607
505.4137541333221 14209.117662991706
506.4432674227228 13972.733766985253
507.4725182969323 13989.546542121383
508.5015068381035 13959.725312971306
509.53023312835467 13812.69940196699
510.55869724976765 13821.138826510218
511.58689928438434 13692.505585883657
512.6148393142121 13676.427779147378
513.6425174212218 13679.213397410964
514.6699336873462 13681.949223425629
515.6970881944835 13798.263883886219
516.7239810244901 13756.77652439298
517.7506122591931 13827.90354903143
518.7769819803761 13861.582581699651
519.8030902697901 13864.747233403159
520.8289372091476 13860.658790345307
521.8545228801249 14006.084400945838
522.8798473643619 13897.961284661864
523.9049107434621 13888.947036453654
524.9297130989908 13912.852789359307
525.9542545124805 13889.071789257461
526.9785350654201 13917.534896059558
528.0025548392696 13812.143612306161
529.0263139154504 13818.628859869674
530.0498123753423 13802.100422394456
531.073050300296 13750.544550704024
532.0960277716204 13674.429648834073
533.1187448705896 13657.871991318985
534.1412016784416 13733.759801215803
535.1633982763833 13625.163999586093
536.1853347455726 13531.85542073373
537.2070111671401 13471.9061607131
538.2284276221817 13439.603672266365
539.2495841917516 13321.49478563516
540.2704809568677 13224.01886903562
541.2911179985167 13299.034982078138
542.3114953976419 13203.633487936982
543.3316132351592 13167.122118121528
544.3514715919409 13129.651495867536
545.3710705488247 13146.07519236694
546.3904101866156 13044.567503917333
547.4094905860784 13068.46895178722
548.4283118279418 13033.507594672581
549.4468739929034 13032.515304417633
550.4651771616191 12957.233718068752
551.4832214147063 12918.59298173586
552.501006832761 12981.867956804372
553.5185334963226 12947.412709992512
554.5358014859103 12957.830979801087
555.5528108820035 12881.05770049229
556.5695617650363 12885.091704630011
557.5860542154242 12928.803114824539
558.6022883135283 12903.329977444377
559.6182641396881 12854.591356476805
560.6339817741991 12927.068539700103
561.6494412973225 12920.852499157272
562.6646427892883 12957.17769237067
563.6795863302796 12896.27504673124
564.694272000459 12949.518999944241
565.7086998799423 12998.363713117611
566.7228700488104 12900.033715874504
567.7367825871115 12823.044010295624
568.7504375748576 12951.959556942516
569.7638350920224 12904.06365499002
570.7769752185486 12801.215150752545
571.7898580343353 12932.399616505501
572.802483619258 12915.83832714875
573.8148520531431 13020.851508773689
574.8269634157932 13003.082429605822
575.8388177869692 12919.77147922394
576.8504152463938 13002.820724794123
577.8617558737587 13192.884019849342
578.8728397487175 13046.382136012455
579.883666950891 13151.302113294694
580.8942375598654 13240.985931634195
581.9045516551851 13385.7090156202
582.9146093163617 13599.910831538355
583.924410622878 13411.78896428051
584.9339556541727 13560.64379358507
585.9432444896538 13861.390649665685
586.9522772086875 13680.38788474468
587.9610538906127 13758.643106785788
588.9695746147318 13694.29259860618
589.9778394603054 13832.019947561532
590.985848506567 13766.776512762057
591.9936018327098 13716.229709571107
593.0010995178891 13488.56574520755
594.0083416412344 13448.989609453502
595.0153282818283 13351.622348769164
596.0220595187293 13308.356255680133
597.0285354309508 13196.965537236445
598.0347560974806 13120.607391287476
599.0407215972609 13098.242685040492
600.0464320092051 12936.331069852515
601.0518874121954 13007.172023919404
602.0570878850685 12916.365061402848
603.062033506636 12952.916015352655
604.0667243556636 12933.841171039861
605.0711605108936 12821.243257711507
606.0753420510264 13004.344584280185
607.0792690547278 12985.357144701191
608.082941600629 12939.526142433695
609.0863597673306 12825.221955061916
610.0895236333909 12927.631944035154
611.0924332773357 13053.398328057347
612.0950887776617 13063.444673195301
613.0974902128219 13123.968808855081
614.0996376612384 13373.004746416875
615.1015312013005 13349.337316538342
616.1031709113595 13463.395675382411
617.1045568697336 13403.370984404595
618.1056891547069 13684.243059335082
619.1065678445229 13808.410796397362
620.1071930173985 14093.355696494235
621.1075647515099 14210.353076095791
622.1076831250048 14384.526966661539
623.1075482159849 14523.598536611102
624.1071601025305 14676.48855341077
625.1065188626781 14829.973205910468
626.105624574433 15124.279786247722
627.1044773157682 15289.655453782058
628.1030771646128 15461.027250371344
629.1014241988742 15524.182009418704
630.0995184964158 15810.306835247146
631.0973601350688 15991.942114030526
632.0949491926294 16111.35843149185
633.0922857468631 15857.357890629108
634.089369875499 16064.034992033305
635.0862016562278 16054.394205296678
636.0827811667077 15888.319555534657
637.0791084845641 15900.858988994101
638.0751836873878 15643.190824618729
639.0710068527369 15743.709004289101
640.0665780581294 15472.364446800895
641.0618973810506 15348.884776749424
642.0569648989604 15198.679653792551
643.0517806892676 14909.719359812778
644.0463448293649 14818.273795788573
645.040657396592 14585.382889763288
646.0347184682723 14361.654257541803
647.0285281216875 14207.429964592262
648.0220864340772 14102.994897263305
649.0153934826558 13936.637719310233
650.0084493446047 13787.554584560645
651.0012540970674 13608.049030045668
651.9938078171526 13449.379337618604
652.9861105819346 13342.296955183634
653.9781624684565 13308.235461113372
654.9699635537254 13197.229324011594
655.9615139147136 13120.28181011455
656.9528136283589 13005.469478012736
657.9438627715699 12984.525692038365
658.9346614212154 12991.632069369512
659.925209654135 12726.909436870326
660.9155075471263 12751.249561986077
661.9055551769616 12776.937892538652
662.895352620375 12895.591554442966
663.8848999540678 12700.301219430281
664.8741972547068 12561.796941694423
665.863244598926 12550.481715428781
666.8520420633213 12622.602311518513
667.8405897244611 12528.445295293433
668.8288876588758 12376.41151408036
669.8169359430613 12547.250685536135
670.8047346534822 12383.318240402425
671.7922838665672 12428.456748752908
672.7795836587156 12426.188880585309
673.766634106285 12526.888054292842
674.7534352856092 12441.752378453957
675.7399872729766 12450.81075340613
676.7262901446538 12378.081303323455
677.712343976862 12415.006386927958
678.6981488457986 12529.317480479027
679.6837048276229 12366.198684804687
680.6690119984596 12398.645525020062
681.6540704344043 12457.311279880265
682.6388802115107 12423.565838878068
683.6234414058108 12349.686846597946
684.6077540932874 12277.27174239758
685.591818349907 12255.202931630882
686.575634251587 12210.541415538159
687.5592018742263 12213.455796782966
688.5425212936734 12166.195101223011
689.5255925857564 12147.259837724712
690.5084158262707 12158.096846407469
691.4909910909646 12181.392068276833
692.4733184555644 12079.451021974617
693.4553979957618 12132.37104573955
694.4372297872123 12140.611648315931
695.4188139055404 12088.291377530984
696.4001504263324 12045.302418922216
697.3812394251509 12142.002666941446
698.3620809775111 11978.642354378007
699.3426751589104 12060.54638480138
700.3230220448004 11909.270709491308
701.3031217106054 12051.887465478583
702.2829742317172 12208.069193747517
703.2625796834873 12032.15222722618
704.2419381412474 12001.57431552199
705.22104968028 12076.267418253685
706.1999143758458 12044.723059735865
707.178532303169 11951.500380386406
708.1569035374378 12074.071814478764
709.1350281538107 12110.970699738928
710.1129062274158 12113.002605443406
711.0905378333373 12273.173790459681
712.0679230466376 12235.525424240996
713.0450619423427 12326.31367402433
714.0219545954424 12508.375485993247
714.9986010808989 12434.611979279234
715.9750014736292 12669.642997774048
716.9511558485392 12811.447033072465
717.9270642804786 12908.604684026748
718.9027268442787 12986.284220081636
719.8781436147328 13037.395582650677
720.8533146666014 13061.784177083242
721.828240074612 13162.754417138523
722.8029199134635 13064.457077739355
723.7773542578125 13101.029093499525
724.751543182294 13021.25727976739
725.7254867615029 13002.106983893016
726.6991850700015 12838.986245423375
727.6726381823228 12746.361191069453
728.6458461729599 12709.45793152084
729.6188091163858 12672.730507864671
730.5915270870246 12577.855671544894
731.5640001592856 12383.930448929439
732.536228407529 12486.318820612873
733.5082119060917 12457.65111348093
734.4799507292755 12373.367679075482
735.4514449513481 12383.166451095964
736.4226946465496 12520.848031272628
737.3936998890786 12615.133944474483
738.3644607531078 12456.346988328982
739.3349773127793 12402.741257718093
740.3052496421951 12411.634692182564
741.27527781543 12266.51147708411
742.2450619065221 12236.330583533996
743.2146019894826 12219.266641844879
744.183898138288 12177.367437213634
745.1529504268801 12116.77107687171
746.1217589291682 11971.640842181772
747.0903237190341 11860.629476486203
748.058644870318 11895.301367722252
749.0267224568397 11668.400680572004
749.994556552374 11596.520595152038
750.9621472306771 11783.128661071009
751.9294945654583 11703.171993436528
752.8965986304011 11664.48618446377
753.8634594991636 11546.044887766886
754.8300772453586 11709.933716195166
755.7964519425768 11702.314664033518
756.762583664371 11744.530361557383
757.7284724842611 11801.271295736802
758.6941184757416 11614.957015061846
759.6595217122667 11712.19566545101
760.6246822672638 11693.109300807319
761.5896002141235 11658.626132128353
762.5542756262093 11598.359896351118
763.5187085768503 11678.90273658991
764.4828991393406 11611.02676578855
765.4468473869474 11663.678820209972
766.4105533929032 11606.449193592543
767.3740172304078 11568.614824068676
768.3372389726283 11654.02755736995
769.3002186926988 11498.536929207134
770.2629564637282 11448.65060485723
771.2254523587872 11510.447058790873
772.1877064509154 11446.206495487544
773.1497188131179 11298.498519210583
774.1114895183728 11225.055053101893
775.0730186396268 11363.128072827329
776.0343062497905 11265.62384015792
776.9953524217381 11187.975094707097
777.9561572283274 11199.03084441517
778.9167207423689 11172.341114300281
779.8770430366476 11102.407104233378
780.8371241839159 11113.93286598045
781.7969642568951 11128.203250173847
782.7565633282757 11303.506419156372
783.7159214707099 11129.28424148118
784.6750387568281 11160.720593745955
785.6339152592227 11050.643975215935
786.5925510504512 11157.043907556665
787.5509462030477 11169.887486266574
788.5091007895098 11122.863560392489
789.4670148823006 11161.033628987992
790.4246885538596 11087.162278533617
791.3821218765861 11113.589968891287
792.3393149228505 11067.898372737047
793.2962677649975 11143.135372287225
794.2529804753303 11123.516157652828
795.20945312613 11185.971779762383
796.1656857896378 11050.66121933227
797.1216785380675 11153.692947036852
798.0774314435985 11267.020208813732
799.0329445783846 11356.320775068787
799.9882180145414 11311.633995857323
800.9432518241574 11289.132341518007
801.89804607929 11473.840943269792
802.852600851962 11580.630282532267
803.8069162141637 11481.371627722863
804.760992237856 11697.82750678661
805.714828994971 11669.6479151158
806.6684265574077 11870.663916322565
807.6217849970271 11767.173878046618
808.574904385674 11844.62601513153
809.527784795142 11841.550529043547
810.4804262972102 11960.250471222647
811.4328289636178 11842.064775137333
812.3849928660748 11627.209077575882
813.3369180762638 11603.37454901947
814.2886046658241 11627.196193427975
815.2400527063783 11391.580055257551
816.1912622695108 11361.255048665218
817.1422334267718 11318.594217905586
818.0929662496856 11246.1754263849
819.0434608097457 11100.901516522756
819.9937171784059 11101.458302217019
820.9437354271013 10877.504167035178
821.8935156272255 11135.771688669154
822.8430578501484 10832.999350171664
823.7923621672016 10691.73526852112
824.7414286496896 10806.384900764542
825.6902573688876 10803.255227257523
826.6388483960363 10742.619952824949
827.5872018023492 10656.917929763988
828.5353176590033 10767.018256557345
829.4831960371503 10640.732103408807
830.4308370079016 10567.786381560672
831.3782406423525 10636.615004754512
832.3254070115545 10659.361041777775
833.2723361865319 10593.207405664612
834.2190282382799 10530.553747659877
835.1654832377644 10593.76185701039
836.1117012559116 10480.970365791236
837.0576823636256 10643.163137956722
838.003426631778 10428.682839581392
838.9489341312074 10376.403301789498
839.8942049327197 10510.055600598334
840.8392391070975 10558.485231503986
841.7840367250865 10464.359922299922
842.7285978573982 10404.098302123508
843.672922574724 10482.77099424927
844.6170109477152 10417.92828023923
845.560863046996 10439.55474503859
846.5044789431595 10361.036158037316
847.4478587067697 10438.615068940922
848.3910024083561 10487.57929967519
849.333910118421 10472.393216996448
850.2765819074339 10337.139123365676
851.2190178458332 10485.249515737545
852.161218004032 10581.557873286833
853.1031824524016 10498.380147280748
854.0449112612987 10397.221952363889
854.9864045010327 10618.992939227355
855.9276622418947 10391.276434336987
856.8686845541379 10515.52590717961
857.8094715079915 10455.984723378035
858.7500231736467 10513.333035946429
859.690339621271 10531.168405610892
860.6304209209939 10480.990569527861
861.5702671429244 10293.48034902431
862.5098783571284 10433.72812202857
863.4492546336569 10527.152819339495
864.3883960425155 10418.349324217217
865.3273026536863 10419.820641889664
866.2659745371238 10520.619537610932
867.2044117627465 10618.707401094256
868.1426144004472 10518.92617641688
869.0805825200823 10618.239185361144
870.0183161914847 10672.306910030928
870.9558154844526 10814.380424729596
871.8930804687552 10830.92428015752
872.8301112141307 10766.08109267764
873.7669077902865 10912.51753185833
874.7034702669062 11003.702063540159
875.6397987136315 10942.461060321775
876.5758932000863 10940.264566168593
877.5117537958522 11062.169893985907
878.4473805704911 11124.598793589015
879.3827735935283 11081.516691249435
880.3179329344603 11210.21617525761
881.2528586627541 11248.182043628385
882.1875508478479 11281.137898869574
883.1220095591489 11152.389223532662
884.0562348660296 11169.252888631923
884.9902268378391 11278.46883985008
885.9239855438955 11208.146755806158
886.8575110534839 11040.011051649515
887.7908034358588 11226.00758358889
888.7238627602474 11127.576573308756
889.6566890958475 11109.812555422446
890.5892825118208 10983.383516836759
891.5216430773125 11090.437785676126
892.4537708614189 10992.777078919202
893.3856659332196 10828.118219235463
894.3173283617652 10773.673357139687
895.2487582160684 10830.680337012573
896.179955565116 10702.287918315818
897.110920477864 10585.225539963338
898.0416530232451 10637.501578179328
898.9721532701478 10614.831005106109
899.9024212874428 10758.15082759947
900.8324571439662 10602.38246263439
901.7622609085302 10612.398140386831
902.6918326499072 10626.979516579046
903.6211724368477 10646.311412982872
904.5502803380696 10599.145217811893
905.4791564222614 10689.429615619118
906.4078007580792 10450.414828775141
907.3362134141571 10382.159501122474
908.2643944590909 10382.2648624578
909.1923439614493 10262.069666328955
910.1200619897754 10199.219143028648
911.0475486125779 10305.64610562658
911.9748038983344 10215.6281090068
912.9018279155007 10147.734745587251
913.8286207324982 10019.837886788971
914.7551824177117 10126.377696634874
915.6815130395116 10084.956494981845
916.6076126662283 9997.18700140193
917.533481366163 10033.600232121726
918.4591192075914 10055.781392822722
919.3845262587565 10195.314435312774
920.3097025878706 10025.607702489306
921.2346482631237 9980.076574593135
922.1593633526682 9970.467033766126
923.0838479246304 10080.173828421815
924.0081020471061 10087.216472781745
924.9321257881656 9909.903697363034
925.8559192158464 9964.581152562523
926.7794823981512 9976.869031493996
927.7028154030686 9936.03352754918
928.6259182985414 9852.23445826862
929.5487911524906 10095.124422171975
930.4714340328119 10028.202260111464
931.3938470073608 9818.890538928634
932.3160301439748 10007.13181183521
933.2379835104548 9932.479955095741
934.1597071745709 10040.97715907355
935.0812012040769 10005.128185176674
936.002465666681 9982.057053374063
936.9235006300696 10013.476716388914
937.8443061619055 9996.853894153215
938.7648823298077 9891.544356820472
939.6852292013809 9964.596041098725
940.6053468441951 10124.157471225848
941.5252353257874 9934.071510051626
942.4448947136698 10014.934734491628
943.364325075323 9942.471314328006
944.2835264782043 10071.064673499955
945.2024989897309 10048.882216203581
946.1212426773054 10017.144686239917
947.0397576082851 10129.704000932008
947.9580438500125 10208.740319296543
948.8761014697939 10209.015604320775
949.7939305349064 10219.432489640945
950.7115311125999 10119.922399568804
951.6289032700952 10147.484470251595
952.5460470745875 10182.161790914626
953.4629625932339 10175.86586754197
954.3796498931715 10255.494178232508
955.2961090415029 10167.935930909229
956.2123401053068 10148.438057704258
957.1283431516276 10128.171857725069
958.0441182474842 10029.478523740783
958.9596654598663 10197.230100080524
959.8749848557309 10091.734192441509
960.7900765020167 10032.475630060197
961.7049404656209 9916.952755205071
962.6195768134185 9987.256371907173
963.5339856122537 9984.248641660883
964.4481669289453 9971.930776355917
965.3621208302793 9900.555448075704
966.2758473830145 9920.285906744964
967.1893466538822 10127.47957717497
968.1026187095813 9941.76461841989
969.0156636167867 9952.13316340587
969.9284814421426 10018.667505538297
970.8410722522622 9893.848973710545
971.753436113735 9875.76361793869
972.6655730931161 9862.918786722581
973.5774832569368 9916.740395149143
974.4891666716958 9911.001918616652
975.4006234038698 9814.136632096102
976.3118535198955 9798.73004392759
977.2228570861935 9965.058115745958
978.1336341691494 9908.895916251791
979.0441848351202 9844.998816611565
979.9545091504333 9991.151957644544
980.864607181391 10055.10059908745
981.7744789942699 10049.26938503669
982.6841246553086 10135.263295705317
983.5935442307236 10056.058250506296
984.5027377867027 10129.946429446562
985.4117053894024 10095.802137530285
986.3204471049557 10044.735382847062
987.2289629994648 10116.849035720643
988.1372531390007 10238.699370443124
989.0453175896091 10083.7923298723
989.9531564173067 10215.137514145597
990.860769688079 10095.572209634369
991.7681574678918 10193.01600609302
992.6753198226706 10305.434737779462
993.582256818323 10261.287537857012
994.4889685207218 10221.0830346657
995.3954549957143 10417.472130335727
996.301716309119 10336.73687364635
997.2077525267232 10392.671710681348
998.1135637142943 10374.38870589116
999.0191499375615 10432.787506145962
999.924511262232 10364.00982102702
1000.8296477539861 10480.897647193828
1001.7345594784656 10390.419970425255
1002.6392465012996 10396.468675992819
1003.5437088880753 10425.437834956047
1004.4479467043584 10492.911348569185
1005.3519600156869 10265.897558647559
1006.2557488875718 10456.47990269051
1007.1593133854858 10394.049718530305
1008.0626535748888 10374.427198347135
1008.9657695212009 10245.97674047187
1009.8686612898182 10447.172439205859
1010.7713289461135 10391.914320837273
1011.6737725554212 10427.826872612522
1012.5759921830577 10290.338571784483
1013.4779878943027 10350.52523031583
1014.379759754418 10316.973761001062
1015.2813078286254 10176.518667226786
1016.18263218213 10114.98865309688
1017.0837328801026 10223.480848461233
1017.9846099876886 10379.98132267411
1018.8852635700023 10221.525282968452
1019.7856936921362 10079.555259353594
1020.6859004191447 10187.376765925506
1021.5858838160675 10162.824230127004
1022.4856439479063 9955.077339134685
1023.3851808796389 9985.945493498626
1024.2844946762143 10106.923218946393
1025.183585402554 9988.247369792969
1026.082453123554 9834.835366778498
1026.9810979040776 9931.875513781706
1027.8795198089647 9793.951560746573
1028.777718903024 9863.336042069943
1029.6756952510368 9734.850035801066
1030.5734489177648 9728.3992578034
1031.4709799679313 9746.892674595745
1032.3682884662358 9864.53295264081
1033.2653744773506 9662.060544814396
1034.1622380659192 9623.847492612242
1035.058879296559 9824.217677570496
1035.9552982338591 9838.038988748489
1036.8514949423825 9736.562937248491
1037.7474694866614 9777.193821966637
1038.6432219312028 9889.731440624144
1039.5387523404825 9933.916455575803
1040.4340607789582 9903.515686629406
1041.3291473110476 9843.862116537593
1042.2240120011465 10074.710857700757
1043.1186549136273 10151.701358074495
1044.0130761128294 9982.102187274784
1044.9072756630649 10096.375739717196
1045.8012536286205 10375.951760783144
1046.6950100737577 10233.843855981297
1047.588545062701 10386.949184883402
1048.481858659663 10369.271451802771
1049.3749509288118 10527.132346565584
1050.2678219343034 10316.695350483591
1051.1604717402515 10432.874768611855
1052.0529004107575 10346.649780844102
1052.9451080098825 10421.995838761084
1053.8370946016694 10358.998663732182
1054.7288602501267 10430.598619258806
1055.6204050192446 10324.304056240457
1056.511728972977 10502.758765372326
1057.402832175254 10323.496613471028
1058.2937146899785 10156.58499781882
1059.1843765810263 10154.805794366372
1060.0748179122456 10318.170837788266
1060.9650387474576 10290.615460348758
1061.855039150456 10265.942492051629
1062.7448191850071 10222.929809762572
1063.6343789148505 10117.469415589221
1064.5237184037014 10180.759962440916
1065.412837715241 10055.94889101155
1066.3017369131267 10017.584638958744
1067.190416060992 10041.326936606283
1068.0788752224398 9870.725730015078
1068.9671144610438 9862.398525878789
1069.8551338403558 9946.947428742686
1070.7429334239023 10114.229654831073
1071.6305132751695 9864.607246587551
1072.517873457633 9974.242597864128
1073.4050140347335 9851.629254282177
1074.2919350698776 9873.499510533067
1075.1786366264623 9806.085270772757
1076.0651187678395 9891.28097967776
1076.95138155735 9677.423475195952
1077.8374250582929 9701.267036475674
1078.7232493339507 9754.961395488583
1079.608854447577 9681.275989105838
1080.4942404623907 9635.895822558869
1081.3794074415982 9831.483112764276
1082.2643554483657 9699.482303737115
1083.149084545841 9757.405985746029
1084.033594797138 9532.65121476551
1084.9178862653516 9638.556202025204
1085.8019590135427 9714.451524110193
1086.6858131047484 9647.000219554706
1087.5694486019802 9666.727053057974
1088.4528655682225 9641.183615686636
1089.3360640664287 9850.167975159206
1090.2190441595321 9618.484439400554
1091.1018059104317 9807.761076463428
1091.98434938201 9871.324219592196
1092.866674637111 9792.095614941618
1093.748781738559 9700.25847533706
1094.6306707491512 9599.916692786323
1095.5123417316554 9730.610638002952
1096.3937947488157 9682.426732241174
1097.2750298633455 9694.116085730519
1098.156047137938 9571.666199337636
1099.0368466352556 9773.53676386964
1099.9174284179317 9648.621203676414
1100.7977925485757 9498.456532227527
1101.6779390897755 9481.240225154095
1102.5578681040806 9460.055923638938
1103.4375796540226 9427.984436707906
1104.3170738021054 9460.276690830297
1105.1963506108077 9405.885634552333
1106.0754101425773 9450.736423456228
1106.9542524598382 9381.595199708368
1107.8328776249855 9333.455084089192
1108.7112857003904 9344.911399570896
1109.5894767483987 9302.23325553788
1110.4674508313292 9390.891137272303
1111.3452080114657 9313.370300753975
1112.2227483510815 9393.752335276278
1113.1000719124077 9459.293375404177
1113.9771787576592 9511.956997930854
1114.854068949022 9466.418770003382
1115.7307425486542 9497.843343838853
1116.6071996186893 9633.202043865464
1117.483440221229 9785.585961054234
1118.3594644183577 9793.346557965027
1119.235272272128 9688.864484206379
1120.1108638445658 9954.343704242983
1120.9862391976712 10178.960291882091
1121.8613983934229 10135.072362555911
1122.7363414937627 10119.635481754649
1123.6110685606182 10259.986962666811
1124.485579655884 10465.151581679724
1125.359874841426 10521.023571845746
1126.2339541790916 10491.027804967502
1127.1078177306936 10806.368135084394
1127.9814655580267 10545.279717557472
1128.854897722851 10736.53190121087
1129.7281142869106 10836.918120145137
1130.6011153119125 10941.606494842823
1131.473900859548 10965.494236917302
1132.3464709914697 10874.10462583447
1133.2188257693178 10948.395051262329
1134.0909652546961 10894.71995790736
1134.96288950919 10825.34268068316
1135.8345985943506 10911.942814940305
1136.7060925717087 10641.092265030142
1137.57737150277 10741.965686180432
1138.4484354490069 10641.01488986374
1139.3192844718778 10459.681027589057
1140.1899186327992 10277.61600673031
1141.060337993178 10377.586447974078
1141.930542614382 10267.394691177018
1142.8005325577597 10174.02163868902
1143.670307884635 9929.112292279704
1144.5398686563003 10028.567025273813
1145.409214934025 9845.627057052325
1146.2783467790541 9687.936227298856
1147.1472642526023 9646.608928652411
1148.0159674158622 9692.479371089405
1148.8844563300026 9462.955113537308
1149.7527310561618 9418.437886841386
1150.6207916554504 9354.615298846198
1151.4886381889592 9215.52884710061
1152.3562707177498 9367.590345858585
1153.2236893028585 9378.497493636036
1154.090894005296 9186.93387883179
1154.9578848860474 9244.847952979891
1155.8246620060709 9179.382668169132
1156.6912254262988 9215.749473561678
1157.5575752076438 9106.293168938026
1158.42371141098 9262.372103729602
1159.2896340971656 9245.608311313283
1160.1553433270346 9319.124814600706
1161.0208391613887 9159.16936813706
1161.8861216610057 9354.062756487434
1162.75119088664 9345.767167621747
1163.6160468990201 9291.463041967803
1164.4806897588442 9211.464310467085
1165.3451195267917 9501.568278740438
1166.2093362635114 9487.34088322415
1167.0733400296285 9401.903069855562
1167.9371308857444 9274.908128369098
1168.8007088924278 9477.405976768814
1169.6640741102328 9469.031451762241
1170.5272265996773 9305.599815243715
1171.390166421259 9256.53981657509
1172.252893635452 9569.398284768607
1173.1154083026995 9469.43718527034
1173.977710483421 9380.024668683163
1174.8398002380145 9203.70160775051
1175.7016776268483 9362.537902236207
1176.563342710264 9351.576729541524
1177.4247955485826 9191.329906999175
1178.2860362020947 9333.71492361851
1179.147064731069 9187.703911342911
1180.0078811957483 9303.228811731724
1180.8684856563486 9198.724154054598
1181.7288781730604 9148.993179081996
1182.589058806052 9257.238626529017
1183.4490276154593 9373.031930787187
1184.3087846614017 9127.863555829332
1185.1683300039676 9192.74129164882
1186.027663703222 9325.586084157883
1186.8867858192025 9179.122291231939
1187.7456964119228 9120.223536030873
1188.6043955413716 9221.325453613204
1189.4628832675116 9306.59745883806
1190.3211596502842 9343.942048801882
1191.179224749596 9305.193242244766
1192.0370786253388 9227.328506388789
1192.8947213373758 9389.076513155695
1193.7521529455407 9586.352538146431
1194.6093735096438 9346.29468331296
1195.466383089477 9345.715484313969
1196.3231817447977 9567.900401297235
1197.1797695353398 9561.20087056826
1198.0361465208189 9321.859189036903
1198.8923127609214 9592.358367517585
1199.7482683153048 9560.88097048461
1200.6040132436028 9537.872457737376
1201.459547605431 9487.355314447585
1202.3148714603722 9321.904499686689
1203.1699848679855 9496.480031630057
1204.0248878878065 9517.348728915162
1204.8795805793507 9334.748561429124
1205.7340630020935 9424.40896740208
1206.5883352155033 9642.531578171755
1207.4423972790064 9423.45645812264
1208.2962492520237 9361.954524873177
1209.1498911939307 9218.28236452416
1210.0033231640937 9430.813752535405
1210.8565452218427 9226.1448671472
1211.7095574264913 9216.122954917859
1212.5623598373222 9068.933653675387
1213.4149525135963 9124.502246923921
1214.2673355145507 9064.883598945658
1215.1195088993936 8965.463301454642
1215.9714727273113 8976.013881933284
1216.8232270574663 9032.196863323888
1217.6747719489904 8823.124212599507
1218.5261074609934 8779.993060118835
1219.3772336525653 8859.082551586213
1220.2281505827668 8873.725731083901
1221.0788583106296 8897.666953420729
1221.9293568951707 8753.13675200906
1222.7796463953746 8716.504882732244
1223.629726870202 8837.696359773692
1224.4795983785934 8832.616518524388
1225.3292609794553 8751.266548220865
1226.1787147316809 8578.15377582873
1227.0279596941327 8836.414009985689
1227.8769959256424 8791.83057803964
1228.7258234850306 8776.971633587724
1229.5744424310833 8682.43474396595
1230.422852822563 8847.631284568939
1231.2710547182105 8879.970457215852
1232.119048176739 8817.240567306537
1232.9668332568417 8686.207812553597
1233.8144100171812 8930.849784527938
1234.6617785163999 8898.843146556088
1235.508938813111 8801.742845428656
1236.3558909659114 8817.073061589635
1237.2026350333617 9017.816774842942
1238.049171074008 8974.207243271134
1238.8954991463652 8884.102749216434
1239.741619308932 8734.775154449437
1240.587531620169 9058.49484226132
1241.4332361385277 8895.808055243699
1242.2787329224248 8815.054399158429
1243.1240220302534 8698.125016648784
1243.9691035203869 8686.816133829208
1244.813977451171 8740.676711956627
1245.6586438809263 8642.638511746713
1246.5031028679496 8428.293560082964
1247.3473544705157 8643.235710999284
1248.1913987468706 8533.212966366971
1249.0352357552383 8435.890323767047
1249.8788655538228 8457.359410714418
1250.7222882007918 8440.019264143168
1251.565503754302 8517.6497433019
1252.4085122724755 8493.221387131796
1253.2513138134182 8497.115777782095
1254.0939084352049 8497.570637335219
1254.9362961958905 8401.255668107518
1255.7784771535007 8353.755436684394
1256.6204513660432 8423.85826587166
1257.4622188915 8632.798767204262
1258.3037797878242 8395.45565133674
1259.1451341129468 8294.91484748956
1259.9862819247755 8352.9040995203
1260.8272232811978 8419.56243846771
1261.6679582400666 8540.878336797072
1262.5084868592203 8257.9089626282
1263.34880919647 8247.269282470945
1264.1889253095997 8423.130025437598
1265.0288352563712 8377.291425717513
1265.8685390945266 8336.922089525153
1266.7080368817751 8225.304197167734
1267.5473286758115 8478.633887199441
1268.386414534294 8405.605736360765
1269.2252945148703 8148.005976237898
1270.0639686751547 8199.787839054346
1270.9024370727402 8269.65565957646
1271.7406997651997 8190.910318561876
1272.5787568100714 8159.224786251552
1273.4166082648808 8229.4015064405
1274.2542541871244 8259.20546006364
1275.091694634275 8393.30691724143
1275.9289296637817 8224.786409909757
1276.7659593330663 8129.188110313253
1277.6027836995308 8216.081823772607
1278.4394028205552 8310.455181353445
1279.2758167534867 8149.416248264713
1280.112025555658 8240.959570306939
1280.9480292843746 8309.744740158101
1281.7838279969128 8107.536141776043
1282.6194217505326 8117.403735623669
1283.4548106024686 7992.492590143241
1284.289994609926 8110.449342135345
1285.1249738300921 8226.769903536977
1285.959748320127 8096.997269699823
1286.7943181371702 8155.177856517343
1287.6286833383328 8148.068447970375
1288.4628439807038 8159.595551381198
1289.2968001213521 8061.879600505461
1290.1305518173194 8054.125621842465
1290.9640991256183 8133.122593357859
1291.7974421032523 8004.30071426558
1292.630580807183 8084.1370822943045
1293.463515294361 8091.16482124441
1294.29624562171 8142.981999320543
1295.12877184613 8077.0090647677425
1295.961094024493 8103.699072479013
1296.79321221365 8160.064914433942
1297.6251264704333 8195.763949814474
1298.4568368516466 8324.07843271935
1299.2883434140658 8141.5154794196515
1300.1196462144526 8034.5144645397795
1300.9507453095375 8139.335009507422
1301.7816407560313 8260.809502741275
1302.6123326106172 8100.573717363693
1303.4428209299622 7979.880039059567
1304.2731057707024 8270.52543836228
1305.1031871894502 8068.403653190522
1305.933065242798 8251.212595707328
1306.7627399873181 8155.905148641947
1307.5922114795467 8355.360107294024
1308.4214797760123 8411.833101666596
1309.2505449332057 8294.32743511511
1310.0794070076026 8315.310541735866
1310.9080660556538 8355.66734612505
1311.736522133786 8464.14907876871
1312.5647752983987 8288.099223858695
1313.3928256058734 8256.477698883908
1314.2206731125661 8451.216501397477
1315.048317874809 8414.477097509618
1315.8757599489109 8336.381253517136
1316.7029993911547 8414.063124612421
1317.5300362578055 8589.858123843554
1318.356870605101 8305.288003924106
1319.183502489257 8444.087952502316
1320.0099319664623 8483.085727572428
1320.836159092889 8548.72191491815
1321.66218392468 8506.258706351338
1322.4880065179532 8386.896673113883
1323.3136269288134 8466.063011004722
1324.1390452133292 8587.747987335568
1324.9642614275563 8575.486761347469
1325.7892756275214 8545.88665558655
1326.6140878692295 8372.40757321206
1327.4386982086617 8771.180778642936
1328.2631067017755 8607.234474099041
1329.0873134045069 8504.427262029767
1329.911318372764 8489.964367724748
1330.735121662441 8571.239247413778
1331.558723329399 8463.808859472676
1332.3821234294774 8467.091053905784
1333.2053220185007 8333.814590090986
1334.0283191522612 8462.40922116258
1334.851114886529 8525.998288090817
1335.6737092770582 8400.263816234557
1336.4961023795695 8315.658331778784
1337.3182942497697 8354.607564671716
1338.1402849433325 8416.99765329736
1338.962074515921 8264.978044062036
1339.7836630231632 8183.013215304211
1340.6050505206676 8566.802995120006
1341.426237064028 8391.74623501227
1342.2472227088037 8556.343665124481
1343.0680075105338 8123.5948848387725
1343.888591524741 8208.55069935426
1344.7089748069138 8412.700872460531
1345.5291574125276 8243.554143298908
1346.3491393970307 8033.6767056126455
1347.168920815846 8368.35738082981
1347.9885017243778 8313.442487912766
1348.8078821780036 8131.010885968992
1349.6270622320844 8143.235562338841
1350.4460419419447 8173.074290316574
1351.2648213629054 8267.985972727369
1352.0834005502438 7949.140132145649
1352.90177955923 8006.528129031927
1353.7199584451064 8620.591991429847
1354.5379372630887 8073.412338585664
1355.355716068374 7921.40341855052
1356.1732949161305 8090.699518244053
1356.9906738615155 8090.870031690839
1357.8078529596478 8158.415954363081
1358.6248322656375 8133.492050321276
1359.441611834567 7929.137507048998
1360.2581917214866 8201.878374073614
1361.0745719814367 7847.454927760967
1361.890752669433 7945.305601987224
1362.7067338404577 7928.2804271033
1363.5225155494845 8192.320180005625
1364.3380978514506 8086.307598844677
1365.1534808012839 7854.549025671399
1365.9686644538815 7811.075632198083
1366.783648864117 8184.660452427724
1367.5984340868417 8044.490487393535
1368.413020176893 8029.0331138994125
1369.2274071890715 7718.631624365744
1370.0415951781652 8108.15373220186
1370.8555841989346 7827.000001774328
1371.6693743061223 7792.500124502047
1372.48296555444 7908.307687105165
1373.2963579985844 7959.110642026388
1374.1095516932255 7875.094131932706
1374.9225466930166 7801.099540138137
1375.7353430525782 7824.169622982408
1376.5479408265164 7763.5528941917655
1377.36034006941 7893.054658106524
1378.1725408358216 7689.873433760031
1378.9845431802805 7592.876131910717
1379.796347157304 8067.668071117861
1380.6079528213813 7942.404863096973
1381.4193602269788 7690.567711390804
1382.230569428546 7648.497964862649
1383.0415804805016 7973.176958164319
1383.852393437246 7768.067407469181
1384.6630083531563 7807.549342498278
1385.4734252825892 7687.464082277658
1386.2836442798798 7821.404494945212
1387.0936653993322 7799.3930544755585
1387.9034886952395 7607.710684352256
1388.713114221864 7854.964255456589
1389.5225420334482 7739.823069431976
1390.331772184214 7625.499604615425
1391.1408047283585 7542.765688701945
1391.9496397200564 7644.29502761454
1392.758277213461 7711.810290565535
1393.5667172627054 7638.351346830869
1394.3749599218918 7513.3808489151415
1395.1830052451114 7454.085546305109
1395.9908532864265 7556.23940870045
1396.7985040998774 7757.8677331954095
1397.6059577394808 7420.414926998439
1398.4132142592352 7532.374188127556
1399.2202737131156 7476.798870362882
1400.027136155073 7551.462927789587
1400.8338016390353 7456.59130790818
1401.6402702189134 7438.174047234473
1402.446541948586 7521.954271582697
1403.2526168819204 7420.474076974239
1404.058495072757 7421.154115246095
1404.8641765749107 7453.887236497147
1405.6696614421799 7527.241761798071
1406.4749497283356 7675.407447820658
1407.280041487129 7444.601418911065
1408.084936772295 7254.605385377395
1408.8896356375335 7549.920725274332
1409.6941381365323 7464.917688537325
1410.498444322955 7236.859341143497
1411.3025542504402 7252.37199770651
1412.106467972606 7502.323251688002
1412.9101855430508 7337.821404512333
1413.7137070153458 7142.342625696268
1414.5170324430437 7109.348866689853
1415.320161879672 7194.047842469374
1416.1230953787435 7515.754407222523
1416.925832993742 7195.495034347878
1417.7283747781275 6996.39769174301
1418.5307207853439 7246.69089228206
1419.3328710688093 7159.310142411433
1420.134825681922 7060.266791461809
1420.9365846780584 6967.978014117337
1421.7381481105713 7342.416453019466
1422.539516032788 7255.494151330002
1423.3406884980232 7052.568790254843
1424.1416655595604 6931.246633078887
1424.942447270665 7128.412879132588
1425.7430336845828 7040.9681117099435
1426.5434248545298 7041.970179736413
1427.3436208337116 6994.748851342223
1428.143621675301 7134.185658930047
1428.9434274324558 7129.891245621843
1429.7430381583108 6931.015259610698
1430.5424539059713 6932.156925558862
1431.3416747285337 7397.520361412341
1432.1407006790632 7210.305735941531
1432.9395318106053 7001.288573641659
1433.7381681761835 6911.260166682417
1434.5366098288014 6924.128771412489
1435.3348568214424 7194.3806381053655
1436.1329092070573 6979.796391402349
1436.9307670385879 6979.152900067454
1437.7284303689503 7179.004788237942
1438.5258992510335 7277.813105806282
1439.3231737377118 7142.617371249813
1440.1202538818306 7075.597635111308
1440.9171397362225 7195.882982902249
1441.7138313536925 7145.257582936579
1442.5103287870243 6949.856386232944
1443.3066320889775 6968.059855987053
1444.1027413122956 7214.754838137267
1444.8986565096966 7052.766189557052
1445.694377733882 7100.853315898594
1446.4899050375207 6973.277264698534
1447.2852384732687 7079.740045953159
1448.0803780937622 7217.615018357397
1448.8753239516063 7006.508600897601
1449.6700760993954 6881.049371785133
1450.464634589689 7043.592730909966
1451.2589994750397 7194.124878778957
1452.0531708079689 6941.747260051541
1452.8471486409799 6838.915808187374
1453.6409330265524 7139.444471605418
1454.4345240171442 6961.334688745757
1455.2279216651987 7015.95954322147
1456.0211260231263 6843.304416400033
1456.8141371433194 7007.477635800748
1457.6069550781594 7085.6355032126085
1458.3995798799897 6774.901956772179
1459.1920116011424 6840.967870125605
1459.98425029393 6725.928249705221
1460.7762960106338 6843.695695847164
1461.5681488035225 6746.32180187551
1462.3598087248392 6690.551883311642
1463.1512758268036 6907.739165582233
1463.942550161617 6803.984118516048
1464.7336317814625 6634.729569626616
1465.524520738496 6577.302688933725
1466.3152170848552 6633.6879180842225
1467.1057208726506 6719.338368544808
1467.8960321539817 6482.783413361269
1468.6861509809169 6462.779898628913
1469.4760774055085 6506.844609680735
1470.265811479785 6667.754707243122
1471.055353255755 6401.879689107334
1471.844702785409 6504.366586519014
1472.6338601207044 6442.11884109779
1473.4228253135934 6901.106694280119
1474.2115984159936 6395.110035403467
1475.0001794798063 6156.289416351881
1475.7885685569145 6587.171239423767
1476.576765699172 6340.670375184321
1477.3647709584238 6342.376967670968
1478.1525843864802 6516.616137725692
1478.9402060351367 6555.833253651083
1479.7276359561693 6442.527326097832
1480.514874201328 6255.536192501059
1481.3019208223468 6250.512423380935
1482.0887758709323 6241.775051122151
1482.8754393987747 6415.611474834827
1483.6619114575406 6085.209228058122
1484.4481920988783 6349.293887510728
1485.2342813744108 6461.694827800069
1486.0201793357446 6455.940684078632
1486.8058860344572 6279.665650445515
1487.591401522117 6182.821965291762
1488.3767258502594 6285.996399685434
1489.1618590704056 6382.844552264682
1489.9468012340494 6159.533935118982
1490.7315523926754 6350.979380247221
1491.5161125977356 6578.8951996652995
1492.3004819006637 6310.937395173105
1493.084660352877 6218.875392604334
1493.8686480057622 6350.174376487298
1494.6524449106964 6566.854509613169
1495.4360511190262 6545.575204372397
1496.219466682087 6288.366799589627
1497.0026916511779 6360.709095167122
1497.7857260775945 6413.399265533638
1498.5685700125996 6470.321259983191
1499.3512235074395 6377.680166147567
1500.133686613337 6284.379082528226
1500.9159593814966 6285.780218773317
1501.698041863101 6618.402528680762
1502.4799341093094 6180.027961702354
1503.2616361712662 6185.754634646739
1504.043148100087 6524.2610256435055
1504.8244699468742 6484.13732170355
1505.6056017626997 6287.2064890481115
1506.3865435986281 6222.242563572882
1507.1672955056893 6600.851148737916
1507.9478575348967 6389.144044352591
1508.7282297372512 6465.972492528983
1509.5084121637192 6339.408171216226
1510.2884048652577 6446.05252525836
1511.0682078927948 6351.590500993925
1511.8478212972423 6226.559192503315
1512.6272451294917 6293.093193870368
1513.4064794404076 6503.612152214797
1514.1855242808433 6371.02602418472
1514.9643797016215 6321.884223962259
1515.743045753552 6434.404888440888
1516.5215224874191 6422.410704355608
1517.2998099539836 6151.381775479248
1518.077908203999 6415.283766918979
1518.8558172881785 6385.011536534594
1519.633537257234 6563.106020307777
1520.4110681618404 6356.7392289987965
1521.1884100526604 6530.824517703309
1521.9655629803365 6419.249819054175
1522.7425269954856 6555.246979136425
1523.5193021487103 6721.375152107391
1524.2958884905856 6314.184467923827
1525.0722860716687 6466.636577120566
1525.848494942502 6337.57933211545
1526.624515153595 6402.858445717213
1527.4003467554485 6450.961048312692
1528.175989798534 6566.72209821089
1528.9514443333064 6585.370809023533
1529.726710410203 6734.4888574917495
1530.5017880796331 6436.4617976987565
1531.276677391992 6394.995434118823
1532.0513783976457 6640.205795728204
1532.825891146953 6496.0579452627835
1533.6002156902414 6478.2162748795545
1534.3743520778207 6670.397911975751
1535.1483003599806 6590.768744988316
1535.9220605869923 6522.971609922251
1536.6956328091019 6602.719459756013
1537.4690170765407 6523.745713614962
1538.242213439511 6644.688294703524
1539.015221948208 6472.62157454383
1539.78804265279 6367.504890548783
1540.560675603405 6372.840927372504
1541.3331208501804 6642.33208989119
1542.1053784432224 6617.424931569369
1542.8774484326168 6410.8467194646055
1543.649330868422 6459.310451008931
1544.4210258006842 6614.416484836949
1545.1925332794308 6386.023949311316
1545.9638533546604 6324.451858623035
1546.7349860763552 6303.880441761681
1547.5059314944829 6599.096022486349
1548.27668965898 6428.029012377535
1549.0472606197673 6481.867972915514
1549.817644426752 6293.01507677874
1550.5878411298072 6386.357532007067
1551.3578507787988 6413.713559241693
1552.1276734235635 6374.980483184774
1552.8973091139233 6314.110738980464
1553.6667578996767 6425.874345774994
1554.436019830604 6457.054625417368
1555.20509495646 6383.3104775377815
1555.9739833269869 6225.712404317963
1556.7426849919011 6205.372889196994
1557.511200000903 6652.368035238889
1558.2795284036674 6392.579055854033
1559.0476702498509 6404.7671648882215
1559.8156255890954 6511.454138577797
1560.5833944710157 6595.649252309481
1561.3509769452048 6313.292436935501
1562.1183730612447 6406.08560188777
1562.8855828686865 6585.496273321721
1563.6526064170703 6723.722329416608
1564.4194437559127 6543.895736745892
1565.1860949347047 6356.239490726904
1565.9525600029283 6630.72263789808
1566.7188390100328 6624.875336456882
1567.4849320054564 6506.675083088297
1568.250839038612 6483.955873851196
1569.0165601588997 6472.324056410345
1569.7820954156887 6654.7370908965
1570.5474448583373 6311.638888312472
1571.31260853618 6299.489956863585
1572.0775864985299 6383.747885435513
1572.8423787946813 6491.393253761907
1573.6069854739108 6375.324750364836
1574.371406585471 6445.252595016345
1575.1356421785986 6561.114632865397
1575.899692302506 6405.932330977919
1576.6635570063845 6415.3932803943035
1577.4272363394157 6282.962638176273
1578.190730350747 6500.761502786589
1578.9540390895163 6308.8237117041235
1579.7171626048384 6284.571061843211
1580.480100945806 6184.224486803619
1581.2428541614918 6370.3600125051
1582.0054223009538 6472.512905276097
1582.767805413223 6332.42167109614
1583.5300035473156 6193.358349559996
1584.292016752228 6424.317115839069
1585.0538450769309 6352.302277268651
1585.8154885703807 6185.155166441409
1586.5769472815136 6204.4956663744
1587.3382212592405 6233.147790781292
1588.099310552463 6324.2750896104635
1588.8602152100484 6155.752545468005
1589.6209352808564 6341.005546049653
1590.3814708137234 6318.908865868825
1591.14182185746 6197.477716191499
1591.9019884608679 6246.919566800199
1592.6619706727215 6097.531471636389
1593.4217685417734 6260.177962960036
1594.1813821167616 6558.096150294659
1594.9408114464022 6058.818034028279
1595.7000565793933 6198.484914129878
1596.459117564409 6173.225890990628
1597.2179944501113 6112.312170388931
1597.9766872851324 6278.996951074227
1598.735196118092 6176.181682084554
1599.4935209975883 6289.446079223929
1600.2516619721973 6451.628257402998
1601.0096190904787 6108.897816394983
1601.7673924009723 6130.208243913269
1602.524981952196 6141.55616132558
1603.2823877926476 6155.383052633352
1604.0396099708087 6093.694436815081
1604.7966485351371 6174.114682817048
1605.5535035340745 6148.358543521086
1606.3101750160404 6278.3927244667275
1607.0666630294363 5976.622372961725
1607.822967622642 5974.835305728596
1608.5790888440224 6176.653211997884
1609.3350267419137 6268.7786096060645
1610.0907813646445 6110.491960947625
1610.8463527605145 6099.562820284909
1611.601740977805 6276.415886282338
1612.356946064785 6101.005769584763
1613.1119680696902 5973.012075762216
1613.8668070407512 5926.7288153678555
1614.6214630261748 6090.958291038739
1615.375936074137 6006.591073863373
1616.1302262328118 6154.8101932170075
1616.8843335503425 6074.848784638672
1617.638258074854 6050.324413521062
1618.391999854457 6008.189125804734
1619.1455589372363 6028.536591618459
1619.8989353712623 6131.804188597575
1620.65212920458 5974.385141998426
1621.4051404852235 6004.482258569732
1622.1579692611976 5960.818665883732
1622.9106155804966 5849.908581253179
1623.663079491087 5938.221050926649
1624.4153610409248 5931.9520339141145
1625.1674602779385 5895.661336600116
1625.9193772500403 5737.3574305092725
1626.6711120051277 6070.064444094958
1627.4226645910676 5949.60927684419
1628.174035055721 5724.581195515328
1628.9252234469168 5815.9795658597795
1629.676229812474 5743.02264542487
1630.4270542001905 6267.827691802391
1631.1776966578382 5842.1512963991045
1631.9281572331747 5783.220966873885
1632.678435973945 5863.973631048522
1633.4285329278573 5891.362072058025
1634.1784481426203 5734.428259040665
1634.9281816659113 5894.099364533913
1635.677733545388 6049.187199113631
1636.4271038286934 5865.3458052811075
1637.176292563452 5914.909268414998
1637.9252997972635 5884.864379847587
1638.674125577716 5998.102647846848
1639.4227699523672 6248.914695896377
1640.171232968767 5762.35350853487
1640.9195146744423 5996.029157125653
1641.6676151168977 6090.665154737212
1642.4155343436178 6027.723648200407
1643.1632724020765 6006.792387750863
1643.9108293397167 5939.723070596265
1644.658205203974 5985.574963759526
1645.4054000422566 6383.808198346245
1646.1524139019566 5995.645736857072
1646.8992468304423 6015.9632541010715
1647.6458988750728 5985.118885878606
1648.3923700831765 6080.739211647973
1649.1386605020743 6003.3904494335175
1649.8847701790564 6200.1561710193855
1650.6306991614038 6169.490105927094
1651.3764474963682 6057.675885074108
1652.1220152311944 5958.648751626095
1652.867402413096 6094.166240013091
1653.6126090892776 6115.687767989712
1654.3576353069184 6340.927616334911
1655.1024811131829 6159.338906134404
1655.8471465552066 6166.911384248876
1656.5916316801213 6220.786031434919
1657.3359365350298 6152.414646050658
1658.0800611670165 6104.586453441705
1658.824005623148 6069.654562880076
1659.5677699504722 6020.940099647149
1660.3113541960192 6062.018624383638
1661.054758406799 6027.415133259929
1661.7979826297997 5843.558713174415
1662.5410269119966 5951.805251986397
1663.283891300338 6224.224735731296
1664.0265758417645 5825.27767827967
1664.7690805831826 5913.154379331436
1665.5114055714948 6078.652769436422
1666.2535508535748 6191.68686332281
1666.9955164762814 5795.054980617579
1667.7373024864555 5751.088490727969
1668.478908930916 5909.54759457965
1669.220335856462 5756.047731855154
1669.9615833098778 5845.801262164503
1670.7026513379296 5557.233785204224
1671.44353998736 5710.920262775386
1672.1842493048916 5789.564468978536
1672.9247793372379 5668.485714658859
1673.6651301310812 5800.187516358713
1674.4053017330934 5561.458276390422
1675.1452941899242 5739.942349925585
1675.885107548207 5396.836148592044
1676.6247418545518 5435.359956314978
1677.3641971555535 5459.447125536824
1678.1034734977893 5592.98822585154
1678.8425709278108 5487.247377661415
1679.5814894921605 5480.091409764698
1680.320229237359 5384.118501849686
1681.0587902098978 5567.657589923201
1681.7971724562685 5423.628422998344
1682.5353760229264 5481.0361639904
1683.2734009563173 5479.368187278122
1684.0112473028657 5341.359426376393
1684.7489151089794 5392.4123821895955
1685.4864044210462 5359.884529397841
1686.2237152854377 5281.2982620176135
1686.960847748498 5407.599928336631
1687.6978018565642 5110.8501200278215
1688.434577655944 5148.628090625175
1689.1711751929379 5085.116963779393
1689.9075945138156 5188.546228478211
1690.6438356648396 5002.217050526435
1691.3798986922448 4923.784794894228
1692.1157836422499 5152.167727676811
1692.851490561059 5017.067786098059
1693.587019494853 4971.762291866427
1694.3223704897991 4993.863823885294
1695.0575435920364 4767.508466523463
1695.792538847696 4989.755886283644
1696.527356302886 4857.018805337071
1697.2619960036936 4764.296918156717
1697.9964579961907 4831.701574423041
1698.730742326432 4524.6714110728035
1699.4648490404488 4538.055801988791
1700.1987781842563 4588.171911037262
1700.9325298038548 4975.566840159547
1701.6661039452174 4862.662256380501
1702.3995006543082 4704.284422798022
1703.1327199770658 4728.721278286992
1703.865761959416 4641.000149587485
1704.598626647261 4913.70757490139
1705.3313140864866 4587.311430960896
1706.0638243229587 4605.256150772352
1706.7961574025303 4766.338846159973
1707.528313371029 4636.191682695934
1708.260292274268 4410.374696990855
1708.9920941580403 4585.225086552842
1709.7237190681226 4475.999267091096
1710.4551670502697 4533.5686602980295
1711.18643815022 4258.513994144359
1711.9175324136959 4701.723701473871
1712.6484498863938 4379.027091523794
1713.379190614005 4281.674187245066
1714.109754642188 4466.570698609276
1714.8401420165883 4305.909984933741
1715.570352782839 4547.526113278933
1716.3003869865497 4652.81931013191
1717.0302446733076 4285.388405890724
1717.7599258886876 4285.536963756758
1718.4894306782444 4620.644939825472
1719.2187590875183 4327.390416903345
1719.9479111620203 4405.075829547533
1720.6768869472544 4384.12616091466
1721.4056864887025 4561.598456689396
1722.1343098318284 4506.341824643359
1722.8627570220742 4243.989097145808
1723.591028104871 4216.110871393728
1724.3191231256242 4139.216348931377
1725.0470421297232 4256.708117356942
1725.7747851625427 4393.630426854516
1726.5023522694337 4275.891142652023
1727.2297434957363 4321.933191002082
1727.9569588867635 4140.948296212005
1728.6839984878152 4386.577917541957
1729.4108623441734 3967.9552275064752
1730.1375505011038 4323.822864910479
1730.8640630038426 4164.716914903139
1731.5903998976264 4100.470188963734
1732.316561227657 4368.209576304809
1733.0425470391274 4132.193672113226
1733.7683573772065 4260.07272003612
1734.4939922870508 4174.047717648977
1735.2194518137949 4014.673848315365
1735.9447360025606 4168.442674390461
1736.669844898439 4107.273723592414
1737.3947785465189 4038.0318709225116
1738.1195369918605 4060.7120437923813
1738.8441202795093 4074.689242075093
1739.5685284544943 4051.6547189649546
1740.292761561821 4172.993195284324
1741.0168196464838 4144.1782924546815
1741.7407027534518 4109.111562195218
1742.464410927687 4209.746093603068
1743.187944214118 4080.4433733286764
1743.9113026576688 4031.805694069638
1744.634486303241 4203.884215015804
1745.3574951957125 3997.406840460456
1746.0803293799509 4034.8320659642695
1746.8029889008048 3980.09223664948
1747.5254738031017 4226.928243657604
1748.2477841316504 3991.0835379768746
1748.969919931249 4039.143216383252
1749.6918812466665 4071.8117245354615
1750.4136681226646 4255.548219335722
1751.1352806039777 4028.9243341463784
1751.856718735331 3899.713156511904
1752.5779825614281 3997.175451008152
1753.2990721269507 3988.4608136600336
1754.0199874765676 4151.0385919039445
1754.7407286549314 3960.0778964473307
1755.4612957066693 3991.6225364845545
1756.1816886763954 3974.4541031121325
1756.9019076087097 3980.250139752112
1757.6219525481865 4205.394629539294
1758.3418235393856 4102.391316308596
1759.061520626854 4081.909302342951
1759.7810438551096 4032.141755916152
1760.5003932686614 3888.1538921796173
1761.2195689119999 4174.594151459611
1761.938570829594 3855.726707094459
1762.657399065898 3937.1328123742446
1763.376053665348 3910.4994416520544
1764.0945346723602 3836.9778810446587
1764.812842131334 4140.465654408453
1765.5309760866512 3829.801624087165
1766.2489365826787 3886.060196096069
1766.9667236637597 4002.5610811702873
1767.684337374223 3728.6110681572804
1768.401777758383 3783.8581016760777
1769.1190448605284 3731.7531522672407
1769.836138724937 3812.7326839400157
1770.5530593958665 4025.6264928692144
1771.2698069175603 4127.058794690101
1771.9863813342326 3987.0129106057816
1772.702782690094 4086.7654454649382
1773.4190110293293 3989.7232800557917
1774.1350663961111 3911.2819109471993
1774.8509488345844 3803.6320785198864
1775.5666583888924 3907.9193753881127
1776.2821951031437 3980.195567625403
1776.9975590214362 3920.549681923072
1777.7127501878585 4240.144631395227
1778.4277686464684 3915.748692328165
1779.1426144413108 4152.856078172921
1779.8572876164162 4052.14482009082
1780.571788215797 3838.3129890155797
1781.2861162834415 3816.31499090401
1782.0002718633277 3930.3143973215556
1782.7142549994132 3729.6971811723006
1783.4280657356376 3844.486782294744
1784.141704115922 3773.717738238252
1784.855170184177 3907.623113874122
1785.5684639842839 3875.852525949961
1786.2815855601148 3650.6347310941446
1786.9945349555237 3869.2699510064203
1787.707312214343 3667.311764962457
1788.4199173803918 3906.1307511522077
1789.132350497468 3702.0221476456527
1789.8446116093583 3731.6908909463577
1790.556700759822 3874.6684874619277
1791.2686179926077 3659.277228650272
1791.9803633514493 3718.806239420393
1792.6919368800554 3636.523985412675
1793.4033386221236 3909.1272719685803
1794.1145686213295 3746.6063525676764
1794.8256269213307 3911.7553797631167
1795.536513565774 3869.175474167666
1796.247228598284 3561.6710563954402
1796.9577720624693 3723.772144669787
1797.6681440019165 3771.9568264750924
1798.3783444602013 3866.178200472624
1799.0883734808776 3849.292071978616
1799.7982311074884 3815.681145548274
1800.5079173835475 3667.1579100279073
1801.2174323525633 3906.8592521314067
1801.9267760580187 3757.721877427768
1802.635948543386 3801.5759756396037
1803.3449498521113 3714.7027188389425
1804.0537800276325 3711.2135043095354
1804.7624391133668 3659.6850367545157
1805.47092715271 3616.416293186194
1806.1792441890484 3578.15138800408
1806.8873902657433 3894.992044764325
1807.5953654261448 3691.024109589279
1808.3031697135812 3687.863724030769
1809.0108031713662 3633.14333882503
1809.71826584279 3734.66897285659
1810.425557771141 3710.488118980208
1811.1326789996747 4209.193403431223
1811.839629571632 3787.2858869728566
1812.5464095302468 3599.882262148797
1813.2530189187182 3788.385279820196
1813.959457780249 3711.5451842465577
1814.6657261580076 3757.3307447582133
1815.371824095153 3649.4829598490555
1816.0777516348262 3807.359625196761
1816.78350882015 3427.9095058413614
1817.4890956942272 3564.3186066364856
1818.1945123001533 3653.2792464136573
1818.8997586809928 3758.3167518900273
1819.6048348798067 3610.449230174556
1820.3097409396287 3695.4026380612495
1821.0144769034796 3875.0900376558884
1821.7190428143622 3703.994158474158
1822.423438715261 3877.5545024137755
1823.1276646491478 3689.0922849212925
1823.8317206589727 3688.4870472868884
1824.5356067876692 3591.958563571051
1825.2393230781581 3719.679782483699
1825.942869573335 3547.3208874646552
1826.646246316086 3568.261804088277
1827.3494533492758 3738.9272762860746
1828.052490715756 3722.162123440895
1828.7553584583547 3645.741392549108
1829.458056619891 3720.032005740769
1830.1605852431585 3550.3585917717865
1830.8629443709433 3518.840354467769
1831.5651340460063 3586.8916012815293
1832.2671543110919 3699.0378190904703
1832.9690052089318 3617.5361335218527
1833.6706867822395 3565.751544693322
1834.3721990737104 3811.5165733956574
1835.0735421260233 3731.8940061273315
1835.774715981841 3678.152684630945
1836.4757206838058 3862.3095674492565
1837.1765562745459 3353.983461553681
1837.8772227966747 3373.644069785748
1838.5777202927839 3626.879661759547
1839.2780488054523 3558.5407361618063
1839.9782083772352 3498.9498937463554
1840.6781990506806 3740.329103218871
1841.378020868313 3622.946463069541
1842.0776738726418 3611.87709986829
1842.777158106157 3578.748100316507
1843.4764736113375 3460.0765460386283
1844.1756204306403 3732.4817414321324
1844.8745986065078 3614.724359253453
1845.5734081813607 3381.9314056201265
1846.2720491976124 3415.5184918884406
1846.970521697649 3536.3974689468682
1847.6688257238511 3474.0419896973735
1848.3669613185684 3546.2171800399497
1849.0649285241452 3411.939304741255
1849.7627273829057 3558.3546865623002
1850.460357937156 3741.173495026919
1851.1578202291857 3265.455980118073
1851.8551143012664 3642.3767246746656
1852.5522401956569 3644.5165918842986
1853.2491979545957 3753.3290093108335
1853.9459876203055 3477.9135576829913
1854.6426092349902 3446.7273521323914
1855.3390628408451 3515.1211085024283
1856.0353484800362 3742.6854536311685
1856.7314661947203 3554.6664033881416
1857.4274160270397 3334.5021420428166
1858.123198019115 3545.546813820759
1858.8188122130487 3395.176665300565
1859.5142586509319 3460.205325247295
1860.209537374838 3404.8274456891145
1860.9046484268183 3405.708767989895
1861.599591848917 3716.4613564912697
1862.294367683151 3498.5674813397004
1862.988975971528 3342.014935521003
1863.6834167560355 3621.068479788447
1864.3776900786452 3524.3819483814686
1865.0717959813119 3255.921579501138
1865.7657345059724 3420.435507008947
1866.4595056945564 3520.7087431983505
1867.1531095889586 3641.33936780452
1867.846546231076 3427.584028703173
1868.5398156627743 3675.3934303868023
1869.2329179259123 3433.4458996922854
1869.9258530623283 3590.606984436924
1870.618621113843 3422.6324621571925
1871.3112221222636 3307.8099901756323
1872.0036561293764 3419.300069750198
1872.695923176956 3457.9292212193477
1873.3880233067594 3566.0717846413836
1874.0799565605212 3429.673981350273
1874.7717229799673 3459.622127071473
1875.4633226068036 3600.7703527134167
1876.1547554827175 3554.2701182197648
1876.8460216493859 3460.026402906917
1877.5371211484617 3431.9135020978965
1878.2280540215852 3476.2581236438696
1878.9188203103804 3302.8564232895633
1879.6094200564548 3404.66528037546
1880.299853301396 3495.059160301537
1880.9901200867826 3486.17296719492
1881.6802204541673 3359.139863217721
1882.3701544450942 3461.11763809089
1883.059922101087 3342.664535715987
1883.7495234636517 3592.3794027111353
1884.4389585742792 3353.52585006163
1885.1282274744517 3214.9915627061137
1885.8173302056166 3794.01990898283
1886.506266809225 3360.252546819475
1887.195037326701 3334.8592802445974
1887.8836417994517 3417.5985753382056
1888.5720802688702 3658.7915181511753
1889.260352776333 3512.093462271092
1889.9484593632042 3482.561798585798
1890.63640007082 3285.47619015633
1891.3241749405151 3358.997160481535
1892.0117840135954 3535.017842615701
1892.6992273313572 3307.9790848490243
1893.3865049350788 3355.6740522123205
1894.0736168660223 3613.045552894551
1894.7605631654333 3325.859095173989
1895.4473438745408 3372.432545690811
1896.133959034556 3570.399440437727
1896.820408686679 3322.676424029293
1897.506692872088 3498.0062841054373
1898.192811631945 3450.3263270240436
1898.8787650073991 3442.4028265105176
1899.5645530395832 3540.4115867018613
1900.2501757696118 3566.3268101700014
1900.9356332385796 3180.3889920144607
1901.620925487574 3654.410193067968
1902.3060525576602 3433.5864696739104
1902.9910144898859 3549.550058270476
1903.6758113252872 3278.6427911043647
1904.3604431048789 3389.569853009388
1905.0449098696663 3354.12314542241
1905.7292116606295 3273.9238306776597
1906.4133485187394 3457.443549200039
1907.0973204849488 3100.108487761818
1907.7811276001976 3228.8007682514785
1908.4647699053967 3399.794085845252
1909.1482474414588 3185.8467521406237
1909.8315602492694 3256.792394026645
1910.5147083696957 3483.864912312044
1911.1976918436012 3331.3932645910254
1911.880510711815 3289.8507017013535
1912.5631650151681 3521.6110257670603
1913.2456547944657 3328.777271513528
1913.927980090495 3232.4536471833744
1914.6101409440362 3226.4371629776474
1915.2921373958416 3334.96013321758
1915.9739694866603 3221.8873122788395
1916.655637257214 3605.3682272914457
1917.3371407482136 3370.2257280776403
1918.0184800003572 3439.4517362920824
1918.6996550543154 3473.4673975076958
1919.3806659507554 3394.214209825595
1920.0615127303208 3348.093567843206
1920.7421954336423 3417.8394043300736
1921.4227141013343 3383.458688620473
1922.103068773993 3353.6330261075427
1922.783259492202 3499.6309728066467
1923.4632862965227 3311.7715612584893
1924.1431492275078 3291.489602427894
1924.8228483256917 3190.2704842732805
1925.5023836315922 3412.6962420204195
1926.1817551857057 3072.7702694064524
1926.8609630285227 3310.655413975989
1927.5400072005123 3263.9238458462837
1928.218887742125 3179.851972906511
1928.8976046938005 2999.344849905724
1929.5761580959588 3274.3730198501557
1930.2545479890086 3406.592184893855
1930.9327744133352 3134.2403764396945
1931.6108374093164 3414.566609609183
1932.2887370173066 3513.754187394926
1932.9664732776473 2887.856377327425
1933.6440462306673 3330.143222578214
1934.3214559166754 3036.039380755855
1934.9987023759659 3528.429317151583
1935.675785648813 3413.7074538036672
1936.3527057754836 3055.0652325414317
1937.029462796223 3540.4486995956113
1937.70605675126 3215.5025070267725
1938.3824876808085 3152.4663626656816
1939.058755625072 3011.2701512683266
1939.7348606242267 3211.1122547983023
1940.4108027184448 3194.770022533321
1941.0865819478713 3579.7300267819555
1941.7621983526478 3082.540596531276
1942.4376519728921 3115.743458753387
1943.1129428487038 3122.1199567276435
1943.7880710201734 3302.181854003359
1944.4630365273733 3315.338664894927
1945.1378394103576 2948.4477500276826
1945.8124797091714 2937.46118923256
1946.4869574638324 2926.3500857506556
1947.161272714353 3145.2252716593985
1947.8354255007234 3317.114539591974
1948.5094158629272 3188.6710984959996
1949.1832438409183 3310.5234942810544
1949.8569094746435 3284.442265258914
1950.530412804037 3432.746812031944
1951.2037538690092 3371.78914490204
1951.8769327094578 3166.0230585015197
1952.5499493652678 3138.604393741701
1953.222803876306 3240.3457118823235
1953.895496282421 3184.439862093249
1954.5680266234522 3105.8834613056797
1955.2403949392155 3236.61253434991
1955.9126012695142 3019.2756431915495
1956.5846456541403 3243.6724415384097
1957.2565281328643 3095.402084858954
1957.9282487454457 3185.442598110355
1958.5998075316202 3359.8325304898303
1959.27120453112 3207.787371225906
1959.9424397836501 3162.3522924630206
1960.613513328908 3267.8239132682656
1961.2844252065697 3363.6307773260937
1961.9551754563017 3344.638069214413
1962.6257641177453 2955.117762199886
1963.29619123054 3083.952413103256
1963.966456834296 2920.6477374078104
1964.6365609686181 3093.646516263231
1965.306503673086 3213.5569955944025
1965.976284987275 3059.590941833882
1966.645904950734 3082.8288097814807
1967.315363603002 2981.708672041415
1967.9846609836077 3046.1274968599328
1968.6537971320486 3134.1392360773016
1969.3227720878222 3080.8758321874416
1969.9915858904042 3006.778839487566
1970.660238579252 3281.4783398093664
1971.3287301938108 3099.9152429740107
1971.997060773514 2888.8196495294274
1972.665230357772 3149.855885209866
1973.3332389859843 2832.29636254387
1974.0010866975335 2991.2083050828687
1974.6687735317864 3086.059436335817
1975.3362995280932 3298.225069770163
1976.003664725793 3280.08459472657
1976.6708691642052 2724.7227677899023
1977.3379128826364 3132.5513211995403
1978.004795920373 3225.0751411324604
1978.6715183166925 3516.824355804187
1979.3380801108524 2888.850003026395
1980.0044813420973 3152.893042633562
1980.6707220496555 2965.3311723969005
1981.3368022727373 2906.5781869544403
1982.0027220505417 3362.767743720019
1982.66848142225 2802.5001317089354
1983.3340804270283 2846.2485039315557
1983.999519104027 3126.7721864012155
1984.6647974923835 3249.352863821966
1985.329915631215 3332.9713516410397
1985.99487355963 3093.9022003385876
1986.6596713167146 3354.416935857389
1987.3243089415428 3086.438659759114
1987.9887864731754 3380.4551657178504
1988.6531039506553 2845.523732691664
1989.3172614130071 3340.7715764502364
1989.9812588992481 3115.2527528297405
1990.645096448372 3035.067718761268
1991.3087740993633 3061.1089372434785
1991.9722918911848 3037.577334312666
1992.635649862792 3014.037427433813
1993.2988480531185 3269.7518643692347
1993.9618865010852 3353.2825542561404
1994.6247652455968 3037.2667140764975
1995.287484325545 2902.0428371762955
1995.9500437798033 3031.7902535172875
1996.6124436472292 2925.1027830081252
1997.2746839666706 3228.1133267284945
1997.936764776954 2987.436284131872
1998.598686116895 3045.334473603751
1999.2604480252903 3423.3600369804326
1999.9220505409212 2984.6283245844706
2000.5834937025593 2989.9313246076367
2001.2447775489582 3030.0345017149457
2001.9059021188514 3053.492655994691
2002.5668674509616 2931.350219729638
2003.2276735839987 3060.527005181054
2003.8883205566508 3245.4629845223494
2004.5488084075987 2977.9820105167573
2005.2091371755014 2960.379319645006
2005.8693068990033 2998.7547424421277
2006.5293176167397 3101.620821902504
2007.1891693673224 2844.245272687439
2007.848862189354 2742.2673029011644
2008.5083961214223 3233.372201700506
2009.1677712020955 2898.1071519756674
2009.8269874699254 2713.1980322521567
2010.4860449634598 2711.978615469152
2011.1449437212177 2710.915872862184
2011.8036837817108 3055.45798249924
2012.4622651834325 3152.0034820457017
2013.1206879648653 3167.1910462578403
2013.7789521644736 3305.347078814142
2014.4370578207036 2949.7192479819164
2015.0950049719922 2891.0083268573353
2015.7527936567585 3015.5675267420293
2016.4104239134067 2992.5179154155726
2017.067895780323 3334.2269547228134
2017.725209295886 3384.451688818769
2018.3823644984514 3434.7339096590886
2019.0393614263648 2892.401630259691
2019.6962001179545 2718.6904948653287
2020.3528806115355 3050.3937110603333
2021.0094029454067 2884.965697570706
2021.6657671578487 2916.70549516705
2022.321973287133 2917.619066628643
2022.9780213715148 2990.4247545235885
2023.6339114492293 3093.650115026673
2024.2896435585026 2995.4036094289913
2024.9452177375442 2866.864080087161
2025.600634024544 3250.029912725812
2026.2558924576842 2945.687713904876
2026.9109930751292 2986.4545637944693
2027.565935915025 2795.492992557806
2028.2207210155066 3137.8214638861655
2028.8753484146964 3222.4919318494494
2029.529818150695 2603.8464429530204
2030.1841302615903 3146.7972239170126
2030.8382847854573 2834.7680836582326
2031.4922817603601 2792.80845294996
2032.1461212243357 3035.1786613290287
2032.7998032154192 2663.683074435119
2033.4533277716218 3003.4452852637905
2034.1066949309443 2807.3651971367653
2034.7599047313688 2976.8693246203784
2035.4129572108704 3224.6030831253292
2036.0658524074006 3040.9101941555978
2036.7185903589016 2946.2458205697576
2037.3711711032956 3040.191513749291
2038.023594678496 2956.7783891830754
2038.675861122394 2703.312142499849
2039.3279704728757 3113.402660902765
2039.9799227678031 2579.8802244474477
2040.6317180450278 2749.4710396977175
2041.2833563423865 2850.72720269583
2041.9348376977014 2938.8741543122896
2042.5861621487784 3034.9132746469236
2043.2373297334088 3104.2202349009867
2043.8883404893695 2877.7311772896824
2044.5391944544208 3158.674464262043
2045.1898916663158 2935.665282290587
2045.8404321627804 3226.62757907182
2046.4908159815368 2773.239972867675
2047.1410431602853 2797.367711436109
2047.7911137367173 2668.898848935799
2048.441027748504 2994.33015171336
2049.090785233302 2816.213193007199
2049.7403862287592 2625.5342859178613
2050.389830772503 2606.518518434232
2051.0391189021466 2587.5583893229805
2051.688250655294 2882.3306733837935
2052.337226069527 2821.0725807972217
2052.986045182417 3040.2213861051364
2053.634708031521 2641.5433384350226
2054.283214654375 2944.7363895550457
2054.931565088511 2627.989964925932
2055.579759371436 2724.0156175691677
2056.2277975406523 2800.8573407239537
2056.8756796336384 3128.663254912609
2057.5234056878617 2654.0965297538987
2058.1709757407752 2856.880535242284
2058.8183898298194 3000.529023151682
2059.465647992416 2913.94185357632
2060.1127502659747 2975.530461878838
2060.759696687888 2752.60499939381
2061.4064872955405 3121.2377476740744
2062.053122126292 3023.102799399324
2062.699601217497 2632.615898762781
2063.345924606485 2778.5007867921727
2063.992092330587 2904.219564961443
2064.638104427102 2788.4344762352966
2065.283960933324 3118.800636189427
2065.92966188653 3003.1240618993716
2066.5752073239855 3015.7723296793874
2067.2205972829397 2689.699344564752
2067.86583180062 2855.790103491811
2068.5109109142522 2709.176412888385
2069.15583466104 2775.318178017153
2069.8006030781708 2841.5243224090195
2070.445216202821 2793.8432503518634
2071.089674072153 3096.0353607894144
2071.7339767233116 2982.261516592687
2072.3781241934303 2768.0065738044586
2073.0221165196253 2938.2816819582217
2073.6659537390024 2918.1056585419815
2074.3096358886505 2997.4342777804454
2074.953163005637 2559.0229487913525
2075.596535127028 2721.9347353327043
2076.2397522898664 2664.147281207245
2076.882814531182 2826.2426219814565
2077.5257218879924 2845.2529631071725
2078.1684743973 2633.7136194775076
2078.8110720960885 2603.210710339897
2079.453515021336 3240.9953108403215
2080.095803209997 2906.1652490681445
2080.7379366990135 2780.111933524405
2081.37991552532 2805.691568368191
2082.0217397258275 2864.6364476812914
2082.6634093374414 2617.391930270066
2083.3049243970418 2926.449670547829
2083.9462849415067 2700.0142680931967
2084.587491007689 2861.107650538169
2085.2285426324324 2903.7455927497185
2085.869439852564 2894.622130048553
2086.510182704902 2546.7225439978906
2087.1507712262483 2539.686778342334
2087.791205453381 2532.589964386082
2088.4314854230743 2818.7643274613843
2089.0716111720867 2701.5525930398608
2089.7115827371617 2623.6588339229647
2090.351400155023 2624.7606800500876
2090.991063462385 2625.9978120772626
2091.6305726959527 2457.3622408821843
2092.2699278924047 3085.8832741893752
2092.9091290884153 2765.9071747755233
2093.548176320641 2589.001949685792
2094.187069625721 2887.7338244857438
2094.8258090402887 2481.1155318169513
2095.464394600951 2792.108589895385
2096.102826344313 2790.4948030524333
2096.741104306955 2935.733587404769
2097.379228525453 2579.144176221681
2098.017199036358 2697.391042520083
2098.6550158762147 3079.8818065105334
2099.2926790815527 2765.8544213319083
2099.9301886888825 2883.4109984776037
2100.5675447347076 2912.4968452323005
2101.2047472555114 3138.1186098292646
2101.841796287761 2693.543148834014
2102.47869186792 2684.559301203154
2103.1154340324265 2806.2108172795756
2103.752022817709 2734.3742462276064
2104.388458260184 2807.5916635639815
2105.024740396251 2827.3875776029213
2105.660869262292 2614.677148811264
2106.296844894685 3114.4200739065814
2106.93266732978 2742.666400350306
2107.5683366039284 2524.5082006975435
2108.2038527534532 2701.357307053073
2108.8392158146726 3017.883328101998
2109.4744258238843 2693.708005640682
2110.1094828173755 2709.1792247004287
2110.744386831422 3190.878314608123
2111.3791379022787 2660.7755865883382
2112.01373606619 3012.115746816773
2112.648181359389 2656.9432856153576
2113.28247381809 2828.718525530644
2113.916613478492 2804.421949261544
2114.550600376786 2861.2518784474273
2115.1844345491445 2935.0691678948465
2115.818116031729 2567.2426705738735
2116.451644860679 2775.757343082302
2117.085021072133 2551.7627429871927
2117.718244702204 2683.521849121882
2118.3513157869984 2637.0693553425767
2118.984234362604 2531.7375284497693
2119.617000465092 2706.2867223261937
2120.249614130529 3014.506040874068
2120.8820753949585 2654.1930993369274
2121.5143842944162 2597.5160646026875
2122.14654086492 2467.2701376212904
2122.7785451424734 2918.1647844650583
2123.4103971630702 2510.574410475171
2124.042096962681 2849.8288001933424
2124.6736445772767 2620.504091919115
2125.305040042802 2731.4976440718992
2125.936283395191 2653.6078859448376
2126.567374670365 2690.5142823618553
2127.198313904233 2429.7653545296766
2127.8291011326855 2488.91280960074
2128.4597363916037 2547.888243376491
2129.0902197168507 2671.95833929725
2129.720551144279 2503.5864425075315
2130.3507307097225 2883.877748645079
2130.980758449008 2949.2713609919188
2131.6106343979427 2518.415228457986
2132.2403585923203 2832.8485223801135
2132.8699310679276 2866.714877763717
2133.499351860526 2954.252331106003
2134.1286210058715 2951.9400821065897
2134.7577385397053 2533.520524314388
2135.3867044977487 2698.7569339867305
2136.0155189157176 3052.046645864351
2136.644181829308 2866.323213650827
2137.2726932742025 2699.303623946128
2137.901053286074 2907.1430821128647
2138.5292619005777 2560.671655785268
2139.1573191533535 2745.0764487693546
2139.7852250800315 2743.7782233203084
2140.4129797162295 2836.9219009611325
2141.0405830975433 2538.5095418461683
2141.6680352595613 2442.5723934326616
2142.2953362378576 2346.479222014035
2142.9224860679915 2568.5911192797894
2143.549484785508 2512.93226984695
2144.1763324259373 2753.3545977498234
2144.803029024799 2734.4173465925733
2145.429574617594 2695.018342241629
2146.0559692398165 2942.2111162575093
2146.682212926942 2480.7978632947356
2147.308305714432 2764.621854692271
2147.9342476377333 3000.3168407016788
2148.5600387322847 2634.3070213998503
2149.185679033506 2805.2502952074365
2149.8111685768017 2724.300562661206
2150.4365073975678 2578.4495694619936
2151.061695531187 2566.6441651028185
2151.686733013021 2887.200610583156
2152.311619878423 2769.969029383078
2152.9363561627342 2757.499321673801
2153.560941901278 2495.027092593425
2154.1853771293663 2855.1583437707454
2154.809661882293 2767.590539416309
2155.433796195348 2910.7253417507636
2156.0577801037944 2787.6414550446125
2156.681613642895 2894.2973671013783
2157.3052968478896 2725.618426146467
2157.928829754006 2670.0053359735707
2158.552212396462 2806.227974161845
2159.1754448104566 2732.8587871662135
2159.7985270311783 2431.611766711775
2160.4214590938027 2333.964542848151
2161.0442410334927 2365.4453615276657
2161.6668728853874 2736.8317303891477
2162.289354684628 2555.7373562739053
2162.911686466332 2653.8166971317105
2163.533868265602 2815.4810959845695
2164.1559001175337 3034.3544219839814
2164.7777820572046 2825.3995429189304
2165.399514119681 2651.0643192086386
2166.021096340013 2855.1428005467124
2166.6425287532384 2412.086212705351
2167.263811394385 2583.3199270105547
2167.8849442984574 2830.6211309095756
2168.505927500455 2371.982189918619
2169.126761035366 2775.4762064427455
2169.7474449381552 2452.18712310083
2170.367979243778 2372.984679916444
2170.9883639871823 2718.296355373961
2171.608599203293 2641.995231449902
2172.2286849270276 3080.5952303241447
2172.8486211932886 3046.534384196849
2173.4684080369625 2378.48632448619
2174.0880454929265 2494.944213392593
2174.7075335960417 2445.2127828596595
2175.3268723811543 2757.746695496832
2175.9460618831 2607.6178603603757
2176.565102136701 2557.93726608516
2177.1839931767627 2569.924557369781
2177.802735038078 2581.980439805437
2178.421327755432 2458.9431712647615
2179.0397713635866 2483.493535144996
2179.658065897298 2201.041649683828
2180.276211391305 2588.6017196909006
2180.8942078803357 2479.2680363589498
2181.5120553991 2539.6797737801844
2182.129753982299 2337.350834887766
2182.7473036646206 2554.7513926040833
2183.3647044807367 2446.132654017374
2183.9819564653044 2410.0123083086123
2184.599059652968 2726.848194147273
2185.216014078367 2842.1702218927285
2185.832819776113 2809.157947399385
2186.4494767808137 2775.9065785371395
2187.065985127063 2694.9689037186226
2187.682344849436 2493.0264248243366
2188.298555982501 2876.2877917040523
2188.9146185608097 2827.0968782571663
2189.530532618901 2626.9936369593147
2190.1462981912937 2536.6822381442616
2190.761915312507 2619.0830845643054
2191.377384017036 2694.929071556315
2191.9927043393654 2626.565685350529
2192.6078763139667 2247.124358315875
2193.2228999753006 2296.4872372961013
2193.837775357808 2345.9900964095623
2194.452502495922 2285.438307962898
2195.0670814240602 2476.7994193235163
2195.6815121766285 2497.126529449679
2196.2957947880186 2468.7570731619517
2196.9099292926057 2440.3389397950846
2197.523915724758 2788.0698649793726
2198.137754118825 2541.821713781359
2198.7514445091456 2758.2693558582137
2199.3649869300443 2513.039926188199
2199.9783814158327 2743.9879160156415
2200.5916280008096 3162.3227811509228
2201.2047267192593 2840.7916169316945
2201.8176776054515 2572.5734443638435
2202.430480693649 2323.1441572359176
2203.0431360180955 2637.568266371518
2203.6556436130195 2680.0191969544026
2204.268003512645 2197.1313658947424
2204.8802157511727 2575.7163881880556
2205.492280362796 2866.020971586343
2206.1041973816937 2539.829196050893
2206.715966842032 2634.6951912915833
2207.3275887779655 2283.2051849010286
2207.93906322363 2324.1860989842257
2208.550390213153 2639.4187418381744
2209.1615697806465 2439.190883685696
2209.7726019602105 2187.4460683155585
2210.3834867859277 2269.401849492163
2210.9942242918787 2490.937638391795
2211.6048145121167 2473.7199789878223
2212.2152574806914 2922.742673822873
2212.825553231638 2437.6333360440603
2213.435701798975 2501.7822072665253
2214.045703216707 2566.274172613953
2214.655557518832 2262.221869846714
2215.2652647393297 2136.6493101989536
2215.874824912169 2246.726033918162
2216.4842380713 2542.0153407409193
2217.09350425067 2559.383116969285
2217.7026234842033 2356.09924510509
2218.311595805819 2640.018367149386
2218.9204212494133 2457.5799551348055
2219.52909984888 2769.157354916577
2220.137631638092 2201.1226218187494
2220.7460166509154 2591.533089495469
2221.354254921198 2637.0291969770487
2221.9623464827764 2742.8220759517926
2222.5702913694713 2479.6085969026694
2223.178089615096 2588.31684375538
2223.7857412534486 2418.024903079049
2224.39324631831 2186.898337313933
2225.000604843457 2373.424393769517
2225.607816862641 2932.4868529916084
2226.214882409611 2643.105576669631
2226.8218015180973 2629.149679280099
2227.4285742218217 2282.336243303975
2228.0352005544864 2564.4326659068447
2228.6416805497847 2315.3569250103965
2229.248014241399 2577.330568610937
2229.8542016629945 2585.2131136819894
2230.460242848223 2593.1510536651513
2231.0661378307304 2909.524671312205
2231.671886644139 2423.441343970133
2232.277489322065 2517.9401626849126
2232.8829458981127 2015.0959884173644
2233.48825640587 2559.00038159715
2234.0934208789095 3121.096912899059
2234.6984393507955 2849.3428161134098
2235.3033118550793 2835.2929402611417
2235.9080384252975 2481.441260538085
2236.5126190949723 2229.3386721873185
2237.1170538976166 2321.7014670814237
2237.721342866729 2064.7906064615763
2238.32548603579 2490.8629640084455
2238.9294834382763 2460.654904935232
2239.533335107646 2216.3671594014495
2240.1370410773434 2784.321550079684
2240.740601380803 2437.1074827086695
2241.3440160514474 2599.1797712986545
2241.9472851226783 2441.0156785852555
2242.550408627896 2344.441613567625
2243.1533866004793 2776.4960071213927
2243.756219073799 2591.6815555127705
2244.3589060812064 2478.8730440732024
2244.961447656049 2227.093393034342
2245.5638438316564 2464.1543159479625
2246.166094641343 2552.295488477309
2246.7682001184166 2255.6306470380932
2247.3701602961664 2506.9015795717396
2247.971975207871 2424.804040062322
2248.5736448867974 2630.644482362561
2249.175169366197 2540.9183882641064
2249.7765486793123 2163.7050412266053
2250.3777828593684 2597.31183307082
2250.9788719395783 2533.662219208992
2251.579815953146 2366.878938263794
2252.1806149332606 2390.776130126858
2252.781268913097 2428.0776716777227
2253.381777925817 2221.8670582643263
2253.9821420045737 2472.8756818168654
2254.5823611825035 2706.2866827502103
2255.1824354927303 2440.0938496700005
2255.782364968365 2333.8954032545166
2256.38214964251 2227.622693875254
2256.9817895482483 2233.776506399782
2257.5812847186553 2610.818245418121
2258.180635186791 2178.731171600177
2258.779840985704 2422.6721357600964
2259.37890214843 2390.170594787173
2259.97781870799 2405.853271500465
2260.5765906973957 2421.5837214913786
2261.175218149645 2318.115478564579
2261.773701097718 2304.293183682394
2262.3720395745895 2290.3862121334137
2262.970233613216 2047.1684670879888
2263.568283246548 2369.7555021967905
2264.1661885075137 2404.844538260815
2264.763949429038 2455.0718845797414
2265.3615660440246 2508.363597309609
2265.959038385374 2405.3450152346604
2266.5563664859637 2648.6884177106135
2267.153550378669 2328.350673446356
2267.7505900963424 2582.9487932101174
2268.3474856718312 2353.7529116550304
2268.9442371379664 2240.1680915823263
2269.5408445275643 2175.315289309584
2270.1373078734377 2217.354523208901
2270.7336272083758 2259.4890820546025
2271.32980256516 2168.47316667182
2271.925833976562 2270.3510539504255
2272.5217214753357 2832.706197268889
2273.117465094223 2451.5358711124622
2273.7130648659586 2355.5464841259923
2274.308520823257 2257.8168173565796
2274.903832998827 2632.8046568858963
2275.4990014253563 2297.6692230305503
2276.094026135528 2724.2849647883354
2276.6889071620117 2735.277333003695
2277.2836445374614 2746.1652133804264
2277.878238294519 2669.4915983006003
2278.472688465812 2414.4823002298385
2279.066995083962 2159.0064699042014
2279.6611581815705 2151.2788008001166
2280.255177791232 2537.801297909561
2280.8490539455233 2357.3025481486247
2281.442786677013 2712.990180095595
2282.0363760182554 2531.881347014682
2282.6298220017943 2194.840713445018
2283.223124660155 2523.039979033243
2283.816284025859 2536.7714008518374
2284.4093001314086 2742.859413337134
2285.002173009292 2613.0950035601263
2285.5949026919952 2483.021663032131
2286.1874892119777 2253.7880124920894
2286.7799326016993 2469.819213918121
2287.3722328936 2026.0651193138074
2287.964390120109 1966.7012157195034
2288.556404313642 2273.9723971418134
2289.1482755066027 2246.7460343162056
2289.7400037313873 2219.3771950768805
2290.3315890203703 2404.224325488306
2290.9230314059205 2605.1810675246484
2291.5143309203904 2374.9205717098025
2292.1054875961236 2242.49191227835
2292.6965014654506 2548.6974129151504
2293.287372560684 2397.445868955191
2293.878100914131 2299.9742458293526
2294.468686558086 2202.368522613803
2295.059129524827 2317.7316790861614
2295.649429846617 2711.991273775793
2296.239587555716 2592.1447443625507
2296.8296026843636 2357.022339598631
2297.419475264791 2453.524192836871
2298.0092053292137 2550.053526121623
2298.598792909839 2420.988744430419
2299.1882380388597 2451.679835689444
2299.777540748455 2560.7666917096385
2300.3667010707904 2584.857141396299
2300.9557190380256 2544.6585225182625
2301.544594682302 2929.6886674171756
2302.1333280357503 2831.6664194291034
2302.721919130485 2733.5891336539707
2303.3103679986198 2772.2347845483896
2303.898674672242 2648.6813337804965
2304.486839183437 2351.3345680555813
2305.0748615642697 2619.513451973724
2305.6627418468015 2262.417710980424
2306.2504800630704 2344.0846549878474
2306.8380762451143 2500.3974359518115
2307.425530424949 2497.606680948404
2308.012842634582 2494.7900653479214
2308.6000129060103 2710.206370884386
2309.187041271214 2463.920192782261
2309.773927762164 2827.0446633359916
2310.3606724108213 2560.0817552644776
2310.9472752491274 2144.1747915369806
2311.5337363090184 2236.606267871134
2312.120055622414 2600.6015031470424
2312.706233221221 2161.9978726587337
2313.2922691373424 2125.351385221194
2313.8781634026564 2144.366329534374
2314.463916049037 2163.394801851854
2315.049527108342 2508.0432127938147
2315.6349966124235 2787.605235237943
2316.2203245931123 2612.825490046297
2316.8055110822315 2120.7348875535617
2317.3905561115935 2413.874408439832
2317.9754597129977 2138.7067675547305
2318.560221918229 2553.393320187671
2319.1448427590603 2204.895521981045
2319.729322267256 1955.247210848318
2320.313660474563 2368.1042766436285
2320.8978574127195 3088.2875083808385
2321.481913113452 2584.296529613991
2322.0658276084705 1920.5310282194957
2322.6496009294806 2143.79067252923
2323.233233108165 2593.5693836175906
2323.8167241762058 2536.9004319994688
2324.4000741652617 2537.013094168341
2324.983283106987 2609.1864702300377
2325.5663510330232 2605.6047044239504
2326.1492779749933 2229.5857468437753
2326.7320639645204 2356.4581211452733
2327.3147090332004 2549.88397325025
2327.897213212629 2743.3333790218944
2328.4795765343843 2385.324968604327
2329.0617990300307 2391.8644981806465
2329.643880731124 2567.5690465970174
2330.22582166921 2564.2358600877005
2330.807621875816 2533.9820643789803
2331.3892813824623 2027.5674642603449
2331.9708002206517 2212.659148843325
2332.5521784218818 2234.3634077027878
2333.133416017634 2256.2130832179146
2333.7145130393765 2357.3048767269747
2334.295469518571 2429.6990948189523
2334.876285486658 2468.168340995616
2335.456960975076 2119.166444853908
2336.037496015242 2173.6893199498895
2336.6178906385667 2228.37819605142
2337.198144876451 2213.847766500993
2337.778258760278 2223.311073386296
2338.3582323214214 1872.1425641326168
2338.938065591243 2446.8347155618726
2339.517758601087 2635.4704875734287
2340.0973113822965 2324.7099356956446
2340.676723966193 2102.9016669307694
2341.255996384094 2284.6306588522048
2341.835128667295 2447.7010797907797
2342.4141208470883 2380.9801825242594
2342.992972954751 2362.627290542697
2343.5716850215467 2614.6744080665703
2344.1502570787306 2407.257506447523
2344.7286891575386 2199.323000421716
2345.3069812892045 2550.6850173917246
2345.885133504944 2516.176123139595
2346.4631458359618 2244.6279232952334
2347.04101831345 2117.180932362139
2347.6187509685915 2468.9330170437347
2348.196343832553 2194.795599612518
2348.7737969364935 2068.703239310266
2349.351110311558 2318.0279768917767
2349.9282839888765 2256.6333754947277
2350.5053179995757 2004.613658517197
2351.0822123747585 2098.8974346173936
2351.658967145526 2608.6143946740494
2352.2355823429643 2619.650229397961
2352.812057998144 2630.849061220551
2353.3883941421263 2146.834604367293
2353.9645908059647 2426.8670637831797
2354.540648020693 2396.0058114652315
2355.116565817336 2150.143984740189
2355.6923442269126 2335.9914401114256
2356.2679832804224 2066.575442281356
2356.8434830088518 2210.2332142894547
2357.41884344318 2281.5400288872424
2357.994064614377 2273.167164612122
