#exp_cfg={"servo_angle": 0.0, "laser_lim": 100.0, "servo_angle_to": 18.0, "laser_wup": 0.0, "bt_dev": "EnSpectr-25AE3", "laser_wdn_max": 0.0, "frames": 10.0, "servo_used": 0, "servo_calib_use": 0, "laser_wdn_min": 0.0, "servo_pix_from": 90.0, "cooler_tout": 300.0, "servo_angle_from": 0.0, "servo_calib": "[-1.9174921013161362e-09, 3.9322238269163779e-05, -0.27385609119055809, 653.59552119713567]", "laser_autoctl": 0, "servo_pix_to": 3682.0, "laser_pw": 100.0, "cooler_on": 0, "laser_volt": 4.0, "cooler_autoctl": 0, "cooler_curr": 70.0, "cooler_startup": 10.0, "laser_fixed_pw": 0, "gain": 1.3, "offset": 2.53059635486, "servo_calib_degree": 3.0, "laser_curr": 55.0, "shutter": 8200.0, "servo_calib_step": 1.0, "laser_fixed_curr": 0, "exp": 2000.0, "ccd_volt": 4.7, "bt_addr": "00:06:66:62:5A:E3", "servo_delay": 500.0, "laser_autooff": 1}
#proc_cfg={"flat_auto_wnd": 200.0, "flat_auto_fr": 200.0, "flat_auto_shift": 5.0, "yconv": 1, "flatten": 1, "flatten_strength": 100.0, "xfrom": 300.0, "auto_max_frame": 2000.0, "auto_signal": 48000.0, "flat_auto_tol": 0.1, "autoclip": 1, "xrel_range": 0.0, "flat_auto_to": 4000.0, "intensity_adj": 1.0, "xrel": 7852.0, "rmhot": 1, "flat_auto_slit": 4.999999999999997, "auto_ini_exp": 300.0, "auto_off": 0, "xto": 2860.0, "flat_auto_ref": "", "flat_auto_rank": 1, "autobackg": 0, "xrel_adj": 0.0, "auto_black_lvl": 1, "base_wnd": 100.0, "sub_baseline": 0, "xconv": 2, "auto_max_exp": 1000.0, "auto_total_exp": 10000.0, "auto_exp": 0, "rmripple": 0, "black_lvl": 8233.7, "shutter_clip_adj": 0.0, "auto_bckg": 0, "flat_auto_thr": 0.9, "subbackg": 1}
316.8218498245369 5980.646805169272
317.89969571804795 5810.994691533711
318.977263876126 5787.509112132624
320.05455438786703 5688.6768711104905
321.1315673423287 5749.143409911425
322.2083028285215 5791.62385502428
323.2847609354267 5657.710249764427
324.3609417519747 5661.383622960782
325.43684536705587 5669.177584061605
326.5124718695279 5635.1840044196015
327.58782134820103 5682.997032622181
328.66289389184385 5584.39895160472
329.7376895891921 5588.262228241956
330.8122085289342 5629.980233754545
331.88645079971866 5560.978292214885
332.9604164901575 5505.269673655954
334.03410568881554 5605.971030436291
335.1075184842266 5646.270844720335
336.18065496487543 5518.5815081748515
337.2535152192122 5495.523509075314
338.32609933564163 5580.026285598696
339.39840740253203 5540.612671788341
340.4704395082099 5482.481316604425
341.5421957409617 5496.8378341094685
342.6136761890357 5506.643349001726
343.6848809406365 5454.025364295157
344.75581008392874 5402.626098079717
345.82646370703696 5388.841128323363
346.8968418980512 5361.162233550933
347.96694474501055 5360.716924304915
349.0367723359268 5345.466764933997
350.106324758759 5292.969234504951
351.1756021014353 5278.043386889002
352.2446044518383 5313.889900144303
353.31333189781435 5372.680074469844
354.38178452716966 5295.588566943159
355.449962427665 5310.678156349666
356.51786568702846 5270.852560422852
357.58549439294256 5359.558937020209
358.6528486330535 5319.81172427563
359.71992849496564 5271.69669675206
360.7867340662433 5351.443312183532
361.8532654344144 5296.125943822552
362.9195226869597 5364.441665118629
363.9855059113288 5121.701357788111
365.05121519492604 5260.686171478776
366.11665062511565 5247.816755093079
367.1818122892273 5231.603488054922
368.2467002745434 5211.521084350344
369.31131466831175 5230.6103928379225
370.375655557742 5248.331273018117
371.4397230299983 5247.229073204908
372.5035171722102 5204.841605695379
373.5670380714637 5215.326482694581
374.6302858148101 5275.656667312809
375.6932604892554 5263.950813565064
376.7559621817709 5187.835169652473
377.81839097928605 5144.826850965791
378.8805469686886 5161.450122586205
379.94243023683157 5189.881520276294
381.0040408705263 5131.145235869541
382.0653789565458 5121.896675129612
383.1264445816196 5138.6861194820885
384.1872378324406 5135.451901562524
385.2477587956637 5099.949188892549
386.3080075579037 5103.626794452911
387.3679842057336 5054.698865066998
388.4276888256918 5118.786192105725
389.48712150426945 5110.415676195906
390.54628232792857 5075.934010373216
391.6051713830857 5090.428197240123
392.66378875611736 5048.384684810826
393.7221345333637 5029.310926324391
394.7802088011249 5052.684117450899
395.838011645661 5074.126290783099
396.89554315319765 4999.615386742397
397.9528034099112 5010.535332000373
399.00979250194723 4981.807775975536
400.06651051541485 4989.385518812288
401.1229575363741 5001.299780703164
402.17913365085224 4939.399758075144
403.23503894483656 5012.962542674375
404.2906735042761 4929.872444587711
405.3460374150818 4892.970292772606
406.401130763119 4959.735280478375
407.455953634224 4938.932396172156
408.5105061141876 4908.8405384403295
409.56478828876243 4867.108338816667
410.6188002436629 4882.915557776064
411.6725420645689 4922.597137574487
412.72601383711117 4896.304722868488
413.77921564689314 4949.974170338287
414.8321475794728 4919.987840303066
415.88480972036814 4823.001866795779
416.93720215506437 5007.292023872033
417.9893249690049 4943.007270937044
419.04117824759123 4840.631185361341
420.09276207619223 4851.322116119345
421.144076540133 4859.677680385511
422.1951217247042 4880.862710469901
423.24589771515275 4839.69388922817
424.2964045966928 4794.730473360325
425.34664245449494 4837.206131702826
426.3966113736933 4802.0814130528715
427.4463114393875 4842.556414446728
428.49574273662984 4830.36245404669
429.5449053504417 4749.662637295145
430.5937993658026 4861.310287130911
431.6424248676558 4800.750174053022
432.6907819409007 4746.2591988143095
433.73887067040596 4772.325339228686
434.7866911409965 4775.064516042651
435.8342434374608 4722.4805131615285
436.88152764455117 4749.631559984619
437.9285438469724 4732.527061912345
438.9752921294057 4676.035661194075
440.02177257648145 4692.500730751997
441.06798527279716 4667.189626536268
442.1139303029122 4675.577095814305
443.1596077513459 4668.101962047012
444.2050177025794 4621.49198398943
445.25016024105753 4638.217144895409
446.2950354511886 4640.127279020965
447.33964341733736 4675.06318328417
448.383984223834 4681.604269379261
449.4280579549686 4568.557535445849
450.471864694995 4654.0864271726905
451.5154045281306 4734.833411297737
452.5586775385509 4574.535695829719
453.60168381039693 4644.753451599885
454.64442342776783 4740.280132743587
455.6868964747264 4653.273665660066
456.7291030353008 4654.111806518159
457.77104319347563 4655.543547082698
458.8127170332027 4646.239480470143
459.854124638392 4650.199086079299
460.895266092919 4682.401020461082
461.93614148061897 4690.434527773197
462.97675088529104 4725.171571621614
464.01709439069236 4709.800898728614
465.0571720805492 4656.809807760014
466.0969840385442 4667.57008470695
467.1365303483253 4698.009451630162
468.17581109350067 4663.005346780258
469.2148263576437 4683.911994699508
470.2535762242878 4622.485624249641
471.29206077693016 4730.13861873438
472.33028009902773 4684.333435813655
473.3682342740012 4691.542712359622
474.40592338523857 4679.444388057945
475.4433475160804 4667.4275462674195
476.4805067498364 4767.563958132092
477.51740116978 4715.975925769857
478.5540308591426 4682.123535264353
479.59039590112116 4793.462619402215
480.6264963788726 4710.247265638505
481.6623323755193 4845.5608485134635
482.6979039741436 4805.34444169351
483.7332112577915 4885.434123055869
484.76825430947247 4922.942589838242
485.80303321215797 4978.871529519863
486.837548048783 5029.270686349362
487.8717989022425 5100.484113550177
488.90578585539697 5133.070682631989
489.9395089910686 5193.036674154295
490.97296839203955 5146.319016281679
492.00616414106116 5113.347485641799
493.0390963208429 5158.429975591503
494.0717650140559 5129.310625790019
495.10417030333883 5145.115854563056
496.1363122712901 5163.487019160684
497.16819100046814 5070.390996372313
498.1998065734024 5001.6871224442975
499.2311590725767 5014.128361504289
500.26224858044407 4944.11056053445
501.2930751794156 4910.348893570193
502.3236389518679 4886.278335882902
503.35393998014115 4735.477110671107
504.38397834653733 4822.089317014644
505.4137541333221 4774.578984841261
506.4432674227228 4684.932727926747
507.4725182969323 4656.009338537462
508.5015068381035 4601.349449883174
509.53023312835467 4682.659793853392
510.55869724976765 4588.211025962297
511.58689928438434 4474.885955713622
512.6148393142121 4575.437852087243
513.6425174212218 4548.8093556793265
514.6699336873462 4606.4682423325385
515.6970881944835 4680.68150684114
516.7239810244901 4693.802577983309
517.7506122591931 4768.256563901983
518.7769819803761 4833.633836442047
519.8030902697901 4794.1011360417315
520.8289372091476 4890.44913716991
521.8545228801249 4978.312903499273
522.8798473643619 4927.114152259926
523.9049107434621 4920.5351486416785
524.9297130989908 4892.0134491232175
525.9542545124805 4893.106459933368
526.9785350654201 4851.282284250055
528.0025548392696 4961.124052063528
529.0263139154504 4858.955604797005
530.0498123753423 4876.99666601783
531.073050300296 4822.740396632224
532.0960277716204 4880.854035628108
533.1187448705896 4793.966348915347
534.1412016784416 4891.144428449904
535.1633982763833 4835.022958246054
536.1853347455726 4837.58528827661
537.2070111671401 4729.270477447723
538.2284276221817 4737.097101728215
539.2495841917516 4716.1170706825915
540.2704809568677 4635.252207727435
541.2911179985167 4650.149646550493
542.3114953976419 4573.564685183801
543.3316132351592 4559.519768212162
544.3514715919409 4496.498726976633
545.3710705488247 4476.071011974967
546.3904101866156 4461.599213211946
547.4094905860784 4514.637402423401
548.4283118279418 4434.127944690639
549.4468739929034 4424.559271583079
550.4651771616191 4415.517224615795
551.4832214147063 4385.799819164508
552.501006832761 4432.325320814913
553.5185334963226 4421.127816216651
554.5358014859103 4430.515183665512
555.5528108820035 4368.4327106806395
556.5695617650363 4371.163427600249
557.5860542154242 4356.387802952403
558.6022883135283 4430.504250991896
559.6182641396881 4362.192280911907
560.6339817741991 4283.034557769553
561.6494412973225 4351.257044937172
562.6646427892883 4382.38838816995
563.6795863302796 4352.616851602466
564.694272000459 4334.496729083346
565.7086998799423 4397.66857087159
566.7228700488104 4302.240550958637
567.7367825871115 4269.887706059878
568.7504375748576 4309.254125236727
569.7638350920224 4275.517819399782
570.7769752185486 4281.24001149129
571.7898580343353 4315.9540578935985
572.802483619258 4256.980955291965
573.8148520531431 4314.403840225525
574.8269634157932 4349.242476963273
575.8388177869692 4268.206509023622
576.8504152463938 4285.194751719129
577.8617558737587 4329.231538619837
578.8728397487175 4266.666735044937
579.883666950891 4332.213034855145
580.8942375598654 4387.099174221174
581.9045516551851 4386.845071174325
582.9146093163617 4430.342879131776
583.924410622878 4424.925243732849
584.9339556541727 4514.6008325833
585.9432444896538 4554.284290225001
586.9522772086875 4546.474175482957
587.9610538906127 4554.918667038091
588.9695746147318 4493.246703024478
589.9778394603054 4540.518582461428
590.985848506567 4533.372569618058
591.9936018327098 4494.6910309361965
593.0010995178891 4450.466501386547
594.0083416412344 4469.308559562796
595.0153282818283 4395.762896197738
596.0220595187293 4373.248741799323
597.0285354309508 4334.871820840098
598.0347560974806 4332.910791143121
599.0407215972609 4306.155124667419
600.0464320092051 4264.754248431413
601.0518874121954 4278.3468565461435
602.0570878850685 4291.451454652473
603.062033506636 4311.111974524384
604.0667243556636 4293.170568316523
605.0711605108936 4336.030616247685
606.0753420510264 4418.792764355509
607.0792690547278 4285.644865132841
608.082941600629 4290.848165488189
609.0863597673306 4243.2304271232515
610.0895236333909 4193.844871261022
611.0924332773357 4298.061798368109
612.0950887776617 4305.413656581716
613.0974902128219 4265.927660966305
614.0996376612384 4397.391860212552
615.1015312013005 4381.706967455021
616.1031709113595 4457.903284403843
617.1045568697336 4312.5771202436
618.1056891547069 4424.68772026641
619.1065678445229 4447.2068737805985
620.1071930173985 4511.390631919605
621.1075647515099 4553.192564126721
622.1076831250048 4544.466118803435
623.1075482159849 4632.161739484509
624.1071601025305 4606.93866620439
625.1065188626781 4705.859247926736
626.105624574433 4782.376663394511
627.1044773157682 4825.375059369038
628.1030771646128 4858.032075701846
629.1014241988742 4848.936315831435
630.0995184964158 4981.146721032831
631.0973601350688 4974.096041525498
632.0949491926294 5084.98815129787
633.0922857468631 4955.827984043807
634.089369875499 5030.094111300425
635.0862016562278 5111.273021892919
636.0827811667077 4994.805648846477
637.0791084845641 5032.955463184601
638.0751836873878 4937.46804159543
639.0710068527369 5007.3335808155825
640.0665780581294 4937.669816194571
641.0618973810506 4889.242224607384
642.0569648989604 4899.481116275401
643.0517806892676 4753.824047672453
644.0463448293649 4725.767201418757
645.040657396592 4739.336183732631
646.0347184682723 4653.613316550518
647.0285281216875 4618.086638486452
648.0220864340772 4608.0199849680885
649.0153934826558 4433.438582969579
650.0084493446047 4457.106815147161
651.0012540970674 4398.048872577076
651.9938078171526 4292.611074290869
652.9861105819346 4258.979991096761
653.9781624684565 4270.6092007144525
654.9699635537254 4251.781898425374
655.9615139147136 4139.4599921538265
656.9528136283589 4114.302676060431
657.9438627715699 4130.019194728515
658.9346614212154 4091.191407056448
659.925209654135 4012.3314487405537
660.9155075471263 4062.996935194613
661.9055551769616 4019.542844499131
662.895352620375 4096.462216083305
663.8848999540678 4012.7562997207847
664.8741972547068 3947.2227285320723
665.863244598926 3962.2132498227256
666.8520420633213 3990.1585827652793
667.8405897244611 3943.066356468672
668.8288876588758 3888.0137400026506
669.8169359430613 3934.0337026237166
670.8047346534822 3900.495566224975
671.7922838665672 3909.2776259093866
672.7795836587156 3941.5499678898354
673.766634106285 3988.593329236052
674.7534352856092 3943.428793667038
675.7399872729766 3895.5226719079424
676.7262901446538 3967.6959173177247
677.712343976862 3954.917413946864
678.6981488457986 3958.5942038704043
679.6837048276229 3952.492652983464
680.6690119984596 4005.761621499017
681.6540704344043 3938.978406172021
682.6388802115107 4020.264298934288
683.6234414058108 4005.284349008434
684.6077540932874 3925.1903104806815
685.591818349907 3958.9109577204626
686.575634251587 3929.6463515822907
687.5592018742263 3975.240536533409
688.5425212936734 3915.3579476020323
689.5255925857564 3827.0168466599325
690.5084158262707 3924.185201440346
691.4909910909646 3921.8565985541354
692.4733184555644 3875.102160963542
693.4553979957618 3858.132456819574
694.4372297872123 3845.577820679485
695.4188139055404 3847.938388089025
696.4001504263324 3822.3514358665934
697.3812394251509 3836.857202308564
698.3620809775111 3810.081619401705
699.3426751589104 3857.239687513988
700.3230220448004 3789.3559410914263
701.3031217106054 3769.67147763323
702.2829742317172 3921.2406092878728
703.2625796834873 3826.144780071315
704.2419381412474 3837.9851108353905
705.22104968028 3840.456885723141
706.1999143758458 3778.7427822575432
707.178532303169 3745.3923649147973
708.1569035374378 3817.8540580363087
709.1350281538107 3765.2821297756236
710.1129062274158 3716.811452635834
711.0905378333373 3811.674846146343
712.0679230466376 3780.9988481455234
713.0450619423427 3815.926894890501
714.0219545954424 3871.594278295791
714.9986010808989 3788.651445555062
715.9750014736292 3791.0245026928033
716.9511558485392 3843.892670484737
717.9270642804786 3829.6614269182173
718.9027268442787 3887.567308435774
719.8781436147328 3780.6282901973163
720.8533146666014 3826.0699935263865
721.828240074612 3820.18018452393
722.8029199134635 3780.246576593045
723.7773542578125 3870.2588706151196
724.751543182294 3824.906530485481
725.7254867615029 3844.2724503995037
726.6991850700015 3804.406536627756
727.6726381823228 3761.3445294413636
728.6458461729599 3771.5828783159764
729.6188091163858 3829.5849237657158
730.5915270870246 3803.630327922052
731.5640001592856 3758.0675271131395
732.536228407529 3754.5723797971177
733.5082119060917 3800.302502573567
734.4799507292755 3782.2015157484407
735.4514449513481 3688.8012285018726
736.4226946465496 3747.4077974115344
737.3936998890786 3793.5551272019948
738.3644607531078 3707.6128078231086
739.3349773127793 3793.6613288912936
740.3052496421951 3754.6872874308806
741.27527781543 3744.2263088336504
742.2450619065221 3737.2652912830126
743.2146019894826 3789.4113601654485
744.183898138288 3748.141465202692
745.1529504268801 3727.4328864629983
746.1217589291682 3755.5911013380755
747.0903237190341 3686.295464429034
748.058644870318 3769.0969695114313
749.0267224568397 3689.887744396025
749.994556552374 3644.872502693145
750.9621472306771 3674.528608073899
751.9294945654583 3709.878372881472
752.8965986304011 3721.0759164327974
753.8634594991636 3672.4929353476437
754.8300772453586 3701.722057660907
755.7964519425768 3735.875111943113
756.762583664371 3751.0939486567245
757.7284724842611 3668.160673509031
758.6941184757416 3709.3335052613156
759.6595217122667 3739.3380493661693
760.6246822672638 3723.83126529977
761.5896002141235 3703.465854658038
762.5542756262093 3680.845688917496
763.5187085768503 3734.350696648869
764.4828991393406 3826.559584865533
765.4468473869474 3759.8186178451665
766.4105533929032 3750.7778758584195
767.3740172304078 3709.9312233012897
768.3372389726283 3784.622489113608
769.3002186926988 3671.7843121339224
770.2629564637282 3671.587283628554
771.2254523587872 3650.433093382392
772.1877064509154 3587.288668464211
773.1497188131179 3634.5592732463483
774.1114895183728 3566.3731485401295
775.0730186396268 3595.3885631730686
776.0343062497905 3557.540414663729
776.9953524217381 3549.5180058710985
777.9561572283274 3545.901394570427
778.9167207423689 3573.968818357738
779.8770430366476 3555.9918188501674
780.8371241839159 3521.792598540464
781.7969642568951 3528.632220533763
782.7565633282757 3610.1559966130567
783.7159214707099 3567.9512813240895
784.6750387568281 3467.1467534516096
785.6339152592227 3493.5036366636145
786.5925510504512 3486.103242895758
787.5509462030477 3455.834134289076
788.5091007895098 3510.0608112678287
789.4670148823006 3550.166794740858
790.4246885538596 3487.310211025615
791.3821218765861 3485.4897014060093
792.3393149228505 3488.1842678996363
793.2962677649975 3529.530954963716
794.2529804753303 3550.1768727094995
795.20945312613 3603.5761906255693
796.1656857896378 3463.344724665562
797.1216785380675 3487.583538402562
798.0774314435985 3539.2815185270956
799.0329445783846 3563.007842966427
799.9882180145414 3535.9934787674256
800.9432518241574 3526.217613921446
801.89804607929 3553.7201773620955
802.852600851962 3563.4866376043974
803.8069162141637 3560.2391221305247
804.760992237856 3667.9746056033355
805.714828994971 3559.514485814811
806.6684265574077 3636.1385969755183
807.6217849970271 3632.28931650186
808.574904385674 3597.716062094195
809.527784795142 3644.4869619212195
810.4804262972102 3682.906171600602
811.4328289636178 3617.6997656729354
812.3849928660748 3547.1101179688208
813.3369180762638 3589.1492819092223
814.2886046658241 3571.421367157401
815.2400527063783 3557.9921593199515
816.1912622695108 3496.35945011913
817.1422334267718 3564.1336498051105
818.0929662496856 3508.454026711007
819.0434608097457 3446.584319028999
819.9937171784059 3393.6082256636787
820.9437354271013 3410.9495280110486
821.8935156272255 3499.950163265317
822.8430578501484 3416.681593374534
823.7923621672016 3321.214739908273
824.7414286496896 3384.8655305835878
825.6902573688876 3359.833950261709
826.6388483960363 3353.433575624994
827.5872018023492 3379.687624697309
828.5353176590033 3367.834771204697
829.4831960371503 3321.71887338928
830.4308370079016 3353.239543650898
831.3782406423525 3371.171551049511
832.3254070115545 3345.88368478382
833.2723361865319 3236.382117422454
834.2190282382799 3263.2976763572124
835.1654832377644 3337.134528481726
836.1117012559116 3282.7305668634776
837.0576823636256 3349.0436647425086
838.003426631778 3278.5737207618504
838.9489341312074 3278.9457452684933
839.8942049327197 3271.9944561731477
840.8392391070975 3312.7019135260007
841.7840367250865 3274.9498881838635
842.7285978573982 3261.420767117056
843.672922574724 3285.785095916007
844.6170109477152 3219.376542127803
845.560863046996 3292.59060385369
846.5044789431595 3206.590368085489
847.4478587067697 3246.544102430947
848.3910024083561 3232.014466123816
849.333910118421 3296.01426542014
850.2765819074339 3233.626921375326
851.2190178458332 3356.8278277899744
852.161218004032 3326.07521770155
853.1031824524016 3318.927244262132
854.0449112612987 3279.610340741104
854.9864045010327 3296.7858684725024
855.9276622418947 3293.0842030533167
856.8686845541379 3278.4769008359317
857.8094715079915 3253.88642784302
858.7500231736467 3288.640586952561
859.690339621271 3320.4129552501154
860.6304209209939 3262.361217673614
861.5702671429244 3230.970508932466
862.5098783571284 3252.1524879752023
863.4492546336569 3285.342941265015
864.3883960425155 3169.383216482475
865.3273026536863 3226.4792666154895
866.2659745371238 3183.8826429266765
867.2044117627465 3293.6976368772803
868.1426144004472 3215.184501488764
869.0805825200823 3235.987502616693
870.0183161914847 3277.5299223962293
870.9558154844526 3387.9629938224434
871.8930804687552 3257.485277912792
872.8301112141307 3280.5026524180344
873.7669077902865 3297.033560507539
874.7034702669062 3343.190924915771
875.6397987136315 3352.7815646368676
876.5758932000863 3285.969537276046
877.5117537958522 3434.8211349024323
878.4473805704911 3400.8339935349723
879.3827735935283 3377.647604956545
880.3179329344603 3366.5823033700863
881.2528586627541 3363.491472695115
882.1875508478479 3409.2844070409947
883.1220095591489 3375.77189130001
884.0562348660296 3343.0781616784784
884.9902268378391 3435.170500725487
885.9239855438955 3471.0581913103915
886.8575110534839 3385.324332675396
887.7908034358588 3369.5285383925548
888.7238627602474 3408.570413719556
889.6566890958475 3368.828346651187
890.5892825118208 3278.3784112012227
891.5216430773125 3343.6049097490773
892.4537708614189 3281.7338379408416
893.3856659332196 3243.1290947782204
894.3173283617652 3242.7878819451594
895.2487582160684 3302.2172752991573
896.179955565116 3235.148771072618
897.110920477864 3192.1801065781956
898.0416530232451 3186.354764716395
898.9721532701478 3166.997825202882
899.9024212874428 3252.8387941803144
900.8324571439662 3162.721006475816
901.7622609085302 3116.8424000657947
902.6918326499072 3128.60748197558
903.6211724368477 3191.883077861791
904.5502803380696 3194.444595959144
905.4791564222614 3188.0941214946647
906.4078007580792 3143.4041969363434
907.3362134141571 3179.3297081566475
908.2643944590909 3155.350529104449
909.1923439614493 3109.362316015906
910.1200619897754 3110.099466627325
911.0475486125779 3181.2574114979025
911.9748038983344 3093.8984121502713
912.9018279155007 3082.5931169036353
913.8286207324982 3066.8119718228622
914.7551824177117 3074.4884764838275
915.6815130395116 3112.9257303679046
916.6076126662283 3046.791097351379
917.533481366163 3092.584343860106
918.4591192075914 3133.016361884012
919.3845262587565 3118.274601680071
920.3097025878706 3106.1959830977344
921.2346482631237 3115.5635767719345
922.1593633526682 3061.1876283609245
923.0838479246304 3098.2950059247632
924.0081020471061 3108.350763605577
924.9321257881656 3058.5110384650734
925.8559192158464 3026.222486842334
926.7794823981512 2962.772963322909
927.7028154030686 3000.2898713977584
928.6259182985414 2975.4696669257687
929.5487911524906 3060.875115410831
930.4714340328119 3058.2307157125583
931.3938470073608 3000.9313423717567
932.3160301439748 3050.7862800372304
933.2379835104548 3020.2206534080037
934.1597071745709 3083.720558067099
935.0812012040769 3070.336622743484
936.002465666681 3003.926380481989
936.9235006300696 2998.208649327473
937.8443061619055 3074.5672057376123
938.7648823298077 2957.0670228826466
939.6852292013809 2998.0929487636954
940.6053468441951 3056.4059695941123
941.5252353257874 2922.1188426809535
942.4448947136698 2960.7955800890963
943.364325075323 2939.9195469714355
944.2835264782043 2958.02138328849
945.2024989897309 2974.83125022715
946.1212426773054 3037.6021431364597
947.0397576082851 2886.3388785310012
947.9580438500125 3026.8717096370137
948.8761014697939 2980.66067254661
949.7939305349064 2993.086138833991
950.7115311125999 2939.471258086692
951.6289032700952 2938.7897390037606
952.5460470745875 2946.6364921575073
953.4629625932339 2951.0109721938
954.3796498931715 3023.0088890596085
955.2961090415029 2977.692146404448
956.2123401053068 3062.6258754206024
957.1283431516276 2987.892786547022
958.0441182474842 2978.3565783757454
958.9596654598663 3009.70152041512
959.8749848557309 2980.1242102520614
960.7900765020167 2974.9690880857934
961.7049404656209 2989.1476713523043
962.6195768134185 2973.2319803181786
963.5339856122537 2953.151073251328
964.4481669289453 2973.9766340365904
965.3621208302793 2993.776255189451
966.2758473830145 2890.2932799773653
967.1893466538822 2960.350875928479
968.1026187095813 2904.8988063675456
969.0156636167867 2997.5172899949866
969.9284814421426 2977.031437599654
970.8410722522622 2939.7434853562218
971.753436113735 2937.1918857518854
972.6655730931161 2892.78973313477
973.5774832569368 2961.073436891301
974.4891666716958 2889.7647322588023
975.4006234038698 2906.12041439676
976.3118535198955 2926.3755363147943
977.2228570861935 2977.489516426252
978.1336341691494 2984.5565601266912
979.0441848351202 2977.6300380665875
979.9545091504333 2969.6456162965887
980.864607181391 3024.1613435896934
981.7744789942699 3026.4227610082617
982.6841246553086 3033.2791485722446
983.5935442307236 2959.232015556331
984.5027377867027 2925.5780022421723
985.4117053894024 3054.3377171825164
986.3204471049557 2957.9591561973302
987.2289629994648 3014.2795073438547
988.1372531390007 3018.462303350324
989.0453175896091 2968.976941742868
989.9531564173067 3005.4668365614607
990.860769688079 2962.0731563707004
991.7681574678918 2963.704793436271
992.6753198226706 3045.947637222732
993.582256818323 2959.3627657187562
994.4889685207218 3087.70168263664
995.3954549957143 3092.128999540317
996.301716309119 3052.383617666149
997.2077525267232 3058.1727810962707
998.1135637142943 3065.3701443986424
999.0191499375615 3158.2808257576153
999.924511262232 3018.2648635580754
1000.8296477539861 3134.584847216694
1001.7345594784656 3029.0932892316932
1002.6392465012996 3038.923636466221
1003.5437088880753 3135.720667227182
1004.4479467043584 3044.9092557570807
1005.3519600156869 2981.332726386288
1006.2557488875718 2997.3078743180195
1007.1593133854858 3037.578458201699
1008.0626535748888 3080.9380825591265
1008.9657695212009 3014.644000107708
1009.8686612898182 3090.487842379717
1010.7713289461135 3045.2288795877553
1011.6737725554212 3033.3030836516637
1012.5759921830577 3074.7991053554697
1013.4779878943027 3071.701592345397
1014.379759754418 3017.2552400023364
1015.2813078286254 3037.1004610555483
1016.18263218213 2982.4907968246685
1017.0837328801026 3022.8675062695484
1017.9846099876886 3067.777399572756
1018.8852635700023 3039.104498009171
1019.7856936921362 2956.7252604090254
1020.6859004191447 3002.1465244275687
1021.5858838160675 2987.9986248174077
1022.4856439479063 3036.1221903594005
1023.3851808796389 2988.2606958596307
1024.2844946762143 3014.9247974597015
1025.183585402554 2885.2405405253226
1026.082453123554 2896.826286695206
1026.9810979040776 2950.7170791011463
1027.8795198089647 2918.0426019414335
1028.777718903024 2992.4906796947625
1029.6756952510368 2840.047808712526
1030.5734489177648 2897.7406358868834
1031.4709799679313 2906.2155291173735
1032.3682884662358 2998.144767076402
1033.2653744773506 2880.459265620273
1034.1622380659192 2893.4336163509006
1035.058879296559 2967.7143260866915
1035.9552982338591 2905.350177586096
1036.8514949423825 2880.571115727544
1037.7474694866614 2915.3716594031985
1038.6432219312028 2875.884148622442
1039.5387523404825 2884.6318752500442
1040.4340607789582 2912.9490700790925
1041.3291473110476 2886.149842983942
1042.2240120011465 2961.135462458379
1043.1186549136273 2970.301890561707
1044.0130761128294 2917.2953066780365
1044.9072756630649 2962.239844199852
1045.8012536286205 3079.57863473439
1046.6950100737577 2947.345123935648
1047.588545062701 3025.1874406356824
1048.481858659663 3019.5340624110568
1049.3749509288118 3031.4787877144213
1050.2678219343034 2976.0774491388393
1051.1604717402515 3025.494898798366
1052.0529004107575 2999.419954115573
1052.9451080098825 3034.2507387400988
1053.8370946016694 2965.769531926271
1054.7288602501267 3016.2671557803587
1055.6204050192446 2934.434820621883
1056.511728972977 3087.591741216019
1057.402832175254 2977.3288418117304
1058.2937146899785 2995.1394205951956
1059.1843765810263 2964.9866957012673
1060.0748179122456 3027.3035118355056
1060.9650387474576 2996.9099838389316
1061.855039150456 3020.139212198748
1062.7448191850071 2974.538032738534
1063.6343789148505 2876.6363833328223
1064.5237184037014 2990.6251452577503
1065.412837715241 2892.837708941629
1066.3017369131267 2912.5349498314636
1067.190416060992 2881.313081562057
1068.0788752224398 2812.3118171282595
1068.9671144610438 2888.1143172128277
1069.8551338403558 2850.700686384166
1070.7429334239023 2915.281665807865
1071.6305132751695 2851.6134014686622
1072.517873457633 2892.037152779544
1073.4050140347335 2878.6979476338565
1074.2919350698776 2886.081937234235
1075.1786366264623 2802.702799475225
1076.0651187678395 2923.36788223001
1076.95138155735 2808.991325272333
1077.8374250582929 2796.0979530033774
1078.7232493339507 2816.3461858509227
1079.608854447577 2797.7586268823584
1080.4942404623907 2841.990315480012
1081.3794074415982 2814.252961771284
1082.2643554483657 2831.456807249367
1083.149084545841 2846.823383142194
1084.033594797138 2740.720888562125
1084.9178862653516 2801.1105138569924
1085.8019590135427 2884.6788739827657
1086.6858131047484 2778.747780350496
1087.5694486019802 2816.8832341820976
1088.4528655682225 2782.050893441633
1089.3360640664287 2919.457072305321
1090.2190441595321 2765.5014995269303
1091.1018059104317 2930.1168409764505
1091.98434938201 2865.582798559043
1092.866674637111 2813.564932672433
1093.748781738559 2839.1084483300065
1094.6306707491512 2758.734946126154
1095.5123417316554 2775.0108380097
1096.3937947488157 2792.6556069652406
1097.2750298633455 2743.74450956691
1098.156047137938 2801.34630481614
1099.0368466352556 2758.2959563445074
1099.9174284179317 2763.6784079033087
1100.7977925485757 2687.0519393139934
1101.6779390897755 2677.448089729171
1102.5578681040806 2766.8748177956436
1103.4375796540226 2763.70172420177
1104.3170738021054 2713.835305892442
1105.1963506108077 2686.162929404845
1106.0754101425773 2614.041980009383
1106.9542524598382 2735.334022215952
1107.8328776249855 2689.891093577181
1108.7112857003904 2647.1461292898334
1109.5894767483987 2597.8911714988176
1110.4674508313292 2749.42440140672
1111.3452080114657 2768.606098820559
1112.2227483510815 2727.9003767464055
1113.1000719124077 2800.0677542824233
1113.9771787576592 2724.3549424375874
1114.854068949022 2787.967300798765
1115.7307425486542 2768.8406861537046
1116.6071996186893 2840.8680072263433
1117.483440221229 3014.9246271041056
1118.3594644183577 2774.6757367427113
1119.235272272128 2833.9881585695884
1120.1108638445658 2918.302881712281
1120.9862391976712 2930.667445278185
1121.8613983934229 2973.691615020799
1122.7363414937627 2975.5155686702287
1123.6110685606182 2943.7287335139736
1124.485579655884 3004.4122531313037
1125.359874841426 3036.8097987400533
1126.2339541790916 3034.615194587676
1127.1078177306936 3125.635583325998
1127.9814655580267 2997.193283939272
1128.854897722851 3074.433571930321
1129.7281142869106 3141.3771253738696
1130.6011153119125 3193.455076385299
1131.473900859548 3185.164059647876
1132.3464709914697 3150.7054246770194
1133.2188257693178 3118.197072977134
1134.0909652546961 3095.570676326071
1134.96288950919 3053.0385471497784
1135.8345985943506 3181.596928426249
1136.7060925717087 2973.131017427472
1137.57737150277 3016.1452421882577
1138.4484354490069 3034.0653827665533
1139.3192844718778 2988.443065842816
1140.1899186327992 2965.825886087123
1141.060337993178 3010.130718187439
1141.930542614382 2880.8889540706564
1142.8005325577597 2977.587396102458
1143.670307884635 2712.774479795805
1144.5398686563003 2914.3584899525667
1145.409214934025 2793.2911373676243
1146.2783467790541 2658.767818553238
1147.1472642526023 2762.820495703482
1148.0159674158622 2753.870736684873
1148.8844563300026 2740.5311024107223
1149.7527310561618 2587.0648155439476
1150.6207916554504 2630.7591120307075
1151.4886381889592 2615.910785911676
1152.3562707177498 2744.0994039081
1153.2236893028585 2667.0534586884974
1154.090894005296 2516.357140872683
1154.9578848860474 2565.35097501791
1155.8246620060709 2549.3358782543723
1156.6912254262988 2571.526946466468
1157.5575752076438 2533.356056682315
1158.42371141098 2685.802305250218
1159.2896340971656 2684.806258390938
1160.1553433270346 2598.730627150365
1161.0208391613887 2575.3353311231795
1161.8861216610057 2575.53074716582
1162.75119088664 2619.86315762084
1163.6160468990201 2545.640702472182
1164.4806897588442 2507.775274154974
1165.3451195267917 2657.879009085745
1166.2093362635114 2712.344693060672
1167.0733400296285 2684.9941328410687
1167.9371308857444 2518.4250479284246
1168.8007088924278 2578.798636768755
1169.6640741102328 2654.210837587459
1170.5272265996773 2597.01795319161
1171.390166421259 2439.2309718949596
1172.252893635452 2593.3233741960717
1173.1154083026995 2638.505294227377
1173.977710483421 2605.6853733940147
1174.8398002380145 2540.545189212099
1175.7016776268483 2594.4343042300293
1176.563342710264 2558.4916066702726
1177.4247955485826 2553.3428963760007
1178.2860362020947 2605.9145729182683
1179.147064731069 2504.7401808840564
1180.0078811957483 2612.8621887493573
1180.8684856563486 2464.2558522537884
1181.7288781730604 2560.9948883202424
1182.589058806052 2580.2275030249302
1183.4490276154593 2651.8473444856795
1184.3087846614017 2653.7236127216843
1185.1683300039676 2620.650164020397
1186.027663703222 2765.6182171725895
1186.8867858192025 2736.9356959685865
1187.7456964119228 2696.7221698090407
1188.6043955413716 2785.7155422218816
1189.4628832675116 2765.3491367276374
1190.3211596502842 2742.578692426397
1191.179224749596 2788.1899697344443
1192.0370786253388 2747.9846174171807
1192.8947213373758 2787.3451337994507
1193.7521529455407 2881.3817902497713
1194.6093735096438 2808.222302340573
1195.466383089477 2788.4342701560704
1196.3231817447977 2791.6876177374324
1197.1797695353398 2834.3402321011026
1198.0361465208189 2811.727777737181
1198.8923127609214 2740.4448626776352
1199.7482683153048 2805.718952720522
1200.6040132436028 2798.3743774150353
1201.459547605431 2721.329687744887
1202.3148714603722 2809.3995317557756
1203.1699848679855 2765.7061403062926
1204.0248878878065 2747.604753142449
1204.8795805793507 2670.837103932112
1205.7340630020935 2759.283211854613
1206.5883352155033 2751.4770205401223
1207.4423972790064 2673.5697739156712
1208.2962492520237 2735.5237129713937
1209.1498911939307 2711.829383090302
1210.0033231640937 2765.4232372597335
1210.8565452218427 2675.139715162173
1211.7095574264913 2640.603095720645
1212.5623598373222 2623.9103063567327
1213.4149525135963 2510.0505632395893
1214.2673355145507 2600.6121068390107
1215.1195088993936 2622.2325676221453
1215.9714727273113 2559.920280509875
1216.8232270574663 2616.898080055289
1217.6747719489904 2452.3441410272017
1218.5261074609934 2590.652630720994
1219.3772336525653 2589.134725762917
1220.2281505827668 2547.0238031575473
1221.0788583106296 2632.841028732268
1221.9293568951707 2504.401172729816
1222.7796463953746 2448.8483507223455
1223.629726870202 2519.2063214419486
1224.4795983785934 2551.597046101705
1225.3292609794553 2563.1435830883993
1226.1787147316809 2534.3503536313774
1227.0279596941327 2511.83695719729
1227.8769959256424 2481.609400456683
1228.7258234850306 2620.591427132955
1229.5744424310833 2531.225658717252
1230.422852822563 2553.2899097004474
1231.2710547182105 2645.8218909284797
1232.119048176739 2548.8238409180135
1232.9668332568417 2545.61656001884
1233.8144100171812 2517.450240272595
1234.6617785163999 2606.858906944951
1235.508938813111 2452.7249107289845
1236.3558909659114 2517.285069102442
1237.2026350333617 2522.2171183305463
1238.049171074008 2604.3509829902277
1238.8954991463652 2468.0919579593183
1239.741619308932 2439.0069924011955
1240.587531620169 2832.267721434544
1241.4332361385277 2601.2623350010567
1242.2787329224248 2517.882283496624
1243.1240220302534 2505.5779957495415
1243.9691035203869 2474.003840422152
1244.813977451171 2599.4782889276607
1245.6586438809263 2583.549427316746
1246.5031028679496 2423.2049538634424
1247.3473544705157 2611.896147079973
1248.1913987468706 2488.9338558889913
1249.0352357552383 2401.2248082325955
1249.8788655538228 2471.4913626346847
1250.7222882007918 2501.8022663869533
1251.565503754302 2505.7606146320522
1252.4085122724755 2390.978056797768
1253.2513138134182 2533.360724443868
1254.0939084352049 2503.322105182769
1254.9362961958905 2528.7729826927525
1255.7784771535007 2555.909312913072
1256.6204513660432 2562.594813471209
1257.4622188915 2590.467828737248
1258.3037797878242 2529.5165259798273
1259.1451341129468 2551.7156698071785
1259.9862819247755 2567.346388919809
1260.8272232811978 2465.538157623768
1261.6679582400666 2617.220224707079
1262.5084868592203 2455.7762358417594
1263.34880919647 2457.8613383864167
1264.1889253095997 2569.060288153359
1265.0288352563712 2571.8354107429486
1265.8685390945266 2504.706981419632
1266.7080368817751 2574.4045067980596
1267.5473286758115 2545.0851378890457
1268.386414534294 2494.1740703794785
1269.2252945148703 2320.3856088278835
1270.0639686751547 2481.9024706859614
1270.9024370727402 2515.5767677410463
1271.7406997651997 2374.9367614227085
1272.5787568100714 2446.63348524227
1273.4166082648808 2514.2072668251367
1274.2542541871244 2387.021960392596
1275.091694634275 2483.9457035166824
1275.9289296637817 2399.099543926214
1276.7659593330663 2454.421411482023
1277.6027836995308 2430.421921509186
1278.4394028205552 2449.795278885127
1279.2758167534867 2455.54802960314
1280.112025555658 2489.3725729377584
1280.9480292843746 2458.679885121349
1281.7838279969128 2413.3352232636535
1282.6194217505326 2400.4771328182387
1283.4548106024686 2289.7825498372213
1284.289994609926 2400.5186302154534
1285.1249738300921 2503.6882501093364
1285.959748320127 2308.4344807947323
1286.7943181371702 2460.639800838511
1287.6286833383328 2425.907336631778
1288.4628439807038 2412.167548713018
1289.2968001213521 2332.2563701738018
1290.1305518173194 2367.901285496129
1290.9640991256183 2414.8707205975215
1291.7974421032523 2353.7942179142256
1292.630580807183 2416.9969610744015
1293.463515294361 2489.1489644316835
1294.29624562171 2451.0431866435797
1295.12877184613 2330.500421131723
1295.961094024493 2395.8327855016228
1296.79321221365 2442.998218984375
1297.6251264704333 2417.5516174403906
1298.4568368516466 2566.2953935362266
1299.2883434140658 2471.0614582210505
1300.1196462144526 2434.177252189921
1300.9507453095375 2423.5520414123694
1301.7816407560313 2381.1259052063974
1302.6123326106172 2499.7672364752807
1303.4428209299622 2297.5578066468324
1304.2731057707024 2501.5559978984393
1305.1031871894502 2406.6744417202817
1305.933065242798 2462.3527911818146
1306.7627399873181 2476.621419153464
1307.5922114795467 2641.913989436046
1308.4214797760123 2843.4903010349776
1309.2505449332057 2403.0446614930565
1310.0794070076026 2593.5946550068848
1310.9080660556538 2526.9430988052295
1311.736522133786 2545.4912122887813
1312.5647752983987 2530.326454779065
1313.3928256058734 2449.700661597259
1314.2206731125661 2472.1134264665116
1315.048317874809 2456.260923301589
1315.8757599489109 2506.931717876772
1316.7029993911547 2552.1331897144637
1317.5300362578055 2629.2238865061036
1318.356870605101 2416.4844857183552
1319.183502489257 2504.2762020836362
1320.0099319664623 2525.465008966701
1320.836159092889 2525.9989890093702
1321.66218392468 2596.54603380592
1322.4880065179532 2493.8198502358164
1323.3136269288134 2475.257723841779
1324.1390452133292 2561.911223785483
1324.9642614275563 2581.108784389022
1325.7892756275214 2598.3044100627203
1326.6140878692295 2400.443074276248
1327.4386982086617 2650.5008842760035
1328.2631067017755 2594.5948390239764
1329.0873134045069 2571.6821934361606
1329.911318372764 2509.222189610307
1330.735121662441 2380.0221151975916
1331.558723329399 2503.4738359379744
1332.3821234294774 2443.0569963719868
1333.2053220185007 2525.0274611366112
1334.0283191522612 2510.631648352522
1334.851114886529 2520.3499969980326
1335.6737092770582 2531.1404862297754
1336.4961023795695 2530.690542070045
1337.3182942497697 2547.2846137559422
1338.1402849433325 2510.966865596699
1338.962074515921 2449.952874213992
1339.7836630231632 2366.229154980035
1340.6050505206676 2560.931324833137
1341.426237064028 2538.1378936619976
1342.2472227088037 2417.1720895605335
1343.0680075105338 2372.52938198003
1343.888591524741 2468.5342888154123
1344.7089748069138 2556.914823774268
1345.5291574125276 2486.350702024901
1346.3491393970307 2402.7069756968776
1347.168920815846 2535.852112572911
1347.9885017243778 2500.388400649399
1348.8078821780036 2494.468074810667
1349.6270622320844 2492.6626817340566
1350.4460419419447 2389.845257868107
1351.2648213629054 2555.630329688719
1352.0834005502438 2343.2178963480137
1352.90177955923 2433.0670081749477
1353.7199584451064 2526.739864238477
1354.5379372630887 2499.4124324360514
1355.355716068374 2451.7275882725107
1356.1732949161305 2462.1308678889613
1356.9906738615155 2368.4155807897123
1357.8078529596478 2469.0882751862373
1358.6248322656375 2499.722211454845
1359.441611834567 2350.87422498598
1360.2581917214866 2530.3422654802844
1361.0745719814367 2360.2550200984597
1361.890752669433 2375.2363792371875
1362.7067338404577 2323.7756517555326
1363.5225155494845 2463.7321879669053
1364.3380978514506 2472.8722972631526
1365.1534808012839 2304.306816869176
1365.9686644538815 2181.4179413345914
1366.783648864117 2398.802678036759
1367.5984340868417 2440.5050948643175
1368.413020176893 2442.4137184259916
1369.2274071890715 2475.02377865749
1370.0415951781652 2414.6168802592542
1370.8555841989346 2386.97818260626
1371.6693743061223 2388.9926022259456
1372.48296555444 2360.058341255422
1373.2963579985844 2468.4299436999936
1374.1095516932255 2295.0403725634014
1374.9225466930166 2233.4075179407137
1375.7353430525782 2288.008697538381
1376.5479408265164 2302.6667595582053
1377.36034006941 2313.0913723501085
1378.1725408358216 2357.745158372741
1378.9845431802805 2270.9322156360345
1379.796347157304 2434.3906366235647
1380.6079528213813 2433.167376065067
1381.4193602269788 2274.4637245780436
1382.230569428546 2283.314701332355
1383.0415804805016 2508.8241961681115
1383.852393437246 2419.6191554301245
1384.6630083531563 2414.067385260111
1385.4734252825892 2413.3242341783944
1386.2836442798798 2344.8289691440777
1387.0936653993322 2272.9882565906128
1387.9034886952395 2280.127178187146
1388.713114221864 2457.8855518890427
1389.5225420334482 2350.8383641072214
1390.331772184214 2247.414274686482
1391.1408047283585 2211.2533395162613
1391.9496397200564 2256.468434419466
1392.758277213461 2429.582125758819
1393.5667172627054 2302.64647997588
1394.3749599218918 2386.7272245738413
1395.1830052451114 2136.4051954425477
1395.9908532864265 2283.1058911302894
1396.7985040998774 2339.0586543920476
1397.6059577394808 2252.8082525885243
1398.4132142592352 2332.6101270702884
1399.2202737131156 2212.2632293214
1400.027136155073 2323.667629663655
1400.8338016390353 2258.1797820858037
1401.6402702189134 2232.9360952349953
1402.446541948586 2225.796559067265
1403.2526168819204 2176.001959034804
1404.058495072757 2291.5143796667553
1404.8641765749107 2275.2368561382145
1405.6696614421799 2289.4971891272185
1406.4749497283356 2428.5849398014984
1407.280041487129 2288.0606777211387
1408.084936772295 2138.999126648498
1408.8896356375335 2284.7266730190067
1409.6941381365323 2311.431016365701
1410.498444322955 2216.6333779246097
1411.3025542504402 2280.0802644846344
1412.106467972606 2290.4889321366095
1412.9101855430508 2317.9979107785975
1413.7137070153458 2152.6722346222796
1414.5170324430437 2135.0261380941397
1415.320161879672 2261.611966591973
1416.1230953787435 2328.288581642391
1416.925832993742 2222.29133646777
1417.7283747781275 2092.8096701878667
1418.5307207853439 2131.631665580933
1419.3328710688093 2112.9608264484477
1420.134825681922 2057.7477671279103
1420.9365846780584 2124.996029060489
1421.7381481105713 2211.8987093547767
1422.539516032788 2209.1535588628985
1423.3406884980232 2045.3054015503053
1424.1416655595604 2077.057568843172
1424.942447270665 2046.508624173947
1425.7430336845828 2101.2123406456485
1426.5434248545298 2130.8700115715283
1427.3436208337116 2126.448925620055
1428.143621675301 2281.4482407882197
1428.9434274324558 2091.1537697307117
1429.7430381583108 1975.0334112041771
1430.5424539059713 2151.6832464865092
1431.3416747285337 2407.4022311543567
1432.1407006790632 2169.2441587550065
1432.9395318106053 2158.070742263908
1433.7381681761835 2056.656747840659
1434.5366098288014 2230.356532872439
1435.3348568214424 2136.587499420254
1436.1329092070573 2153.3873062778384
1436.9307670385879 2088.673286791467
1437.7284303689503 2241.363233795823
1438.5258992510335 2291.164697817113
1439.3231737377118 2215.1231481949826
1440.1202538818306 2205.490851640194
1440.9171397362225 2053.152845636925
1441.7138313536925 2103.8493665251062
1442.5103287870243 2047.5212911358444
1443.3066320889775 2119.4916719583002
1444.1027413122956 2230.4462902366367
1444.8986565096966 2129.923519393468
1445.694377733882 2180.2692629001244
1446.4899050375207 2104.5008429985373
1447.2852384732687 2053.714872568645
1448.0803780937622 2143.425996649595
1448.8753239516063 2113.067180002249
1449.6700760993954 2051.508611831109
1450.464634589689 2051.3858458745863
1451.2589994750397 2184.2998458236443
1452.0531708079689 2096.5559903049116
1452.8471486409799 2017.3088749887586
1453.6409330265524 2167.1444804328285
1454.4345240171442 2039.8295960392843
1455.2279216651987 2116.4313795200965
1456.0211260231263 2122.5620629283503
1456.8141371433194 2057.5060862545615
1457.6069550781594 2070.0268545495846
1458.3995798799897 2037.3633905632655
1459.1920116011424 2093.4573115312533
1459.98425029393 2046.8385735457337
1460.7762960106338 2028.0226892450567
1461.5681488035225 2087.6642692967707
1462.3598087248392 2046.6492864305499
1463.1512758268036 2136.0036190493056
1463.942550161617 1994.6492904270222
1464.7336317814625 1988.3994880898147
1465.524520738496 1994.3975578438472
1466.3152170848552 1988.726683969589
1467.1057208726506 2069.528459197075
1467.8960321539817 1950.412224951445
1468.6861509809169 1873.2048752705955
1469.4760774055085 1986.6758586371275
1470.265811479785 2054.472402465654
1471.055353255755 1768.8623671561204
1471.844702785409 2008.8469404197344
1472.6338601207044 1944.036659326329
1473.4228253135934 1966.0756446762898
1474.2115984159936 1988.2475408737428
1475.0001794798063 1840.2115692431598
1475.7885685569145 1867.299654901187
1476.576765699172 2015.116152985514
1477.3647709584238 2003.6421384089742
1478.1525843864802 2051.6268573596726
1478.9402060351367 2005.2694851125732
1479.7276359561693 1999.440630511311
1480.514874201328 2017.103307976487
1481.3019208223468 1920.7076960063837
1482.0887758709323 1824.7551996506456
1482.8754393987747 1975.779271242251
1483.6619114575406 1844.2738645458915
1484.4481920988783 2026.2917026637201
1485.2342813744108 2019.1084945754847
1486.0201793357446 2048.7068980490167
1486.8058860344572 1963.4096736535073
1487.591401522117 1985.4159151073604
1488.3767258502594 1901.8460940874563
1489.1618590704056 1882.9231815379594
1489.9468012340494 1799.802547804658
1490.7315523926754 2010.9365609901045
1491.5161125977356 1999.1611186102023
1492.3004819006637 1952.791679688228
1493.084660352877 1946.242773801979
1493.8686480057622 1967.0792130805694
1494.6524449106964 2043.3942443300934
1495.4360511190262 2015.325967984393
1496.219466682087 2023.0604620763747
1497.0026916511779 2107.288812886917
1497.7857260775945 1877.7031517440078
1498.5685700125996 1974.5020541525896
1499.3512235074395 1976.8391621725455
1500.133686613337 1932.4744570229582
1500.9159593814966 1915.6627849860258
1501.698041863101 2138.1677822329098
1502.4799341093094 1916.9826371463696
1503.2616361712662 1875.1467217490185
1504.043148100087 2019.687810508566
1504.8244699468742 2056.3091083068775
1505.6056017626997 2044.9583719061764
1506.3865435986281 1811.3081974983693
1507.1672955056893 1967.6085334200204
1507.9478575348967 1878.4761411698214
1508.7282297372512 1977.1769652299033
1509.5084121637192 1902.9344822489488
1510.2884048652577 1919.3000429668348
1511.0682078927948 1853.0556305385157
1511.8478212972423 1830.1898957854428
1512.6272451294917 1910.9006588012926
1513.4064794404076 1979.961083830527
1514.1855242808433 1894.5569429099473
1514.9643797016215 1964.0133918357478
1515.743045753552 1887.5257897666622
1516.5215224874191 1925.4074084954252
1517.2998099539836 1687.0435217791764
1518.077908203999 1993.6751439424115
1518.8558172881785 1936.3686155215867
1519.633537257234 2024.2665873290941
1520.4110681618404 1809.7052014249352
1521.1884100526604 2049.2947867053585
1521.9655629803365 2019.133210756688
1522.7425269954856 2064.1660605138027
1523.5193021487103 1973.336912634127
1524.2958884905856 1835.7689708862697
1525.0722860716687 1759.8797743510618
1525.848494942502 1923.7532509705786
1526.624515153595 1867.4012447437283
1527.4003467554485 1968.2447202160815
1528.175989798534 1984.3657945682633
1528.9514443333064 1863.2850054331461
1529.726710410203 2034.4690354584814
1530.5017880796331 1831.2768475475161
1531.276677391992 1858.9681853015409
1532.0513783976457 1971.7894209070164
1532.825891146953 1985.320240275993
1533.6002156902414 2011.7960018958481
1534.3743520778207 1864.0159810763594
1535.1483003599806 1898.4796205498576
1535.9220605869923 1784.546444945829
1536.6956328091019 1937.3786251332235
1537.4690170765407 1960.4304642651769
1538.242213439511 2009.0539051238025
1539.015221948208 1987.1070009016094
1539.78804265279 1812.4003252623274
1540.560675603405 1785.9493373668
1541.3331208501804 2022.5191687463825
1542.1053784432224 2033.9938416327623
1542.8774484326168 2102.686707790727
1543.649330868422 1994.9784126950512
1544.4210258006842 1950.7277360712883
1545.1925332794308 1898.9778360430562
1545.9638533546604 1878.4951700177971
1546.7349860763552 1856.242855652433
1547.5059314944829 2009.2842352026832
1548.27668965898 2001.7674409107688
1549.0472606197673 1979.2495633257931
1549.817644426752 1877.0100058877524
1550.5878411298072 1950.4121970330266
1551.3578507787988 2044.0239581145554
1552.1276734235635 2041.5133862362375
1552.8973091139233 1919.3240197205112
1553.6667578996767 1894.6262418967221
1554.436019830604 2099.55826145465
1555.20509495646 1980.1943765917629
1555.9739833269869 1911.1000459842696
1556.7426849919011 1826.588869643844
1557.511200000903 2079.8690188566434
1558.2795284036674 2080.603187114478
1559.0476702498509 1944.9707371557554
1559.8156255890954 1997.541514221135
1560.5833944710157 2056.593521147247
1561.3509769452048 1940.5667312535613
1562.1183730612447 1996.7917799819108
1562.8855828686865 1824.2545980959433
1563.6526064170703 2091.5859137562466
1564.4194437559127 2142.199304574224
1565.1860949347047 1860.5009179380727
1565.9525600029283 2103.9785307130987
1566.7188390100328 2033.9157890443505
1567.4849320054564 1948.2495818374769
1568.250839038612 1889.208147894805
1569.0165601588997 1928.702385191133
1569.7820954156887 2012.4271559582485
1570.5474448583373 2025.515071244498
1571.31260853618 1958.2004022744918
1572.0775864985299 1835.449132553707
1572.8423787946813 2020.8910238646174
1573.6069854739108 1782.8103758835794
1574.371406585471 1968.0954259488567
1575.1356421785986 2052.5819769577183
1575.899692302506 1974.6530102336214
1576.6635570063845 1984.7332390678553
1577.4272363394157 1955.5072546373212
1578.190730350747 1907.5158545268441
1578.9540390895163 1825.0058994382962
1579.7171626048384 1711.0035491375104
1580.480100945806 1884.327740606869
1581.2428541614918 1910.5458628426727
1582.0054223009538 1791.074612740225
1582.767805413223 1951.268993889224
1583.5300035473156 1870.381969621818
1584.292016752228 2023.961078606161
1585.0538450769309 1951.9060478103188
1585.8154885703807 1884.3099559124998
1586.5769472815136 1881.4825859775042
1587.3382212592405 1930.4643918216057
1588.099310552463 2115.9616869263814
1588.8602152100484 1820.6970555651228
1589.6209352808564 2045.1546709967395
1590.3814708137234 1829.65715123332
1591.14182185746 1860.4515604036364
1591.9019884608679 1971.5469953229967
1592.6619706727215 1766.7360620553438
1593.4217685417734 1916.7507542772648
1594.1813821167616 2069.5681951957076
1594.9408114464022 1694.1867169088478
1595.7000565793933 1957.2556219023693
1596.459117564409 1847.5015340877442
1597.2179944501113 1824.2021496452198
1597.9766872851324 1937.1558240205436
1598.735196118092 1903.4369073387486
1599.4935209975883 2035.9967663702507
1600.2516619721973 2001.8580712651194
1601.0096190904787 1916.011318168649
1601.7673924009723 2053.140482585397
1602.524981952196 1806.4084536882401
1603.2823877926476 1873.7750519752994
1604.0396099708087 1919.8536220082738
1604.7966485351371 1733.4280957151848
1605.5535035340745 1993.2402997120996
1606.3101750160404 2020.5411018850161
1607.0666630294363 1818.2393408620871
1607.822967622642 1799.287131550357
1608.5790888440224 1834.379058254696
1609.3350267419137 2016.501548027833
1610.0907813646445 1892.3639061425042
1610.8463527605145 2105.2269433200986
1611.601740977805 2004.232941278556
1612.356946064785 2002.8693783274066
1613.1119680696902 1771.7689334831564
1613.8668070407512 1809.1978493180882
1614.6214630261748 1821.213703168849
1615.375936074137 1861.4037969888154
1616.1302262328118 1947.2026418656637
1616.8843335503425 1923.6476066154041
1617.638258074854 1749.0234766366877
1618.391999854457 1959.5477807701486
1619.1455589372363 2053.3766484363573
1619.8989353712623 2023.1150879781624
1620.65212920458 1673.8894002441853
1621.4051404852235 1883.8530550523367
1622.1579692611976 1862.9397726396776
1622.9106155804966 1826.7657211350793
1623.663079491087 1815.6567620285107
1624.4153610409248 1989.4589888164476
1625.1674602779385 1888.9175944075646
1625.9193772500403 1727.2483315205222
1626.6711120051277 1946.679485609901
1627.4226645910676 1861.5539218485567
1628.174035055721 1721.1939644113743
1628.9252234469168 1830.644246372282
1629.676229812474 1746.129166962298
1630.4270542001905 2063.9407160638793
1631.1776966578382 1885.821621238239
1631.9281572331747 1870.6699008374974
1632.678435973945 1890.296741719863
1633.4285329278573 1944.056784103105
1634.1784481426203 1788.2374126289894
1634.9281816659113 1944.9395093876087
1635.677733545388 1965.4808102743623
1636.4271038286934 1868.677456062204
1637.176292563452 1803.1812910668364
1637.9252997972635 1918.7899291095794
1638.674125577716 1934.8359628317146
1639.4227699523672 2083.884536166625
1640.171232968767 1774.1061019853928
1640.9195146744423 1947.4465989279847
1641.6676151168977 1961.0834326543397
1642.4155343436178 1909.3305544139262
1643.1632724020765 1849.7456205288843
1643.9108293397167 1933.7732502584633
1644.658205203974 1724.178384671309
1645.4054000422566 1760.9524781415682
1646.1524139019566 1797.6160652700669
1646.8992468304423 1885.9557076746253
1647.6458988750728 1778.9958959755943
1648.3923700831765 1906.073386575
1649.1386605020743 1897.2755219934093
1649.8847701790564 2005.4322666285439
1650.6306991614038 1967.9671428541983
1651.3764474963682 1969.391378835739
1652.1220152311944 1786.7200980833877
1652.867402413096 1974.076204565609
1653.6126090892776 1772.5562660643893
1654.3576353069184 2028.4404570595834
1655.1024811131829 1995.6386677798923
1655.8471465552066 2005.9926026519606
1656.5916316801213 2062.4483863546707
1657.3359365350298 1951.7650339545137
1658.0800611670165 1891.2460455370037
1658.824005623148 1839.1012248799184
1659.5677699504722 1842.223369393935
1660.3113541960192 1906.4026363309488
1661.054758406799 1911.795098317548
1661.7979826297997 1873.57645952963
1662.5410269119966 1915.4274585137377
1663.283891300338 1965.0392909401478
1664.0265758417645 1818.5195907348866
1664.7690805831826 1865.095192620734
1665.5114055714948 2077.1315771493914
1666.2535508535748 2049.502591067726
1666.9955164762814 1707.7933946364797
1667.7373024864555 1895.7557613353536
1668.478908930916 2052.6445470522312
1669.220335856462 1666.3341400449267
1669.9615833098778 1843.6627998636093
1670.7026513379296 1797.1835047910972
1671.44353998736 1744.9663541776117
1672.1842493048916 1830.883344730241
1672.9247793372379 1810.876370024501
1673.6651301310812 1837.3574871231758
1674.4053017330934 1730.5665624443234
1675.1452941899242 1755.163885760331
1675.885107548207 1447.9839867869675
1676.6247418545518 1687.2000285941424
1677.3641971555535 1797.8358873614957
1678.1034734977893 1761.5011900207123
1678.8425709278108 1807.5416677089693
1679.5814894921605 1721.3032779642497
1680.320229237359 1601.7431187615334
1681.0587902098978 1819.4259830262629
1681.7971724562685 1746.430494240285
1682.5353760229264 1762.6461831088636
1683.2734009563173 1587.8190834304241
1684.0112473028657 1611.885262378708
1684.7489151089794 1623.0203898603481
1685.4864044210462 1697.779835350948
1686.2237152854377 1472.012010240191
1686.960847748498 1731.3977329452932
1687.6978018565642 1677.0698134371391
1688.434577655944 1562.5865694019262
1689.1711751929379 1743.875355208626
1689.9075945138156 1696.8470875756698
1690.6438356648396 1508.0313345902782
1691.3798986922448 1476.6536146575386
1692.1157836422499 1628.5854332483398
1692.851490561059 1534.4321698738295
1693.587019494853 1507.0833845636782
1694.3223704897991 1481.7740145330372
1695.0575435920364 1408.1652827523517
1695.792538847696 1620.655186334329
1696.527356302886 1527.1961169813262
1697.2619960036936 1495.758075503761
1697.9964579961907 1446.027720184613
1698.730742326432 1192.8787260651784
1699.4648490404488 1298.1952626946338
1700.1987781842563 1508.39367498132
1700.9325298038548 1573.7532956585135
1701.6661039452174 1664.1526374594807
1702.3995006543082 1579.3459314113968
1703.1327199770658 1578.1984507316404
1703.865761959416 1484.5432408672746
1704.598626647261 1519.511007364702
1705.3313140864866 1476.6055505535617
1706.0638243229587 1542.6968192052852
1706.7961574025303 1554.3751535774686
1707.528313371029 1594.8351812492867
1708.260292274268 1320.7030744887325
1708.9920941580403 1497.6141655372057
1709.7237190681226 1474.2499599789685
1710.4551670502697 1483.314768060538
1711.18643815022 1316.8266772738332
1711.9175324136959 1576.1318063263766
1712.6484498863938 1442.8726081240238
1713.379190614005 1286.532891873125
1714.109754642188 1534.6326689303203
1714.8401420165883 1408.8067541122252
1715.570352782839 1235.2831566471887
1716.3003869865497 1580.2115604936475
1717.0302446733076 1436.4081898463053
1717.7599258886876 1344.51324945349
1718.4894306782444 1479.2742414900408
1719.2187590875183 1485.0343960839969
1719.9479111620203 1433.2263898489682
1720.6768869472544 1432.1983779016666
1721.4056864887025 1509.8004535539044
1722.1343098318284 1480.3808305755952
1722.8627570220742 1434.4148723568699
1723.591028104871 1348.566167348467
1724.3191231256242 1300.8482664907879
1725.0470421297232 1332.6826469121438
1725.7747851625427 1364.4680624746532
1726.5023522694337 1433.077156013522
1727.2297434957363 1384.898172866802
1727.9569588867635 1136.8694535160344
1728.6839984878152 1149.877817996311
1729.4108623441734 1162.9514394120301
1730.1375505011038 1433.9762191395055
1730.8640630038426 1366.3278592172644
1731.5903998976264 1356.2359268981877
1732.316561227657 1465.9113655799872
1733.0425470391274 1329.6498656053632
1733.7683573772065 1423.8183065139758
1734.4939922870508 1375.3949240031427
1735.2194518137949 1332.1396160745192
1735.9447360025606 1418.9248269618115
1736.669844898439 1370.1076179453735
1737.3947785465189 1343.2128596310963
1738.1195369918605 1177.1549524414945
1738.8441202795093 1262.9444322490713
1739.5685284544943 1404.602956233668
1740.292761561821 1413.1939951749264
1741.0168196464838 1538.905173397607
1741.7407027534518 1237.8965596253536
1742.464410927687 1327.5925671659595
1743.187944214118 1346.0811551220581
1743.9113026576688 1227.2298652685963
1744.634486303241 1335.7266050909273
1745.3574951957125 1228.3963451784095
1746.0803293799509 1324.9319784532502
1746.8029889008048 1288.433159140879
1747.5254738031017 1389.182488069277
1748.2477841316504 1244.6746102938446
1748.969919931249 1290.7446923626608
1749.6918812466665 1179.8807606797482
1750.4136681226646 1454.3911185598465
1751.1352806039777 1442.7007877786154
1751.856718735331 1303.0079399571596
1752.5779825614281 1364.237952394169
1753.2990721269507 1431.87230390237
1754.0199874765676 1423.3828324490469
1754.7407286549314 1199.743149763804
1755.4612957066693 1324.2992113885941
1756.1816886763954 1394.3243670265172
1756.9019076087097 1362.7058619712473
1757.6219525481865 1406.7523666019165
1758.3418235393856 1355.9837165856766
1759.061520626854 1379.432188870051
1759.7810438551096 1386.3578555464824
1760.5003932686614 1330.5421159221546
1761.2195689119999 1384.4732464732674
1761.938570829594 1327.8733214802198
1762.657399065898 1285.4241596493166
1763.376053665348 1257.9386904458122
1764.0945346723602 1251.7416893295067
1764.812842131334 1388.8088454390354
1765.5309760866512 1146.686678545462
1766.2489365826787 1316.3685366024936
1766.9667236637597 1338.1311170044578
1767.684337374223 1123.1136761670248
1768.401777758383 1014.4102966265842
1769.1190448605284 1281.3714142336692
1769.836138724937 1248.730603224712
1770.5530593958665 1334.209337031859
1771.2698069175603 1271.413976644821
1771.9863813342326 1317.346661559522
1772.702782690094 1299.6608356467755
1773.4190110293293 1279.4633262295556
1774.1350663961111 1436.099865440141
1774.8509488345844 1173.194644036747
1775.5666583888924 1339.3704211256631
1776.2821951031437 1477.7533544886405
1776.9975590214362 1366.020458963483
1777.7127501878585 1502.199236169295
1778.4277686464684 1264.6784266140016
1779.1426144413108 1366.654979243871
1779.8572876164162 1313.2851275050016
1780.571788215797 1311.2822773789271
1781.2861162834415 1401.7496827853936
1782.0002718633277 1288.922721462944
1782.7142549994132 1255.5784962388875
1783.4280657356376 1392.179524764316
1784.141704115922 1225.6389875293507
1784.855170184177 1235.5318763244977
1785.5684639842839 1246.1668269457377
1786.2815855601148 1207.445340172801
1786.9945349555237 1260.089246924458
1787.707312214343 1154.9607967870888
1788.4199173803918 1266.116756791874
1789.132350497468 1242.929628022569
1789.8446116093583 1256.3464205995529
1790.556700759822 1359.2886093230493
1791.2686179926077 1189.1099891639194
1791.9803633514493 1372.9269331646221
1792.6919368800554 1147.7482564337538
1793.4033386221236 1365.3625837793404
1794.1145686213295 1365.1978482633508
1794.8256269213307 1427.188850024688
1795.536513565774 1331.2224139550224
1796.247228598284 1148.1426307023312
1796.9577720624693 1229.7671074236641
1797.6681440019165 1256.4973664385839
1798.3783444602013 1269.2627360800739
1799.0883734808776 1258.9507471640077
1799.7982311074884 1306.2237568892215
1800.5079173835475 1153.9430756601855
1801.2174323525633 1355.3778077721477
1801.9267760580187 1178.7980033061644
1802.635948543386 1314.2971967626606
1803.3449498521113 1205.156774325715
1804.0537800276325 1205.076462158535
1804.7624391133668 1267.9166704923384
1805.47092715271 1134.4990261405674
1806.1792441890484 1250.4721480218145
1806.8873902657433 1344.23422902159
1807.5953654261448 1295.3710804352936
1808.3031697135812 1232.3340414235106
1809.0108031713662 1206.6138642229175
1809.71826584279 1286.486505254612
1810.425557771141 1271.5162331609267
1811.1326789996747 1438.8829596046025
1811.839629571632 1254.649793326936
1812.5464095302468 1196.9032636376824
1813.2530189187182 1344.2724721892193
1813.959457780249 1148.7147320948602
1814.6657261580076 1260.2363474057786
1815.371824095153 1120.436061057426
1816.0777516348262 1270.5126374185356
1816.78350882015 1098.0471686191026
1817.4890956942272 1136.2448384616353
1818.1945123001533 1265.7434094773587
1818.8997586809928 1152.564427100991
1819.6048348798067 1294.8099623661424
1820.3097409396287 1147.969258470466
1821.0144769034796 1291.1375182958327
1821.7190428143622 1166.6957501404033
1822.423438715261 1154.1477545002872
1823.1276646491478 1141.5245013094057
1823.8317206589727 1292.2146970013303
1824.5356067876692 1238.7693709926768
1825.2393230781581 1020.5509640721041
1825.942869573335 1178.7978151259135
1826.646246316086 1294.2345040893922
1827.3494533492758 1271.8176253418767
1828.052490715756 1242.683374394733
1828.7553584583547 1226.1848808807167
1829.458056619891 1303.131598515622
1830.1605852431585 1200.0100489662295
1830.8629443709433 1182.77251705147
1831.5651340460063 1193.3837018563295
1832.2671543110919 1274.8798909891923
1832.9690052089318 1288.2194508059197
1833.6706867822395 1192.8035477011742
1834.3721990737104 1340.6023809874382
1835.0735421260233 1383.1495267464936
1835.774715981841 1272.022955920763
1836.4757206838058 1283.765494645007
1837.1765562745459 1054.0787865417246
1837.8772227966747 1080.6328168611105
1838.5777202927839 1375.903885774802
1839.2780488054523 1268.994088879893
1839.9782083772352 1258.4665219427725
1840.6781990506806 1342.305472049556
1841.378020868313 1215.6766376213698
1842.0776738726418 1224.3596398020159
1842.777158106157 1270.637465352324
1843.4764736113375 1194.579834117682
1844.1756204306403 1410.351610272425
1844.8745986065078 1230.8876318111884
1845.5734081813607 1164.260819674289
1846.2720491976124 1171.6935050117597
1846.970521697649 1134.6712495556653
1847.6688257238511 1285.9737326305506
1848.3669613185684 1295.2369012691208
1849.0649285241452 1063.6619638085072
1849.7627273829057 1178.3566626923719
1850.460357937156 1071.1073759985215
1851.1578202291857 1275.5401429806066
1851.8551143012664 1168.7765980095799
1852.5522401956569 1319.3010157953527
1853.2491979545957 1306.5024759563046
1853.9459876203055 1204.3776186286834
1854.6426092349902 1204.0550317017594
1855.3390628408451 1223.723830733822
1856.0353484800362 1215.0651781029355
1856.7314661947203 1201.2931273678053
1857.4274160270397 1099.4039226461255
1858.123198019115 1149.5652682840087
1858.8188122130487 1219.7105910869482
1859.5142586509319 1205.079486728439
1860.209537374838 1221.6206666712735
1860.9046484268183 1128.0075237479346
1861.599591848917 1075.4722328881126
1862.294367683151 1022.8453023788261
1862.988975971528 1140.9558354643455
1863.6834167560355 1240.9530114684796
1864.3776900786452 1215.71316181471
1865.0717959813119 1124.222445903945
1865.7657345059724 1294.174658140234
1866.4595056945564 1290.777484456878
1867.1531095889586 1260.3502796690384
1867.846546231076 1208.071255168703
1868.5398156627743 1206.4719190980265
1869.2329179259123 1207.5110910254127
1869.9258530623283 1304.9285410878742
1870.618621113843 1243.7665507797492
1871.3112221222636 1195.6296581741192
1872.0036561293764 1083.2632457288555
1872.695923176956 1288.8815077725087
1873.3880233067594 1274.01331263342
1874.0799565605212 1133.248173952532
1874.7717229799673 1147.3343394327173
1875.4633226068036 1321.0428861131736
1876.1547554827175 1264.757655411204
1876.8460216493859 1112.1316321354982
1877.5371211484617 1196.9992852158607
1878.2280540215852 1249.2681701934441
1878.9188203103804 1088.2640263678131
1879.6094200564548 1081.58613736956
1880.299853301396 1074.882797849022
1880.9901200867826 1205.2378593995863
1881.6802204541673 1272.7327543868364
1882.3701544450942 1239.009250438172
1883.059922101087 1202.550048612086
1883.7495234636517 1197.1631888837958
1884.4389585742792 1216.681305951863
1885.1282274744517 1149.7785519423248
1885.8173302056166 1157.6770598573678
1886.506266809225 1165.5879507056434
1887.195037326701 1026.204982492188
1887.8836417994517 1261.007990397166
1888.5720802688702 1387.987044137198
1889.260352776333 1106.2742089526887
1889.9484593632042 1217.2680088586942
1890.63640007082 1182.3860747758215
1891.3241749405151 1103.521546364265
1892.0117840135954 1239.0795758135275
1892.6992273313572 1137.696849937382
1893.3865049350788 1081.993304774358
1894.0736168660223 1095.9155325753125
1894.7605631654333 1109.8204372760317
1895.4473438745408 1082.688619321722
1896.133959034556 1080.2619845835486
1896.820408686679 1077.780263828628
1897.506692872088 1229.206157525645
1898.192811631945 1182.0301006434936
1898.8787650073991 1258.6550167241312
1899.5645530395832 1291.0918758518364
1900.2501757696118 1367.9914172064812
1900.9356332385796 1039.2961856136114
1901.620925487574 1206.9559665839847
1902.3060525576602 1293.3368517719289
1902.9910144898859 1269.1642444076651
1903.6758113252872 1097.729928915285
1904.3604431048789 1181.7360475013766
1905.0449098696663 1202.1722231632157
1905.7292116606295 1177.052753250635
1906.4133485187394 1228.5801749823372
1907.0973204849488 1198.379509423797
1907.7811276001976 1168.0880299243877
1908.4647699053967 1237.0903536456688
1909.1482474414588 1006.3162896068268
1909.8315602492694 959.5404189270682
1910.5147083696957 1183.64359202295
1911.1976918436012 1294.9735350059368
1911.880510711815 1147.8416891814206
1912.5631650151681 974.650428371513
1913.2456547944657 1270.2504402872157
1913.927980090495 1167.8609143616407
1914.6101409440362 1152.9993723036785
1915.2921373958416 1040.2341984985155
1915.9739694866603 1202.734727244971
1916.655637257214 1337.749423055614
1917.3371407482136 1184.1896504128067
1918.0184800003572 1278.6354325491825
1918.6996550543154 1153.4966121422792
1919.3806659507554 1180.2584785233742
1920.0615127303208 1286.817956161382
1920.7421954336423 1360.936494581076
1921.4227141013343 1068.0388149907394
1922.103068773993 1080.6886893916221
1922.783259492202 1246.8532718013646
1923.4632862965227 1102.3725818698115
1924.1431492275078 1123.5513087762743
1924.8228483256917 1140.1561887742412
1925.5023836315922 1146.581065837831
1926.1817551857057 972.921413850492
1926.8609630285227 1210.0420433475533
1927.5400072005123 1178.3502501939947
1928.218887742125 1010.043104140067
1928.8976046938005 979.1748050029889
1929.5761580959588 1074.4237918518945
1930.2545479890086 1169.9490467942214
1930.9327744133352 1040.6744685311364
1931.6108374093164 1223.4952102698423
1932.2887370173066 1271.1027262132043
1932.9664732776473 1225.4262580037794
1933.6440462306673 1179.600294491592
1934.3214559166754 1039.1083143459448
1934.9987023759659 1070.486164634431
1935.675785648813 1168.2118214088296
1936.3527057754836 1023.4118897852838
1937.029462796223 1239.9460259198327
1937.70605675126 1193.7729730035862
1938.3824876808085 1152.285728532913
1939.058755625072 1005.0264413629475
1939.7348606242267 1287.4242229944723
1940.4108027184448 1231.6395019087827
1941.0865819478713 1312.3725784728667
1941.7621983526478 992.4352876833248
1942.4376519728921 985.9038379571236
1943.1129428487038 1109.7435095144249
1943.7880710201734 1157.041518046379
1944.4630365273733 1309.1509767287348
1945.1378394103576 1000.7720167807349
1945.8124797091714 956.0440166389766
1946.4869574638324 911.1937790165181
1947.161272714353 1018.1794014271042
1947.8354255007234 1150.4464421546197
1948.5094158629272 1051.9364700717865
1949.1832438409183 1174.7720987303373
1949.8569094746435 1282.3328223612853
1950.530412804037 1328.0588382787944
1951.2037538690092 1292.3837784713885
1951.8769327094578 1173.1359924310702
1952.5499493652678 1134.2992311889534
1953.222803876306 1143.000740099392
1953.895496282421 1184.7522564436777
1954.5680266234522 1075.548950755916
1955.2403949392155 1188.3456386233345
1955.9126012695142 971.6438351116251
1956.5846456541403 1207.4272740491376
1957.2565281328643 931.8794573517649
1957.9282487454457 1194.3730365753295
1958.5998075316202 1290.0808454043495
1959.27120453112 1147.2197427922888
1959.9424397836501 1146.1736737634524
1960.613513328908 1288.2378603087698
1961.2844252065697 1206.875578362583
1961.9551754563017 1233.3329872573674
1962.6257641177453 1059.3725715561363
1963.29619123054 1142.6733669142598
1963.966456834296 1097.1641376200855
1964.6365609686181 1008.2494810410492
1965.306503673086 1151.6117867759294
1965.976284987275 1123.65235547484
1966.645904950734 1171.5414915694341
1967.315363603002 1169.1355524899209
1967.9846609836077 1184.4338321393666
1968.6537971320486 1242.1313999287506
1969.3227720878222 1142.815966116082
1969.9915858904042 1021.6850037678975
1970.660238579252 1255.209619010222
1971.3287301938108 1169.711730449
1971.997060773514 1030.8471503883734
1972.665230357772 1204.651343650457
1973.3332389859843 1221.8695596639368
1974.0010866975335 1239.223718191921
1974.6687735317864 1226.4138328095771
1975.3362995280932 1262.2285127979956
1976.003664725793 1101.3105419152748
1976.6708691642052 1105.1279653492095
1977.3379128826364 1108.8622207065278
1978.004795920373 1267.8516753257582
1978.6715183166925 1132.0934180310846
1979.3380801108524 1338.5773380423793
1980.0044813420973 1149.3740741048998
1980.6707220496555 1023.375472555504
1981.3368022727373 1032.1155393476379
1982.0027220505417 1185.8963569890648
1982.66848142225 1093.9117609914792
1983.3340804270283 1106.978735992732
1983.999519104027 1160.2125465430552
1984.6647974923835 1203.5337088736446
1985.329915631215 1191.683220886235
1985.99487355963 1281.32318854661
1986.6596713167146 1230.183507059794
1987.3243089415428 1240.3421546643426
1987.9887864731754 1318.030962842237
1988.6531039506553 1050.7538769138891
1989.3172614130071 1275.8427479003415
1989.9812588992481 1259.7714725418884
1990.645096448372 1202.2161077564842
1991.3087740993633 1260.009901602598
1991.9722918911848 1082.7949066342894
1992.635649862792 1064.5312887924129
1993.2988480531185 1243.244420305759
1993.9618865010852 1287.1634735410512
1994.6247652455968 1170.4688065678156
1995.287484325545 943.5809005533947
1995.9500437798033 982.3841700171424
1996.6124436472292 1021.3165905682138
1997.2746839666706 1263.77474429731
1997.936764776954 1145.5698164861437
1998.598686116895 1140.7996869406827
1999.2604480252903 1240.6266006587139
1999.9220505409212 1074.6407890703515
2000.5834937025593 994.5875143407909
2001.2447775489582 1008.9823205939931
2001.9059021188514 1023.3250173824405
2002.5668674509616 1165.4517492642392
2003.2276735839987 1042.5319138134123
2003.8883205566508 1223.9699933277168
2004.5488084075987 1108.0412745900708
2005.2091371755014 1131.5486113727145
2005.8693068990033 1165.4853993593279
2006.5293176167397 1061.8336297344117
2007.1891693673224 1050.3483089180097
2007.848862189354 978.7605266018012
2008.5083961214223 1118.9895605885026
2009.1677712020955 1106.7579673979822
2009.8269874699254 1083.1189612180297
2010.4860449634598 1161.6436533372166
2011.1449437212177 1041.0741564984053
2011.8036837817108 1183.6388224699856
2012.4622651834325 1212.570728055026
2013.1206879648653 1239.540738406757
2013.7789521644736 1293.9216537632967
2014.4370578207036 1057.1985166221896
2015.0950049719922 1025.1027658684973
2015.7527936567585 1216.4841327875097
2016.4104239134067 1257.346044937238
2017.067895780323 1280.2997819955187
2017.725209295886 1290.0400142467533
2018.3823644984514 1299.7759705226035
2019.0393614263648 1211.263716908844
2019.6962001179545 936.365453339357
2020.3528806115355 1228.3848807207128
2021.0094029454067 1182.594644570479
2021.6657671578487 1136.6994961484475
2022.321973287133 1098.735904175066
2022.9780213715148 1182.8089137402474
2023.6339114492293 1094.5029206849015
2024.2896435585026 968.3862554401461
2024.9452177375442 1130.308209307578
2025.600634024544 1263.7133846629654
2026.2558924576842 1124.4226503799093
2026.9109930751292 1176.1133709288827
2027.565935915025 1119.6327973196735
2028.2207210155066 1224.6579771931524
2028.8753484146964 1196.288806817809
2029.529818150695 1018.5886838108343
2030.1841302615903 1133.6432094306988
2030.8382847854573 1033.766637511511
2031.4922817603601 1035.2192312011823
2032.1461212243357 1107.7464273901921
2032.7998032154192 1122.1928333453568
2033.4533277716218 1136.5314677618885
2034.1066949309443 965.087580856125
2034.7599047313688 1204.5207504108778
2035.4129572108704 1265.9878918989123
2036.0658524074006 1338.5291238976356
2036.7185903589016 1238.1534341576066
2037.3711711032956 1144.2944973742738
2038.023594678496 1013.9300268531181
2038.675861122394 967.412485764548
2039.3279704728757 1066.934727884548
2039.9799227678031 907.5894848523061
2040.6317180450278 1151.6087292274965
2041.2833563423865 1141.9843548998683
2041.9348376977014 1233.5071231743473
2042.5861621487784 1149.3121525658646
2043.2373297334088 1383.6008775549437
2043.8883404893695 1168.638081447693
2044.5391944544208 1194.362874774001
2045.1898916663158 1057.9238351288511
2045.8404321627804 1247.8307063692562
2046.4908159815368 938.594161478705
2047.1410431602853 1250.6027446981975
2047.7911137367173 936.3352935817074
2048.441027748504 1070.254702885235
2049.090785233302 988.8511141822498
2049.7403862287592 1033.0683988250528
2050.389830772503 898.7849681476864
2051.0391189021466 1188.5213920673207
2051.688250655294 1057.0747163197132
2052.337226069527 1086.9530088284735
2052.986045182417 1202.4976716664632
2053.634708031521 921.8156940852883
2054.283214654375 1146.9210640086385
2054.931565088511 785.7313419525769
2055.579759371436 945.6485786441341
2056.2277975406523 1125.0051452300047
2056.8756796336384 1200.482610938721
2057.5234056878617 860.5548313252473
2058.1709757407752 1114.5867830088177
2058.8183898298194 837.4524216459301
2059.465647992416 969.0481656229167
2060.1127502659747 1117.6120174537537
2060.759696687888 1011.2101626445949
2061.4064872955405 1062.322964181359
2062.053122126292 1113.491348384463
2062.699601217497 1160.7771344547525
2063.345924606485 1208.1609206586238
2063.992092330587 1138.2339948218107
2064.638104427102 980.9240679232374
2065.283960933324 1083.4983326799052
2065.92966188653 1216.8381002476958
2066.5752073239855 1285.5345620462551
2067.2205972829397 995.085028791112
2067.86583180062 983.0150114812022
2068.5109109142522 1155.264843398202
2069.15583466104 1155.8015667794584
2069.8006030781708 1156.3399664810613
2070.445216202821 1260.5549578867483
2071.089674072153 1221.2305710030867
2071.7339767233116 1170.4674400240215
2072.3781241934303 1258.8589843357183
2073.0221165196253 1060.281220736733
2073.6659537390024 1133.3516375502563
2074.3096358886505 1071.1346032440106
2074.953163005637 996.3110290993867
2075.596535127028 1026.6783725609985
2076.2397522898664 1071.9840620681891
2076.882814531182 1117.3517342717387
2077.5257218879924 1175.3845020077622
2078.1684743973 920.3444783834788
2078.8110720960885 923.2108526336312
2079.453515021336 1213.1661147146012
2080.095803209997 1132.27404035013
2080.7379366990135 1008.7157229985938
2081.37991552532 995.4288283612457
2082.0217397258275 1044.2623398643348
2082.6634093374414 1072.4326242750763
2083.3049243970418 1064.9621236012595
2083.9462849415067 1092.138983715554
2084.587491007689 1118.2848561021874
2085.2285426324324 1154.9463733798518
2085.869439852564 1086.5846157554645
2086.510182704902 1159.8089896404085
2087.1507712262483 946.1067534655342
2087.791205453381 1041.9111895338704
2088.4314854230743 1210.8990670954736
2089.0716111720867 1098.172063457975
2089.7115827371617 982.9466034688427
2090.351400155023 947.1804524354563
2090.991063462385 911.3988086774218
2091.6305726959527 929.7537250467692
2092.2699278924047 960.4314426114261
2092.9091290884153 991.2103397816403
2093.548176320641 975.9320903463334
2094.187069625721 937.8227349808154
2094.8258090402887 899.62939739744
2095.464394600951 1054.1649422415542
2096.102826344313 1037.7267138815228
2096.741104306955 954.8879867400198
2097.379228525453 871.8668628766479
2098.017199036358 996.4556030827367
2098.6550158762147 1322.8538024710872
2099.2926790815527 1244.6566128950021
2099.9301886888825 1166.2688041873416
2100.5675447347076 1149.7748266461338
2101.2047472555114 1373.5279859986356
2101.841796287761 1283.7469601839098
2102.47869186792 1193.7800018771936
2103.1154340324265 1121.4452644563446
2103.752022817709 1067.9825937523942
2104.388458260184 1150.0816590374154
2105.024740396251 1102.509888701313
2105.660869262292 983.2808231972565
2106.296844894685 1128.893315070955
2106.93266732978 1192.3791864215711
2107.5683366039284 1020.2466319300984
2108.2038527534532 1058.6420500717609
2108.8392158146726 1153.5480680101618
2109.4744258238843 1159.8097188806928
2110.1094828173755 1089.1150094080704
2110.744386831422 1271.2020766402295
2111.3791379022787 1128.1423148303325
2112.01373606619 1175.5297609613697
2112.648181359389 1040.4358329004099
2113.28247381809 1216.1567420749493
2113.916613478492 1058.875771925988
2114.550600376786 1149.993529551522
2115.1844345491445 1332.4098996742248
2115.818116031729 1089.3406344008447
2116.451644860679 1144.0693486131465
2117.085021072133 940.3958128978181
2117.718244702204 1048.6678060997522
2118.3513157869984 1085.0258732368259
2118.984234362604 1001.6017562308068
2119.617000465092 1085.6037431086427
2120.249614130529 1249.297497672489
2120.8820753949585 1249.059075831995
2121.5143842944162 1093.1181502910454
2122.14654086492 1036.4038169039125
2122.7785451424734 1184.8661287378518
2123.4103971630702 872.5280041304792
2124.042096962681 896.9887332537464
2124.6736445772767 921.592492534815
2125.305040042802 954.9514563978549
2125.936283395191 1021.7835479050218
2126.567374670365 1065.2177052342047
2127.198313904233 1129.1180497709172
2127.8291011326855 1193.0338684100525
2128.4597363916037 1027.757467420866
2129.0902197168507 1008.7641237933142
2129.720551144279 888.8610622433089
2130.3507307097225 1136.0258884645923
2130.980758449008 1110.5905938233814
2131.6106343979427 931.7248097859226
2132.2403585923203 1205.3911567241264
2132.8699310679276 1156.0768329491707
2133.499351860526 998.0687652502978
2134.1286210058715 961.7031983969576
2134.7577385397053 925.3278698596608
2135.3867044977487 1145.9361183351705
2136.0155189157176 1132.884428637088
2136.644181829308 1272.6518893788495
2137.2726932742025 1218.4693837797788
2137.901053286074 1164.268086861809
2138.5292619005777 1046.014210472421
2139.1573191533535 1088.388814508346
2139.7852250800315 1298.0961417427065
2140.4129797162295 1241.3991416006377
2141.0405830975433 1008.2548598995729
2141.6680352595613 929.7757339394251
2142.2953362378576 851.1568212711436
2142.9224860679915 1012.433917350306
2143.549484785508 937.5480463271222
2144.1763324259373 1180.2351557161041
2144.803029024799 1102.794554551062
2145.429574617594 937.6526965683921
2146.0559692398165 909.237633177233
2146.682212926942 880.7030878525377
2147.308305714432 1052.8790891929016
2147.9342476377333 1092.9464462366366
2148.5600387322847 1161.029342986384
2149.185679033506 1112.0728404320203
2149.8111685768017 1181.6185837113994
2150.4365073975678 978.494276251912
2151.061695531187 1127.3835735460016
2151.686733013021 1201.283678635976
2152.311619878423 1042.6745904937284
2152.9363561627342 1205.0558458495557
2153.560941901278 1021.7485923896423
2154.1853771293663 1116.3157699857206
2154.809661882293 1101.8055675211199
2155.433796195348 1186.0294610575813
2156.0577801037944 1168.6792822825769
2156.681613642895 1052.1941730475164
2157.3052968478896 1142.6278625979435
2157.928829754006 943.613114038729
2158.552212396462 1077.8579897316781
2159.1754448104566 974.0548106934533
2159.7985270311783 919.2030438248725
2160.4214590938027 841.168493137525
2161.0442410334927 920.5316521130848
2161.6668728853874 1050.466824139809
2162.289354684628 1016.5103185382271
2162.911686466332 1216.6898051387566
2163.533868265602 1180.2261065269645
2164.1559001175337 1321.221651517933
2164.7777820572046 1310.6286660208732
2165.399514119681 981.9177447224995
2166.021096340013 782.6024205582509
2166.6425287532384 917.1486084695301
2167.263811394385 1051.9696472500004
2167.8849442984574 1042.5347771765323
2168.505927500455 952.3460410701912
2169.126761035366 1172.7525131227003
2169.7474449381552 1153.307275765791
2170.367979243778 923.1818372125814
2170.9883639871823 1090.8898590029053
2171.608599203293 1147.516711828132
2172.2286849270276 1204.2789758175388
2172.8486211932886 1353.265934819258
2173.4684080369625 1216.6663305158565
2174.0880454929265 1033.4995958312766
2174.7075335960417 1058.5629786557686
2175.3268723811543 1104.8510980160258
2175.9460618831 1295.6151204875682
2176.565102136701 993.6392088499018
2177.1839931767627 1036.1019704010037
2177.802735038078 1078.6918346384175
2178.421327755432 1010.9007082244995
2179.0397713635866 1169.5163450642553
2179.658065897298 1034.8716253307653
2180.276211391305 1017.4338952466463
2180.8942078803357 1045.3898479109473
2181.5120553991 986.304538686734
2182.129753982299 963.2667800717096
2182.7473036646206 1201.9497028061116
2183.3647044807367 1115.9713770096434
2183.9819564653044 970.6316582628937
2184.599059652968 1031.7667439968097
2185.216014078367 1093.0645754600796
2185.832819776113 1014.713564197927
2186.4494767808137 1151.09282839674
2187.065985127063 1389.188879931798
2187.682344849436 1111.4552290008912
2188.298555982501 1329.4080470466665
2188.9146185608097 1262.6511890109864
2189.530532618901 1091.170949701901
2190.1462981912937 1161.3787325149729
2190.761915312507 1162.355229075841
2191.377384017036 1236.9133811027436
2191.9927043393654 1118.1261330320763
2192.6078763139667 896.8374440603463
2193.2228999753006 903.8801695891516
2193.837775357808 910.9529611741112
2194.452502495922 970.7254245707239
2195.0670814240602 960.7550322726754
2195.6815121766285 1022.0581711241978
2196.2957947880186 1064.2643772898455
2196.9099292926057 1106.5594896966522
2197.523915724758 1060.9347682547764
2198.137754118825 1179.0927321495085
2198.7514445091456 1148.6902239681872
2199.3649869300443 971.9939586842269
2199.9783814158327 1156.8994303850955
2200.5916280008096 1361.654103645006
2201.2047267192593 1197.1524182511225
2201.8176776054515 1169.54066633804
2202.430480693649 1118.2680466993666
2203.0431360180955 1160.0295300803768
2203.6556436130195 1211.6728568530293
2204.268003512645 1168.0047224674802
2204.8802157511727 1124.2694051280837
2205.492280362796 1338.3851363563076
2206.1041973816937 1061.7476560628934
2206.715966842032 930.8099621465841
2207.3275887779655 1134.3189415032166
2207.93906322363 959.3748139398782
2208.550390213153 908.4273691160919
2209.1615697806465 857.2129417935073
2209.7726019602105 832.5657007538387
2210.3834867859277 889.5914129023691
2210.9942242918787 1104.7104569329163
2211.6048145121167 959.7164741094164
2212.2152574806914 1048.442294901103
2212.825553231638 1137.2558919338453
2213.435701798975 1243.9068363926783
2214.045703216707 1009.7019443714464
2214.655557518832 1085.5194712397436
2215.2652647393297 964.5668238710211
2215.874824912169 822.2325437987114
2216.4842380713 925.4832628100979
2217.09350425067 1095.913162640291
2217.7026234842033 1180.6313076620459
2218.311595805819 910.4310757668927
2218.9204212494133 1010.0548308597474
2219.52909984888 1202.76170587491
2220.137631638092 1036.611588251902
2220.7460166509154 1070.5987937603406
2221.354254921198 1104.6021165615136
2221.9623464827764 1066.8822608205448
2222.5702913694713 891.1794819630638
2223.178089615096 966.7770503826254
2223.7857412534486 1045.3941456582363
2224.39324631831 1039.159349908498
2225.000604843457 1009.8182761250364
2225.607816862641 990.4831955328118
2226.214882409611 971.0583223076253
2226.8218015180973 1139.424656580745
2227.4285742218217 916.0077421640588
2228.0352005544864 919.4477844963315
2228.6416805497847 922.8488204977732
2229.248014241399 1094.2744766469398
2229.8542016629945 1187.6145462320724
2230.460242848223 1281.0764415415326
2231.0661378307304 1196.204426613303
2231.671886644139 1013.9868785112807
2232.277489322065 955.0557025286662
2232.8829458981127 725.9724478065984
2233.48825640587 1161.3966771307466
2234.0934208789095 1534.801635883144
2234.6984393507955 1186.2399160955247
2235.3033118550793 1198.7270904169432
2235.9080384252975 1014.3476914081391
2236.5126190949723 964.0334128808714
2237.1170538976166 1002.7894875909775
2237.721342866729 797.4401536683949
2238.32548603579 963.4556239577354
2238.9294834382763 1191.2418321861137
2239.533335107646 1013.369162490652
2240.1370410773434 1237.1298978194027
2240.740601380803 1060.4656383234246
2241.3440160514474 1092.1587013292658
2241.9472851226783 1043.0512744500659
2242.550408627896 1140.305497254273
2243.1533866004793 1237.7417051838156
2243.756219073799 1172.475630126396
2244.3589060812064 840.0615070123829
2244.961447656049 895.4521383845498
2245.5638438316564 995.306238285347
2246.166094641343 1219.6499345342986
2246.7682001184166 1083.1099643676555
2247.3701602961664 1018.9557089263801
2247.971975207871 1169.8339387036692
2248.5736448867974 1212.5583396365223
2249.175169366197 1097.725804101227
2249.7765486793123 1065.9497628530623
2250.3777828593684 1205.3030974796502
2250.9788719395783 1268.7871020537054
2251.579815953146 1178.6859515351634
2252.1806149332606 867.5586940173222
2252.781268913097 945.7352265655333
2253.381777925817 914.9303789557816
2253.9821420045737 1048.5381584428649
2254.5823611825035 1198.784213577807
2255.1824354927303 1118.727177914035
2255.782364968365 1016.1291900090062
2256.38214964251 913.420862363686
2256.9817895482483 1046.1041827586992
2257.5812847186553 1252.5847616018082
2258.180635186791 1052.27400693697
2258.779840985704 1095.2680995479927
2259.37890214843 1019.4674894255561
2259.97781870799 1040.7099500338943
2260.5765906973957 1061.9989314813542
2261.175218149645 933.1692792301222
2261.773701097718 911.3333222150688
2262.3720395745895 889.4355169137841
2262.970233613216 838.7244481787741
2263.568283246548 962.0211818278322
2264.1661885075137 977.8855124077018
2264.763949429038 1095.3339319838128
2265.3615660440246 1055.1248916320117
2265.959038385374 1037.64074791193
2266.5563664859637 1088.5359140838668
2267.153550378669 881.0437889969678
2267.7505900963424 1111.5982764032346
2268.3474856718312 882.5859352415715
2268.9442371379664 1075.578026103894
2269.5408445275643 959.1535794543704
2270.1373078734377 900.5794277655241
2270.7336272083758 974.197924436676
2271.32980256516 1047.964567704847
2271.925833976562 1070.508172708332
2272.5217214753357 1142.1738374118918
2273.117465094223 1055.7597114298246
2273.7130648659586 1105.9941271228756
2274.308520823257 1097.8410647230126
2274.903832998827 1468.6170641460346
2275.4990014253563 1382.1479740250043
2276.094026135528 1295.487114124614
2276.6889071620117 844.0449857083762
2277.2836445374614 1186.4809800086168
2277.878238294519 1147.2179312746075
2278.472688465812 1005.631006950534
2279.066995083962 1277.5816661299425
2279.6611581815705 1106.3664158030338
2280.255177791232 1232.1363842996423
2280.8490539455233 1358.1526500535072
2281.442786677013 1300.237611562182
2282.0363760182554 1211.1873048982427
2282.6298220017943 1044.170207239034
2283.223124660155 1330.6136683553457
2283.816284025859 1241.5565282378464
2284.4093001314086 1322.6907690125868
2285.002173009292 1251.4927720815244
2285.5949026919952 1180.1255076961322
2286.1874892119777 1026.2312120897702
2286.7799326016993 1027.3741426190993
2287.3722328936 929.4399378913625
2287.964390120109 892.5964221728652
2288.556404313642 1065.0449788742621
2289.1482755066027 1127.4114471189519
2289.7400037313873 1068.3845625052513
2290.3315890203703 1253.9060803018617
2290.9230314059205 1198.8216676223863
2291.5143309203904 1143.6852249716758
2292.1054875961236 1059.2347349607976
2292.6965014654506 1186.937076860586
2293.287372560684 1205.5603224646134
2293.878100914131 1278.248431456786
2294.468686558086 1114.3917197570609
2295.059129524827 1010.639969528606
2295.649429846617 1401.8755626570944
2296.239587555716 1339.610201887111
2296.8296026843636 1348.9499943052838
2297.419475264791 1358.2329794018417
2298.0092053292137 1292.312213261385
2298.598792909839 1216.5943438554514
2299.1882380388597 1140.6746169968276
2299.777540748455 1224.801589347238
2300.3667010707904 1307.3600940783176
2300.9557190380256 985.6566032135913
2301.544594682302 1259.0778979551246
2302.1333280357503 1288.6541472042122
2302.721919130485 1318.285361464546
2303.3103679986198 1142.217811976256
2303.898674672242 1326.4525321803
2304.486839183437 1218.040019801757
2305.0748615642697 1211.129556173683
2305.6627418468015 1144.6216020160387
2306.2504800630704 1078.0487529485847
2306.8380762451143 1101.9214506729181
2307.425530424949 1141.2368587527794
2308.012842634582 1180.633615754271
2308.6000129060103 1162.5022611734462
2309.187041271214 1228.8124195603282
2309.773927762164 1152.1655596637947
2310.3606724108213 1065.5981544732083
2310.9472752491274 1016.3482259666307
2311.5337363090184 1082.9002338830499
2312.120055622414 1027.04248223114
2312.706233221221 971.0477719283765
2313.2922691373424 1064.006981422772
2313.8781634026564 1140.7774592330231
2314.463916049037 910.5680882806275
2315.049527108342 1069.5310905799702
2315.6349966124235 1245.3155613454996
2316.2203245931123 1332.4771267352262
2316.8055110822315 1056.7575944885612
2317.3905561115935 1124.024159905724
2317.9754597129977 1017.7722007416085
2318.560221918229 1278.8698488643608
2319.1448427590603 1214.0290257764254
2319.729322267256 1324.1743179676196
2320.313660474563 1434.6545249344392
2320.8978574127195 1275.1222785293905
2321.481913113452 1086.908178584529
2322.0658276084705 1289.4606740667982
2322.6496009294806 1098.3141886830222
2323.233233108165 1292.2881397768801
2323.8167241762058 1203.6297187072523
2324.4000741652617 1195.208532997055
2324.983283106987 1294.1984882114866
2325.5663510330232 1553.1027153699447
2326.1492779749933 1302.2228845201962
2326.7320639645204 1231.0044525571598
2327.3147090332004 1124.074378681641
2327.897213212629 1248.1206781720257
2328.4795765343843 1230.3521812921495
2329.0617990300307 1291.9575484828772
2329.643880731124 1353.655381256542
2330.22582166921 1215.7960141839797
2330.807621875816 1257.35813186956
2331.3892813824623 1185.5199041212904
2331.9708002206517 1113.646428695131
2332.5521784218818 1318.5397743697877
2333.133416017634 1326.6966448647868
2333.7145130393765 1198.755796440439
2334.295469518571 1198.3448861903976
2334.876285486658 1160.4250047541796
2335.456960975076 1239.3996923422949
2336.037496015242 1318.5723772152528
2336.6178906385667 1094.1878153789974
2337.198144876451 1241.0997201193052
2337.778258760278 1160.2214502934949
2338.3582323214214 1249.168395905022
2338.938065591243 1338.2907135532525
2339.517758601087 1250.2832070609188
2340.0973113822965 1122.400025471139
2340.676723966193 901.0587579312709
2341.255996384094 938.241801986824
2341.835128667295 1051.5456929421593
2342.4141208470883 1255.0484148595037
2342.992972954751 1188.7827776385916
2343.5716850215467 1137.9739176757198
2344.1502570787306 1059.2627200129093
2344.7286891575386 980.3478474581941
2345.3069812892045 1031.618111745635
2345.885133504944 1166.414776419539
2346.4631458359618 1073.2338107019098
2347.04101831345 1166.2898768438695
2347.6187509685915 1078.1014772102883
2348.196343832553 1141.5553863856464
2348.7737969364935 938.018692732289
2349.351110311558 997.9943376068862
2349.9282839888765 1016.1295216793475
2350.5053179995757 1074.5638708269194
2351.0822123747585 860.0819155093271
2351.658967145526 834.5025986823472
2352.2355823429643 808.9290551918242
2352.812057998144 1018.5134821351637
2353.3883941421263 1038.8334369706113
2353.9645908059647 1101.4428816789705
2354.540648020693 1042.7653173416963
2355.116565817336 1026.280178762887
2355.6923442269126 889.8069914896254
2356.2679832804224 767.1562506065285
2356.8434830088518 769.7472538116358
2357.41884344318 986.4624249789792
2357.994064614377 900.6303807576717
