#exp_cfg={"servo_angle": 0.0, "laser_lim": 100.0, "servo_angle_to": 18.0, "laser_wup": 0.0, "bt_dev": "EnSpectr-25AE3", "laser_wdn_max": 0.0, "frames": 10.0, "servo_used": 0, "servo_calib_use": 0, "laser_wdn_min": 0.0, "servo_pix_from": 90.0, "cooler_tout": 300.0, "servo_angle_from": 0.0, "servo_calib": "[-1.9174921013161362e-09, 3.9322238269163779e-05, -0.27385609119055809, 653.59552119713567]", "laser_autoctl": 0, "servo_pix_to": 3682.0, "laser_pw": 100.0, "cooler_on": 0, "laser_volt": 4.0, "cooler_autoctl": 0, "cooler_curr": 70.0, "cooler_startup": 10.0, "laser_fixed_pw": 0, "gain": 1.3, "offset": 2.53059635486, "servo_calib_degree": 3.0, "laser_curr": 55.0, "shutter": 8200.0, "servo_calib_step": 1.0, "laser_fixed_curr": 0, "exp": 2000.0, "ccd_volt": 4.7, "bt_addr": "00:06:66:62:5A:E3", "servo_delay": 500.0, "laser_autooff": 1}
#proc_cfg={"flat_auto_wnd": 200.0, "flat_auto_fr": 200.0, "flat_auto_shift": 5.0, "yconv": 1, "flatten": 1, "flatten_strength": 100.0, "xfrom": 300.0, "auto_max_frame": 2000.0, "auto_signal": 48000.0, "flat_auto_tol": 0.1, "autoclip": 1, "xrel_range": 0.0, "flat_auto_to": 4000.0, "intensity_adj": 1.0, "xrel": 7852.0, "rmhot": 1, "flat_auto_slit": 4.999999999999997, "auto_ini_exp": 300.0, "auto_off": 0, "xto": 2860.0, "flat_auto_ref": "", "flat_auto_rank": 1, "autobackg": 0, "xrel_adj": 0.0, "auto_black_lvl": 1, "base_wnd": 100.0, "sub_baseline": 0, "xconv": 2, "auto_max_exp": 1000.0, "auto_total_exp": 10000.0, "auto_exp": 0, "rmripple": 0, "black_lvl": 8233.025, "shutter_clip_adj": 0.0, "auto_bckg": 0, "flat_auto_thr": 0.9, "subbackg": 1}
316.8218498245369 12097.375476259875
317.89969571804795 12001.102964382977
318.977263876126 11854.733947290315
320.05455438786703 11846.032594921813
321.1315673423287 11807.07749382937
322.2083028285215 11790.206326326497
323.2847609354267 11721.949049627861
324.3609417519747 11630.102250186941
325.43684536705587 11641.109623631612
326.5124718695279 11524.533051305129
327.58782134820103 11519.168347392546
328.66289389184385 11554.141499128591
329.7376895891921 11357.35155054121
330.8122085289342 11416.634300651362
331.88645079971866 11280.494274164243
332.9604164901575 11244.68638023866
334.03410568881554 11233.537157229783
335.1075184842266 11300.66800753318
336.18065496487543 11070.308979413758
337.2535152192122 11047.492605072726
338.32609933564163 11142.252029210746
339.39840740253203 11055.188186388976
340.4704395082099 11059.618982793716
341.5421957409617 10986.05148983837
342.6136761890357 11075.19509608222
343.6848809406365 10969.5961703428
344.75581008392874 10893.703963034433
345.82646370703696 10908.114980324208
346.8968418980512 10937.222606771344
347.96694474501055 10845.281479466696
349.0367723359268 10788.42983566571
350.106324758759 10795.65293751323
351.1756021014353 10731.136071697703
352.2446044518383 10747.307138909024
353.31333189781435 10752.080128431939
354.38178452716966 10800.733823781526
355.449962427665 10714.329042558122
356.51786568702846 10702.062158448342
357.58549439294256 10759.658094827077
358.6528486330535 10731.740171978778
359.71992849496564 10695.376070364317
360.7867340662433 10699.189678211627
361.8532654344144 10681.471973693106
362.9195226869597 10766.6725280376
363.9855059113288 10602.344884247315
365.05121519492604 10568.833573433221
366.11665062511565 10634.607257092463
367.1818122892273 10647.161491840914
368.2467002745434 10486.43284594181
369.31131466831175 10599.840341867402
370.375655557742 10599.817790631252
371.4397230299983 10607.765684768356
372.5035171722102 10603.168332973431
373.5670380714637 10564.955682491234
374.6302858148101 10601.112128637129
375.6932604892554 10639.76794343445
376.7559621817709 10556.997867100767
377.81839097928605 10474.946690948871
378.8805469686886 10498.361772245102
379.94243023683157 10487.629688565557
381.0040408705263 10475.163810876282
382.0653789565458 10460.656261427806
383.1264445816196 10456.994023314248
384.1872378324406 10406.806060051236
385.2477587956637 10404.084221674719
386.3080075579037 10356.628594123837
387.3679842057336 10343.258041249192
388.4276888256918 10328.899438351504
389.48712150426945 10251.476705827572
390.54628232792857 10303.300547593777
391.6051713830857 10269.969136019039
392.66378875611736 10336.589524078256
393.7221345333637 10359.106094392806
394.7802088011249 10235.985023972315
395.838011645661 10290.26506532226
396.89554315319765 10106.81659125147
397.9528034099112 10204.672080008526
399.00979250194723 10124.362940988845
400.06651051541485 10075.378861210096
401.1229575363741 10058.432716276311
402.17913365085224 10067.599636075542
403.23503894483656 10014.261567547657
404.2906735042761 9968.592599514994
405.3460374150818 9875.553617809475
406.401130763119 9925.91996280809
407.455953634224 9924.774637442746
408.5105061141876 9951.84482766916
409.56478828876243 9751.613025584182
410.6188002436629 9837.253916744125
411.6725420645689 9730.75658030737
412.72601383711117 9831.940938699998
413.77921564689314 9839.488593620976
414.8321475794728 9758.708532183
415.88480972036814 9670.231562877572
416.93720215506437 9831.306719230883
417.9893249690049 9726.680579865471
419.04117824759123 9715.145472319371
420.09276207619223 9602.313857373305
421.144076540133 9714.84162843337
422.1951217247042 9612.178652875136
423.24589771515275 9709.861371319099
424.2964045966928 9617.607346999332
425.34664245449494 9652.71403200216
426.3966113736933 9614.460208730121
427.4463114393875 9559.994343618284
428.49574273662984 9496.176980198316
429.5449053504417 9499.73791197679
430.5937993658026 9564.020410929497
431.6424248676558 9489.078893990516
432.6907819409007 9417.115811251333
433.73887067040596 9477.949489289731
434.7866911409965 9455.724302648017
435.8342434374608 9414.618002917287
436.88152764455117 9427.711043660775
437.9285438469724 9387.301340863623
438.9752921294057 9356.98925516452
440.02177257648145 9337.512935545745
441.06798527279716 9223.271933057255
442.1139303029122 9292.21497912512
443.1596077513459 9518.113891585104
444.2050177025794 9393.865330818393
445.25016024105753 9334.410889167408
446.2950354511886 9252.109674922513
447.33964341733736 9259.320691690666
448.383984223834 9221.328199864323
449.4280579549686 9207.901041229243
450.471864694995 9203.311703270543
451.5154045281306 9284.202580458466
452.5586775385509 9161.446069221125
453.60168381039693 9168.10711634946
454.64442342776783 9252.940585929857
455.6868964747264 9096.471991463255
456.7291030353008 9165.874755107096
457.77104319347563 9177.746510661895
458.8127170332027 9191.23799178114
459.854124638392 9141.117391437421
460.895266092919 9163.046772228028
461.93614148061897 9158.021105518621
462.97675088529104 9189.746660808392
464.01709439069236 9287.135161414715
465.0571720805492 9191.439561223156
466.0969840385442 9186.790832068886
467.1365303483253 9262.063686398524
468.17581109350067 9204.77588018749
469.2148263576437 9206.077126943095
470.2535762242878 9279.791206105623
471.29206077693016 9243.991424145039
472.33028009902773 9225.240752563088
473.3682342740012 9294.905262103926
474.40592338523857 9335.021960922462
475.4433475160804 9299.304967679635
476.4805067498364 9325.406301178537
477.51740116978 9344.523759590167
478.5540308591426 9377.33455465237
479.59039590112116 9444.35673065712
480.6264963788726 9435.299827981169
481.6623323755193 9578.908388154156
482.6979039741436 9662.336633126752
483.7332112577915 9744.454064077749
484.76825430947247 9771.856885529993
485.80303321215797 10003.596386552212
486.837548048783 9959.279652192276
487.8717989022425 10146.150925112557
488.90578585539697 10098.070480512108
489.9395089910686 10139.637834682002
490.97296839203955 10185.368872851086
492.00616414106116 10079.218403134817
493.0390963208429 10189.892070779531
494.0717650140559 10036.477669702905
495.10417030333883 10035.089835192446
496.1363122712901 10033.62163540756
497.16819100046814 9888.728406233671
498.1998065734024 9832.97984222834
499.2311590725767 9839.529328356342
500.26224858044407 9672.517277724593
501.2930751794156 9712.242016044655
502.3236389518679 9631.727525022965
503.35393998014115 9404.530553555145
504.38397834653733 9528.337648433653
505.4137541333221 9438.923360100216
506.4432674227228 9340.883368898036
507.4725182969323 9292.911709571248
508.5015068381035 9255.354343242834
509.53023312835467 9308.542813683902
510.55869724976765 9196.93016902363
511.58689928438434 9069.99337592777
512.6148393142121 9036.150826208765
513.6425174212218 9121.400494564814
514.6699336873462 9159.433234856993
515.6970881944835 9170.505163213002
516.7239810244901 9111.954920704402
517.7506122591931 9142.79958445945
518.7769819803761 9199.43532578612
519.8030902697901 9101.52728184641
520.8289372091476 9156.210993474906
521.8545228801249 9297.666664491438
522.8798473643619 9172.929019056779
523.9049107434621 9244.29464323094
524.9297130989908 9198.227187258033
525.9542545124805 9219.17891462102
526.9785350654201 9249.75101842026
528.0025548392696 9191.527976438647
529.0263139154504 9115.584991076184
530.0498123753423 9118.91838300589
531.073050300296 9128.83173093835
532.0960277716204 9055.279040750025
533.1187448705896 9043.776776511562
534.1412016784416 9025.385779683911
535.1633982763833 9048.843688076664
536.1853347455726 8920.276776414554
537.2070111671401 8937.934337694682
538.2284276221817 8947.853598562298
539.2495841917516 8810.88778476067
540.2704809568677 8836.331087660485
541.2911179985167 8804.500892059054
542.3114953976419 8733.468205839301
543.3316132351592 8728.146313646412
544.3514715919409 8653.971808525615
545.3710705488247 8688.03602540708
546.3904101866156 8635.953905919418
547.4094905860784 8636.453532167154
548.4283118279418 8616.679142118035
549.4468739929034 8631.39529165121
550.4651771616191 8581.523270495822
551.4832214147063 8540.655367206842
552.501006832761 8592.192197629502
553.5185334963226 8557.690082577643
554.5358014859103 8576.899537062814
555.5528108820035 8514.352869849277
556.5695617650363 8480.577475676917
557.5860542154242 8588.743721989986
558.6022883135283 8488.903923920858
559.6182641396881 8453.884358094841
560.6339817741991 8494.451717710788
561.6494412973225 8567.221907154842
562.6646427892883 8548.537656867975
563.6795863302796 8478.861021977405
564.694272000459 8481.572085105965
565.7086998799423 8488.782420606467
566.7228700488104 8540.881393317348
567.7367825871115 8463.542925785889
568.7504375748576 8471.458891122693
569.7638350920224 8553.803860113516
570.7769752185486 8490.543727351189
571.7898580343353 8438.04630520193
572.802483619258 8470.841330694453
573.8148520531431 8537.69031900485
574.8269634157932 8584.356330701998
575.8388177869692 8487.292706618719
576.8504152463938 8562.833947759533
577.8617558737587 8650.904147684634
578.8728397487175 8488.542631134416
579.883666950891 8641.860271195863
580.8942375598654 8634.937679194083
581.9045516551851 8695.97929857889
582.9146093163617 8772.073075157556
583.924410622878 8811.453111653975
584.9339556541727 8873.41967869129
585.9432444896538 8947.029845781672
586.9522772086875 8855.647438432778
587.9610538906127 8890.356772820602
588.9695746147318 8828.692255192493
589.9778394603054 8808.744240094275
590.985848506567 8864.457175146996
591.9936018327098 8824.158742616071
593.0010995178891 8713.043828837679
594.0083416412344 8717.638592967127
595.0153282818283 8621.406651303525
596.0220595187293 8640.030373401441
597.0285354309508 8572.07196977595
598.0347560974806 8556.641878788349
599.0407215972609 8604.1681609726
600.0464320092051 8575.582948909936
601.0518874121954 8549.586770472353
602.0570878850685 8459.154007047218
603.062033506636 8554.019962683506
604.0667243556636 8538.73755396499
605.0711605108936 8457.96933291132
606.0753420510264 8550.191281425348
607.0792690547278 8546.638354966748
608.082941600629 8563.315625393052
609.0863597673306 8475.926307353051
610.0895236333909 8572.715679099701
611.0924332773357 8610.98434335642
612.0950887776617 8750.893470494337
613.0974902128219 8704.969606671997
614.0996376612384 8839.270315919339
615.1015312013005 8854.57729566583
616.1031709113595 8884.010060216402
617.1045568697336 8902.63610636943
618.1056891547069 9037.99783469318
619.1065678445229 9117.766807982189
620.1071930173985 9266.718302323485
621.1075647515099 9276.860094945003
622.1076831250048 9418.816250106951
623.1075482159849 9528.097757401278
624.1071601025305 9550.71121490716
625.1065188626781 9636.82756101275
626.105624574433 9797.120852282273
627.1044773157682 9828.948849301236
628.1030771646128 9901.512165863687
629.1014241988742 9986.449884680402
630.0995184964158 10059.221293288381
631.0973601350688 10040.702340917353
632.0949491926294 10280.831009896903
633.0922857468631 10112.161081299104
634.089369875499 10163.01300288154
635.0862016562278 10137.019215519953
636.0827811667077 10050.902960057236
637.0791084845641 10091.629449403954
638.0751836873878 10015.59521464664
639.0710068527369 9946.982054448052
640.0665780581294 9829.717594633712
641.0618973810506 9739.76107761
642.0569648989604 9664.432015601853
643.0517806892676 9557.241143334919
644.0463448293649 9489.407603400126
645.040657396592 9383.419741472597
646.0347184682723 9347.294685575378
647.0285281216875 9270.379094847605
648.0220864340772 9184.890894960923
649.0153934826558 9093.933899372561
650.0084493446047 8961.91551180846
651.0012540970674 8884.129228370282
651.9938078171526 8857.21734218205
652.9861105819346 8687.957256496771
653.9781624684565 8746.124683963597
654.9699635537254 8679.81847792812
655.9615139147136 8675.004727231257
656.9528136283589 8552.120629958454
657.9438627715699 8612.758836806264
658.9346614212154 8525.651802396229
659.925209654135 8411.792450406905
660.9155075471263 8512.868540005273
661.9055551769616 8418.91650616589
662.895352620375 8460.411668639215
663.8848999540678 8519.932348058397
664.8741972547068 8397.380662856129
665.863244598926 8375.531727436173
666.8520420633213 8439.405012156538
667.8405897244611 8404.43842244544
668.8288876588758 8385.004573148908
669.8169359430613 8397.871210604806
670.8047346534822 8309.361125566158
671.7922838665672 8305.425993705803
672.7795836587156 8364.809614225767
673.766634106285 8377.636162354764
674.7534352856092 8237.136732472964
675.7399872729766 8300.015672969228
676.7262901446538 8254.998943090624
677.712343976862 8290.12127701972
678.6981488457986 8292.683116898395
679.6837048276229 8313.264540800126
680.6690119984596 8292.67384506347
681.6540704344043 8267.932932868342
682.6388802115107 8199.73950866956
683.6234414058108 8273.720402988638
684.6077540932874 8251.397639033356
685.591818349907 8273.944087100357
686.575634251587 8138.8244250795615
687.5592018742263 8166.832400893456
688.5425212936734 8036.713056503244
689.5255925857564 8143.21654444638
690.5084158262707 8001.635456735867
691.4909910909646 8055.004441470909
692.4733184555644 7915.5046518824265
693.4553979957618 7934.413284952531
694.4372297872123 7974.646739562229
695.4188139055404 7852.320360563046
696.4001504263324 7876.209621565266
697.3812394251509 7889.289563752274
698.3620809775111 7834.467563381075
699.3426751589104 7841.327848250339
700.3230220448004 7767.730871772228
701.3031217106054 7898.227191972563
702.2829742317172 7900.140909557869
703.2625796834873 7849.381471028755
704.2419381412474 7811.489400568767
705.22104968028 7804.556223596696
706.1999143758458 7863.679343586261
707.178532303169 7818.594846430717
708.1569035374378 7767.371460994
709.1350281538107 7787.990270403602
710.1129062274158 7719.646769672002
711.0905378333373 7787.61745931238
712.0679230466376 7731.10916608821
713.0450619423427 7808.049237486661
714.0219545954424 7755.417107885257
714.9986010808989 7731.336703376463
715.9750014736292 7781.795708012471
716.9511558485392 7782.6478696506965
717.9270642804786 7762.375637749446
718.9027268442787 7807.5932292910675
719.8781436147328 7842.3684400114535
720.8533146666014 7788.831730295967
721.828240074612 7766.754736744598
722.8029199134635 7733.94766034133
723.7773542578125 7702.170828930828
724.751543182294 7700.439567886623
725.7254867615029 7758.655354689811
726.6991850700015 7748.921792583809
727.6726381823228 7658.662099342595
728.6458461729599 7625.85128651687
729.6188091163858 7603.701898545665
730.5915270870246 7600.401980691745
731.5640001592856 7483.516809712189
732.536228407529 7594.035853860196
733.5082119060917 7545.274034639039
734.4799507292755 7575.674457757652
735.4514449513481 7562.519529288492
736.4226946465496 7676.999733833426
737.3936998890786 7575.961406936757
738.3644607531078 7527.132904097515
739.3349773127793 7498.811121291491
740.3052496421951 7556.822571237697
741.27527781543 7504.610700081401
742.2450619065221 7435.996567136413
743.2146019894826 7492.365224776811
744.183898138288 7403.773211371561
745.1529504268801 7441.089942145813
746.1217589291682 7302.250549946109
747.0903237190341 7306.755927108214
748.058644870318 7409.64712695951
749.0267224568397 7215.630944692175
749.994556552374 7279.071459934578
750.9621472306771 7287.625712638939
751.9294945654583 7328.160123813277
752.8965986304011 7282.745334511885
753.8634594991636 7252.414990349884
754.8300772453586 7267.989407746309
755.7964519425768 7261.7229669553535
756.762583664371 7305.846772674097
757.7284724842611 7253.892387846114
758.6941184757416 7220.354696541557
759.6595217122667 7264.093488295
760.6246822672638 7288.336113240334
761.5896002141235 7204.774229142298
762.5542756262093 7257.907931092108
763.5187085768503 7252.385933789323
764.4828991393406 7268.839443154613
765.4468473869474 7253.1857020941125
766.4105533929032 7253.428539439997
767.3740172304078 7165.430286991822
768.3372389726283 7185.408731572466
769.3002186926988 7153.767094923222
770.2629564637282 7058.980341507298
771.2254523587872 7098.790004920232
772.1877064509154 7117.69462909912
773.1497188131179 7021.772417743264
774.1114895183728 6950.259483219098
775.0730186396268 7052.817386843725
776.0343062497905 6849.209226484952
776.9953524217381 6872.130862519751
777.9561572283274 6935.284642751995
778.9167207423689 6933.790559957294
779.8770430366476 6876.495266515478
780.8371241839159 6922.753235278486
781.7969642568951 6883.970429507668
782.7565633282757 7060.989000153347
783.7159214707099 6878.331561940307
784.6750387568281 6923.014876708185
785.6339152592227 6847.056131410563
786.5925510504512 6870.836871718432
787.5509462030477 6883.222756873847
788.5091007895098 6907.663040506983
789.4670148823006 6887.759384813449
790.4246885538596 6896.651577585813
791.3821218765861 6859.1621514823
792.3393149228505 6854.379418165578
793.2962677649975 6899.5715661915965
794.2529804753303 6943.706995598521
795.20945312613 6932.930472794271
796.1656857896378 6871.265220865469
797.1216785380675 6917.017727542347
798.0774314435985 6969.696458843378
799.0329445783846 7027.203789288398
799.9882180145414 6966.827022722265
800.9432518241574 6991.112302138756
801.89804607929 7082.548653388272
802.852600851962 7105.35485194419
803.8069162141637 7118.307435212938
804.760992237856 7139.028572071472
805.714828994971 7151.631091947759
806.6684265574077 7210.411958332916
807.6217849970271 7216.186622321913
808.574904385674 7168.634752336657
809.527784795142 7153.7217366486675
810.4804262972102 7235.003149652846
811.4328289636178 7143.914962565827
812.3849928660748 7058.945814103575
813.3369180762638 7099.657637914597
814.2886046658241 6966.867618932037
815.2400527063783 6940.802848961495
816.1912622695108 6915.739957553933
817.1422334267718 6925.697549502229
818.0929662496856 6851.048509882489
819.0434608097457 6825.710751637183
819.9937171784059 6715.485637670587
820.9437354271013 6652.416047867761
821.8935156272255 6713.190971160506
822.8430578501484 6693.681215094696
823.7923621672016 6548.42604748652
824.7414286496896 6620.805011491354
825.6902573688876 6561.252057747765
826.6388483960363 6675.831946244032
827.5872018023492 6491.411834223546
828.5353176590033 6579.973244987185
829.4831960371503 6507.09073625953
830.4308370079016 6523.754301620287
831.3782406423525 6537.23109760355
832.3254070115545 6476.73011177833
833.2723361865319 6428.133952118174
834.2190282382799 6456.576189936546
835.1654832377644 6473.9592105366255
836.1117012559116 6467.163190692257
837.0576823636256 6487.898707370855
838.003426631778 6433.818157815194
838.9489341312074 6387.780857959261
839.8942049327197 6426.850781102348
840.8392391070975 6412.177212235721
841.7840367250865 6382.016787423445
842.7285978573982 6309.782540930344
843.672922574724 6448.693129614883
844.6170109477152 6359.298529904221
845.560863046996 6389.082789678699
846.5044789431595 6292.0868103706625
847.4478587067697 6300.914420326335
848.3910024083561 6280.334912832608
849.333910118421 6338.27699983788
850.2765819074339 6305.8580669640305
851.2190178458332 6377.844522472105
852.161218004032 6364.578689257928
853.1031824524016 6339.071137522989
854.0449112612987 6224.232942089602
854.9864045010327 6341.345805033341
855.9276622418947 6303.335453195005
856.8686845541379 6272.250042533813
857.8094715079915 6266.639742998084
858.7500231736467 6290.370966319138
859.690339621271 6301.74296899279
860.6304209209939 6324.901778633228
861.5702671429244 6268.81105969469
862.5098783571284 6245.04715536141
863.4492546336569 6267.875114549779
864.3883960425155 6236.289959164913
865.3273026536863 6285.185882806447
866.2659745371238 6332.525635156251
867.2044117627465 6406.8763362241525
868.1426144004472 6273.1396988032175
869.0805825200823 6308.2110184709645
870.0183161914847 6421.020115189467
870.9558154844526 6480.2263391589895
871.8930804687552 6326.09500975998
872.8301112141307 6402.573185204186
873.7669077902865 6424.283734988529
874.7034702669062 6429.0933504845325
875.6397987136315 6479.090365729981
876.5758932000863 6393.656427349879
877.5117537958522 6433.60816923249
878.4473805704911 6435.895426418087
879.3827735935283 6521.28473380415
880.3179329344603 6516.9720311550855
881.2528586627541 6503.536039904199
882.1875508478479 6529.559738513755
883.1220095591489 6457.80218759916
884.0562348660296 6467.685054586238
884.9902268378391 6564.556715415361
885.9239855438955 6525.006333922665
886.8575110534839 6450.891939739503
887.7908034358588 6419.759004914204
888.7238627602474 6427.125329924262
889.6566890958475 6372.376193357952
890.5892825118208 6304.3527392686265
891.5216430773125 6366.325497899161
892.4537708614189 6262.229090043805
893.3856659332196 6244.248756212366
894.3173283617652 6194.157561475979
895.2487582160684 6203.194562236516
896.179955565116 6192.919059684345
897.110920477864 6054.547759102529
898.0416530232451 6106.431728063985
898.9721532701478 6085.13019947206
899.9024212874428 6103.7249684848
900.8324571439662 6001.05828405189
901.7622609085302 6023.128617560603
902.6918326499072 5991.753407665727
903.6211724368477 5989.607844249778
904.5502803380696 5976.215798507414
905.4791564222614 6084.776737960211
906.4078007580792 5964.196395335837
907.3362134141571 5950.8780444001
908.2643944590909 5972.068500874627
909.1923439614493 5917.5692022846815
910.1200619897754 5881.25763734561
911.0475486125779 6021.129164273434
911.9748038983344 5906.879647108044
912.9018279155007 5909.707093021336
913.8286207324982 5877.355813103672
914.7551824177117 5873.524710061926
915.6815130395116 5834.616383383334
916.6076126662283 5885.130297827484
917.533481366163 5912.415732520489
918.4591192075914 5920.301843765011
919.3845262587565 5937.962518262334
920.3097025878706 5964.32498422636
921.2346482631237 5916.827169065969
922.1593633526682 5913.178341459995
923.0838479246304 5915.787265557985
924.0081020471061 5948.22315438479
924.9321257881656 5836.374591331486
925.8559192158464 5893.215912831352
926.7794823981512 5867.052950290993
927.7028154030686 5913.790551902362
928.6259182985414 5815.174878743482
929.5487911524906 6007.479779228729
930.4714340328119 5909.7493472501865
931.3938470073608 5878.997786756894
932.3160301439748 5914.100371571209
933.2379835104548 5885.189483218309
934.1597071745709 6017.027972183854
935.0812012040769 5953.205677419355
936.002465666681 5899.0279207900985
936.9235006300696 5987.26041097715
937.8443061619055 5849.6136044490395
938.7648823298077 5838.256751060486
939.6852292013809 5924.60097413569
940.6053468441951 5874.330303411799
941.5252353257874 5862.40927780052
942.4448947136698 5900.520893399811
943.364325075323 5736.068839884386
944.2835264782043 5874.565069860905
945.2024989897309 5880.279919160374
946.1212426773054 5826.502763028342
947.0397576082851 5824.3510165410935
947.9580438500125 5827.6240380340205
948.8761014697939 5926.419894598035
949.7939305349064 5902.70230870568
950.7115311125999 5893.22694969248
951.6289032700952 5843.924801314041
952.5460470745875 5927.480870969486
953.4629625932339 5861.423710167231
954.3796498931715 5969.629480224756
955.2961090415029 5904.37623495325
956.2123401053068 5908.875956271926
957.1283431516276 5856.423265897008
958.0441182474842 5779.975797997617
958.9596654598663 5834.2397773953135
959.8749848557309 5796.3729041087845
960.7900765020167 5820.871709566561
961.7049404656209 5805.193211505861
962.6195768134185 5855.653800721557
963.5339856122537 5783.201846554281
964.4481669289453 5875.392936852571
965.3621208302793 5725.474008316359
966.2758473830145 5777.721746155062
967.1893466538822 5890.383728067096
968.1026187095813 5796.149999580316
969.0156636167867 5886.046603135695
969.9284814421426 5850.579798521406
970.8410722522622 5825.75604483035
971.753436113735 5802.8395268492695
972.6655730931161 5757.587680526815
973.5774832569368 5857.83546697255
974.4891666716958 5769.662166868663
975.4006234038698 5819.493568608448
976.3118535198955 5787.954662224567
977.2228570861935 5999.345381174442
978.1336341691494 5888.109795337602
979.0441848351202 5901.8901491761435
979.9545091504333 5899.563238730461
980.864607181391 5914.832172673113
981.7744789942699 5943.14510763651
982.6841246553086 5908.255923984096
983.5935442307236 5914.1538080618975
984.5027377867027 5877.125147387181
985.4117053894024 5983.1347935428375
986.3204471049557 5924.294178498141
987.2289629994648 5978.352640855219
988.1372531390007 6044.254079403077
989.0453175896091 5927.259963234767
989.9531564173067 6009.076126111877
990.860769688079 5912.725631663261
991.7681574678918 6018.415098013325
992.6753198226706 6047.813449956152
993.582256818323 6025.173277881684
994.4889685207218 6118.084645286501
995.3954549957143 6123.325405127982
996.301716309119 6037.364863832414
997.2077525267232 6133.368337519727
998.1135637142943 6122.800648710226
999.0191499375615 6103.2385088998435
999.924511262232 6028.932560637451
1000.8296477539861 6130.232548012338
1001.7345594784656 6103.230522366167
1002.6392465012996 6082.777461862302
1003.5437088880753 6061.020394286166
1004.4479467043584 6054.516517635187
1005.3519600156869 5966.172532758975
1006.2557488875718 5972.559178158081
1007.1593133854858 5875.334610516919
1008.0626535748888 5993.939027861761
1008.9657695212009 5870.53930745825
1009.8686612898182 6031.433761733407
1010.7713289461135 5919.343388578612
1011.6737725554212 5901.432807396335
1012.5759921830577 5938.426310613418
1013.4779878943027 5923.576908210748
1014.379759754418 5821.669190643666
1015.2813078286254 5764.394148656277
1016.18263218213 5761.049818427427
1017.0837328801026 5784.45156402647
1017.9846099876886 5875.369543762687
1018.8852635700023 5770.698852470254
1019.7856936921362 5762.369928357683
1020.6859004191447 5789.351442997954
1021.5858838160675 5814.170158291809
1022.4856439479063 5827.546813436247
1023.3851808796389 5755.497148741158
1024.2844946762143 5785.954919226444
1025.183585402554 5682.59069079085
1026.082453123554 5698.969591758853
1026.9810979040776 5695.573415086338
1027.8795198089647 5642.977734375217
1028.777718903024 5751.041023166013
1029.6756952510368 5678.138217271358
1030.5734489177648 5641.585901201697
1031.4709799679313 5777.950614196861
1032.3682884662358 5758.556128428408
1033.2653744773506 5698.249959436128
1034.1622380659192 5674.598312986019
1035.058879296559 5789.585564079063
1035.9552982338591 5800.450879669096
1036.8514949423825 5800.217100725584
1037.7474694866614 5806.88972082994
1038.6432219312028 5881.960318023584
1039.5387523404825 5879.587554666008
1040.4340607789582 6017.769320396062
1041.3291473110476 5965.16142371469
1042.2240120011465 6084.609404426724
1043.1186549136273 6182.893263363103
1044.0130761128294 6147.088362229342
1044.9072756630649 6237.266028298672
1045.8012536286205 6319.072296537271
1046.6950100737577 6276.29362884047
1047.588545062701 6486.899539166943
1048.481858659663 6425.182656784726
1049.3749509288118 6468.161623582513
1050.2678219343034 6483.257305252962
1051.1604717402515 6498.682793050935
1052.0529004107575 6435.044238561086
1052.9451080098825 6533.862938572792
1053.8370946016694 6487.929890428328
1054.7288602501267 6513.280566848924
1055.6204050192446 6367.310517422612
1056.511728972977 6476.517576590582
1057.402832175254 6324.783186691132
1058.2937146899785 6371.4477385744785
1059.1843765810263 6263.16130617536
1060.0748179122456 6368.68970271621
1060.9650387474576 6287.2210417524575
1061.855039150456 6272.01353082678
1062.7448191850071 6205.285969621
1063.6343789148505 6037.073428360189
1064.5237184037014 6009.015164007307
1065.412837715241 6025.991115077994
1066.3017369131267 5991.506000879964
1067.190416060992 5887.662724689741
1068.0788752224398 5894.621844158049
1068.9671144610438 5906.363593678708
1069.8551338403558 5836.214457058212
1070.7429334239023 5970.833422241163
1071.6305132751695 5897.442333399989
1072.517873457633 5882.908408306883
1073.4050140347335 5834.531164428599
1074.2919350698776 5800.79804708468
1075.1786366264623 5663.9621461875495
1076.0651187678395 5822.543983184982
1076.95138155735 5675.819828104561
1077.8374250582929 5721.645335577617
1078.7232493339507 5740.027162330995
1079.608854447577 5702.915508952955
1080.4942404623907 5718.178632322183
1081.3794074415982 5697.045177396658
1082.2643554483657 5643.693484904188
1083.149084545841 5695.501851400728
1084.033594797138 5581.399261892215
1084.9178862653516 5627.547435809112
1085.8019590135427 5642.041414658719
1086.6858131047484 5604.014502518761
1087.5694486019802 5645.4293636503735
1088.4528655682225 5651.882208509194
1089.3360640664287 5642.912874724652
1090.2190441595321 5583.155402365546
1091.1018059104317 5654.530408329753
1091.98434938201 5622.885660225302
1092.866674637111 5528.225275990879
1093.748781738559 5624.545688198546
1094.6306707491512 5571.376263928983
1095.5123417316554 5510.868257887376
1096.3937947488157 5567.840768689247
1097.2750298633455 5472.769306748795
1098.156047137938 5575.301624036557
1099.0368466352556 5590.930441092048
1099.9174284179317 5488.016550547735
1100.7977925485757 5544.242664174626
1101.6779390897755 5473.5848734109095
1102.5578681040806 5478.3634152713585
1103.4375796540226 5545.223184679753
1104.3170738021054 5498.532614483777
1105.1963506108077 5470.80635994531
1106.0754101425773 5512.068038780939
1106.9542524598382 5471.76803800656
1107.8328776249855 5497.010362988631
1108.7112857003904 5470.578250266524
1109.5894767483987 5495.066308648511
1110.4674508313292 5501.158948071896
1111.3452080114657 5544.753754559473
1112.2227483510815 5578.114581622597
1113.1000719124077 5579.070621476496
1113.9771787576592 5631.056745917298
1114.854068949022 5627.968709627007
1115.7307425486542 5585.734837877588
1116.6071996186893 5663.806805229136
1117.483440221229 5879.638042529982
1118.3594644183577 5802.7349247297925
1119.235272272128 5804.543033332828
1120.1108638445658 5841.798563765344
1120.9862391976712 5968.078861445944
1121.8613983934229 5928.089122170231
1122.7363414937627 5940.298244823912
1123.6110685606182 6023.275419129647
1124.485579655884 6075.947897609107
1125.359874841426 6020.983955052414
1126.2339541790916 6051.870066649911
1127.1078177306936 6132.286503157889
1127.9814655580267 6098.467575317108
1128.854897722851 6157.008335882447
1129.7281142869106 6185.687054038763
1130.6011153119125 6242.670616350343
1131.473900859548 6221.4118949084705
1132.3464709914697 6173.87872557068
1133.2188257693178 6091.7758065306325
1134.0909652546961 6038.525651665504
1134.96288950919 6031.7252902710115
1135.8345985943506 6139.31388965086
1136.7060925717087 6007.246673877567
1137.57737150277 5996.826610867
1138.4484354490069 5952.250842707612
1139.3192844718778 5881.71710121372
1140.1899186327992 5804.220667857808
1141.060337993178 5834.149658794491
1141.930542614382 5713.1239642677465
1142.8005325577597 5743.44409088644
1143.670307884635 5528.6619775387235
1144.5398686563003 5758.456044400772
1145.409214934025 5569.6535561673245
1146.2783467790541 5476.172204564053
1147.1472642526023 5466.100852947062
1148.0159674158622 5490.335613625516
1148.8844563300026 5310.739255385395
1149.7527310561618 5337.634452644283
1150.6207916554504 5302.8792008725295
1151.4886381889592 5304.975393352115
1152.3562707177498 5413.084761240873
1153.2236893028585 5289.050861729867
1154.090894005296 5293.138655450336
1154.9578848860474 5265.181342880012
1155.8246620060709 5135.947251427296
1156.6912254262988 5271.728525999932
1157.5575752076438 5198.432382536429
1158.42371141098 5303.846592779515
1159.2896340971656 5229.441267756055
1160.1553433270346 5265.939986889205
1161.0208391613887 5157.384619162656
1161.8861216610057 5234.5680089605485
1162.75119088664 5167.466741889771
1163.6160468990201 5106.55770618667
1164.4806897588442 5132.633880230544
1165.3451195267917 5251.862322098678
1166.2093362635114 5282.737901247032
1167.0733400296285 5201.301465044734
1167.9371308857444 5090.84356597206
1168.8007088924278 5143.737097125903
1169.6640741102328 5257.986131029364
1170.5272265996773 5160.778750307205
1171.390166421259 5117.047826316131
1172.252893635452 5171.016201192375
1173.1154083026995 5225.119714631862
1173.977710483421 5168.506798614851
1174.8398002380145 5034.298397866174
1175.7016776268483 5161.93508021369
1176.563342710264 5114.276330411716
1177.4247955485826 5113.5142169256915
1178.2860362020947 5147.922257798696
1179.147064731069 5158.820940165684
1180.0078811957483 5145.16470529686
1180.8684856563486 5160.839815812774
1181.7288781730604 5270.442198984265
1182.589058806052 5242.322001751997
1183.4490276154593 5285.25597340418
1184.3087846614017 5287.682026838236
1185.1683300039676 5265.673385556238
1186.027663703222 5441.4248109724085
1186.8867858192025 5283.252128143541
1187.7456964119228 5399.9095911680415
1188.6043955413716 5466.4794172624415
1189.4628832675116 5502.054315733837
1190.3211596502842 5429.6985088572255
1191.179224749596 5544.18336977483
1192.0370786253388 5452.319890280192
1192.8947213373758 5554.338660307223
1193.7521529455407 5549.556187596713
1194.6093735096438 5493.421394103074
1195.466383089477 5533.556694446428
1196.3231817447977 5479.156348368701
1197.1797695353398 5457.1106483839
1198.0361465208189 5485.947902198009
1198.8923127609214 5493.600764910313
1199.7482683153048 5488.769622987827
1200.6040132436028 5516.056749959491
1201.459547605431 5481.093263100327
1202.3148714603722 5448.90184730683
1203.1699848679855 5412.429753958268
1204.0248878878065 5426.312752667913
1204.8795805793507 5395.731422485713
1205.7340630020935 5381.632322957912
1206.5883352155033 5408.6138762906085
1207.4423972790064 5432.865454786448
1208.2962492520237 5337.86234187182
1209.1498911939307 5354.063292658054
1210.0033231640937 5446.034292297908
1210.8565452218427 5247.987950691975
1211.7095574264913 5271.268828050134
1212.5623598373222 5198.53323351622
1213.4149525135963 5113.511364710045
1214.2673355145507 5171.551560417065
1215.1195088993936 5157.83255591864
1215.9714727273113 5060.501874763819
1216.8232270574663 5198.207379082348
1217.6747719489904 5131.545986149793
1218.5261074609934 5093.9287191057865
1219.3772336525653 5056.159035431736
1220.2281505827668 5126.37324504887
1221.0788583106296 5090.178108765567
1221.9293568951707 5138.638876766617
1222.7796463953746 5094.904992809013
1223.629726870202 5072.639915282476
1224.4795983785934 5108.9588805326985
1225.3292609794553 5132.960399255024
1226.1787147316809 4983.481075839152
1227.0279596941327 5080.6337227695885
1227.8769959256424 5051.938758932569
1228.7258234850306 5095.944027685889
1229.5744424310833 5009.692630269686
1230.422852822563 5031.5214648919
1231.2710547182105 5123.761537934658
1232.119048176739 5102.085861534467
1232.9668332568417 5060.577457826374
1233.8144100171812 5150.764719503934
1234.6617785163999 5133.545479945205
1235.508938813111 5087.328401619495
1236.3558909659114 5084.53108288651
1237.2026350333617 5213.284147108576
1238.049171074008 5161.992839123913
1238.8954991463652 5068.7074501170455
1239.741619308932 5080.170085655191
1240.587531620169 5755.254210162997
1241.4332361385277 5187.099988642513
1242.2787329224248 5038.898354609558
1243.1240220302534 5040.307500384203
1243.9691035203869 5054.337726828769
1244.813977451171 5183.027760877436
1245.6586438809263 5150.696843365717
1246.5031028679496 4919.845650871607
1247.3473544705157 5137.053148258746
1248.1913987468706 5160.844154259163
1249.0352357552383 5047.937409519174
1249.8788655538228 5085.056619827464
1250.7222882007918 5126.144166094317
1251.565503754302 5088.858439770868
1252.4085122724755 5108.643164484065
1253.2513138134182 5105.382662829547
1254.0939084352049 5078.072505892504
1254.9362961958905 5135.131124113162
1255.7784771535007 5112.638672357158
1256.6204513660432 5073.4674221898695
1257.4622188915 5209.938470234195
1258.3037797878242 5221.613340349574
1259.1451341129468 4976.678219379026
1259.9862819247755 5126.0915576927055
1260.8272232811978 5059.770530015257
1261.6679582400666 5167.242908279383
1262.5084868592203 5069.875222823032
1263.34880919647 5008.418552694928
1264.1889253095997 5073.519203337721
1265.0288352563712 5074.715083068229
1265.8685390945266 4911.85189752101
1266.7080368817751 5037.325846739052
1267.5473286758115 5011.431127331078
1268.386414534294 5055.492329996705
1269.2252945148703 4920.528517240697
1270.0639686751547 5063.145593691844
1270.9024370727402 5065.504458871729
1271.7406997651997 4956.837861787111
1272.5787568100714 4968.023715932243
1273.4166082648808 5006.667310630735
1274.2542541871244 4950.049420775333
1275.091694634275 5007.279921207889
1275.9289296637817 4878.155002981644
1276.7659593330663 4974.40030477298
1277.6027836995308 5026.058630392652
1278.4394028205552 4955.604543998251
1279.2758167534867 4991.867877021361
1280.112025555658 5038.744630895806
1280.9480292843746 4915.297272004458
1281.7838279969128 4947.983848194874
1282.6194217505326 4869.3847892333615
1283.4548106024686 4765.823213204224
1284.289994609926 4925.121186886865
1285.1249738300921 4882.444997827802
1285.959748320127 4793.403839570068
1286.7943181371702 4867.913533389153
1287.6286833383328 4905.966846306708
1288.4628439807038 4894.692788374369
1289.2968001213521 4932.872570563228
1290.1305518173194 4899.968559615724
1290.9640991256183 4947.9231463880515
1291.7974421032523 4916.78456103305
1292.630580807183 4928.300760207766
1293.463515294361 4872.827079563327
1294.29624562171 4972.4241373064315
1295.12877184613 4880.346410032847
1295.961094024493 4957.899725693059
1296.79321221365 5042.007397421525
1297.6251264704333 4935.3734863316295
1298.4568368516466 5039.405956146218
1299.2883434140658 4980.645190860344
1300.1196462144526 4964.935556125886
1300.9507453095375 4972.566133254493
1301.7816407560313 4977.266752999314
1302.6123326106172 4984.98756953271
1303.4428209299622 4922.049197133614
1304.2731057707024 4995.014934329189
1305.1031871894502 4922.451291880594
1305.933065242798 5055.876305571622
1306.7627399873181 5049.556934504619
1307.5922114795467 5120.658109437698
1308.4214797760123 5380.49961502092
1309.2505449332057 4982.320530862933
1310.0794070076026 5181.046767270092
1310.9080660556538 5085.878377447876
1311.736522133786 5096.883629943068
1312.5647752983987 5114.306510858721
1313.3928256058734 5026.02650945987
1314.2206731125661 5021.61606457319
1315.048317874809 5106.322854573297
1315.8757599489109 5113.543380903493
1316.7029993911547 5117.760054601228
1317.5300362578055 5185.124563850998
1318.356870605101 5030.3696169630275
1319.183502489257 5008.426011747857
1320.0099319664623 5089.256926736934
1320.836159092889 5138.968249171643
1321.66218392468 5138.737357654891
1322.4880065179532 5048.382611064446
1323.3136269288134 5101.684944855343
1324.1390452133292 5188.233892388066
1324.9642614275563 5117.837375860109
1325.7892756275214 5101.273380189271
1326.6140878692295 5074.927655479662
1327.4386982086617 5172.337296095992
1328.2631067017755 5138.011216676614
1329.0873134045069 5043.60608389104
1329.911318372764 5050.018177882513
1330.735121662441 5068.971881261979
1331.558723329399 5052.901761463153
1332.3821234294774 5031.492118986257
1333.2053220185007 5102.217761482551
1334.0283191522612 5050.37392799995
1334.851114886529 5005.66929118923
1335.6737092770582 5081.66881396008
1336.4961023795695 5076.669936761303
1337.3182942497697 5025.530852788239
1338.1402849433325 5092.821024286457
1338.962074515921 4906.471743151173
1339.7836630231632 4879.208194663577
1340.6050505206676 5096.977331553704
1341.426237064028 5016.788684500935
1342.2472227088037 4973.685901286731
1343.0680075105338 4900.017921197922
1343.888591524741 4952.977498933609
1344.7089748069138 4977.528166320687
1345.5291574125276 4971.535532462118
1346.3491393970307 4791.801615221518
1347.168920815846 4983.350625152875
1347.9885017243778 4920.14633541261
1348.8078821780036 4951.38431872563
1349.6270622320844 4967.5108775713725
1350.4460419419447 4796.2166297951435
1351.2648213629054 4924.134686344258
1352.0834005502438 4793.683148516977
1352.90177955923 4833.1410669693105
1353.7199584451064 5008.978099279561
1354.5379372630887 5000.261496446592
1355.355716068374 4879.797296045098
1356.1732949161305 4863.956110291282
1356.9906738615155 4859.248506892362
1357.8078529596478 4855.749114919238
1358.6248322656375 4943.698289373375
1359.441611834567 4818.730881876264
1360.2581917214866 4987.482222711548
1361.0745719814367 4780.892787136986
1361.890752669433 4809.861898157588
1362.7067338404577 4792.939689108293
1363.5225155494845 4818.616058528251
1364.3380978514506 4882.752413500724
1365.1534808012839 4741.1871122320445
1365.9686644538815 4692.373594053062
1366.783648864117 4823.953457794468
1367.5984340868417 4862.8563035879315
1368.413020176893 4806.717938811917
1369.2274071890715 4827.288395125206
1370.0415951781652 4775.4472282464185
1370.8555841989346 4746.181488940232
1371.6693743061223 4666.683720604344
1372.48296555444 4667.293953181547
1373.2963579985844 4774.840674203488
1374.1095516932255 4662.943398354823
1374.9225466930166 4616.486325909618
1375.7353430525782 4670.83156870053
1376.5479408265164 4656.970896253831
1377.36034006941 4619.640856890621
1378.1725408358216 4645.891448363251
1378.9845431802805 4567.394791387816
1379.796347157304 4769.674965429748
1380.6079528213813 4714.173967454173
1381.4193602269788 4626.994762536853
1382.230569428546 4592.220642165604
1383.0415804805016 4708.628712844546
1383.852393437246 4703.350621077811
1384.6630083531563 4727.601759396827
1385.4734252825892 4652.997101607983
1386.2836442798798 4728.224425244478
1387.0936653993322 4571.119147470802
1387.9034886952395 4605.858245185492
1388.713114221864 4690.595596382178
1389.5225420334482 4671.378081104368
1390.331772184214 4572.8342961609305
1391.1408047283585 4568.481344034876
1391.9496397200564 4597.4861686495515
1392.758277213461 4721.425649646417
1393.5667172627054 4645.646463308017
1394.3749599218918 4589.15900796294
1395.1830052451114 4347.23171300862
1395.9908532864265 4575.264487968862
1396.7985040998774 4561.742196742746
1397.6059577394808 4506.562978049727
1398.4132142592352 4684.021263543771
1399.2202737131156 4531.016024774849
1400.027136155073 4539.446581406951
1400.8338016390353 4477.218774474016
1401.6402702189134 4616.970581984906
1402.446541948586 4546.92531303655
1403.2526168819204 4495.184263395439
1404.058495072757 4575.286009421479
1404.8641765749107 4381.736213339116
1405.6696614421799 4511.349988455891
1406.4749497283356 4707.167241880552
1407.280041487129 4404.150292136877
1408.084936772295 4308.43935258176
1408.8896356375335 4483.510513317925
1409.6941381365323 4574.586131256557
1410.498444322955 4410.133335596077
1411.3025542504402 4402.734081600171
1412.106467972606 4441.503730573675
1412.9101855430508 4398.643158755609
1413.7137070153458 4338.186616898622
1414.5170324430437 4214.343382980269
1415.320161879672 4346.844223025697
1416.1230953787435 4444.194134053958
1416.925832993742 4278.35398424603
1417.7283747781275 4107.609281747586
1418.5307207853439 4268.652695199185
1419.3328710688093 4271.700741985715
1420.134825681922 4226.650319295255
1420.9365846780584 4210.505579341369
1421.7381481105713 4303.283297362219
1422.539516032788 4293.783239113298
1423.3406884980232 4153.2867151848095
1424.1416655595604 4137.8375841477355
1424.942447270665 4128.533612669829
1425.7430336845828 4134.7988154554605
1426.5434248545298 4168.3561157871645
1427.3436208337116 4206.924353850329
1428.143621675301 4244.37919752268
1428.9434274324558 4218.015458655272
1429.7430381583108 4062.0687880957203
1430.5424539059713 4166.829642362827
1431.3416747285337 4371.322691703064
1432.1407006790632 4154.407373371392
1432.9395318106053 4203.37755455271
1433.7381681761835 4099.643320292238
1434.5366098288014 4193.654340501985
1435.3348568214424 4075.8907041387597
1436.1329092070573 4110.992853984449
1436.9307670385879 4099.666010330655
1437.7284303689503 4223.68546701583
1438.5258992510335 4273.70299665221
1439.3231737377118 4113.36427006501
1440.1202538818306 4182.981779485179
1440.9171397362225 4119.815614760292
1441.7138313536925 4148.331100782172
1442.5103287870243 4106.872610266835
1443.3066320889775 4015.6686728549153
1444.1027413122956 4234.469461376013
1444.8986565096966 4102.392726848693
1445.694377733882 4157.679499205189
1446.4899050375207 3968.1065229396
1447.2852384732687 3937.4522962814262
1448.0803780937622 4021.9656298028576
1448.8753239516063 4001.255903868799
1449.6700760993954 3939.506285268754
1450.464634589689 3999.004252532449
1451.2589994750397 4058.5012729958553
1452.0531708079689 3919.682623515985
1452.8471486409799 3982.5460683164442
1453.6409330265524 4076.630660164782
1454.4345240171442 3990.534463065628
1455.2279216651987 3945.352462016973
1456.0211260231263 3940.051485333589
1456.8141371433194 3978.795672198464
1457.6069550781594 3931.3054185777414
1458.3995798799897 3935.4087309375172
1459.1920116011424 4029.5009092809196
1459.98425029393 3882.1329866618785
1460.7762960106338 3890.258246953047
1461.5681488035225 3901.238540500251
1462.3598087248392 4017.488663634246
1463.1512758268036 3920.071538365002
1463.942550161617 3967.5883106269634
1464.7336317814625 3846.5961719366082
1465.524520738496 3871.3445846467425
1466.3152170848552 3803.860442986725
1467.1057208726506 3854.315047865394
1467.8960321539817 3749.223994386296
1468.6861509809169 3724.613840470103
1469.4760774055085 3785.273588689239
1470.265811479785 3894.9967540383805
1471.055353255755 3684.6720945853667
1471.844702785409 3828.175870262495
1472.6338601207044 3843.9356581241104
1473.4228253135934 4144.434351535663
1474.2115984159936 3875.9488069330814
1475.0001794798063 3573.3546813269545
1475.7885685569145 3748.561252836148
1476.576765699172 3838.8907656262368
1477.3647709584238 3853.480623485787
1478.1525843864802 3884.5333095950323
1478.9402060351367 3858.2885289976066
1479.7276359561693 3832.9678765988547
1480.514874201328 3771.988350597678
1481.3019208223468 3763.9049926581924
1482.0887758709323 3771.0770427070042
1482.8754393987747 3784.712003927899
1483.6619114575406 3691.356980979896
1484.4481920988783 3770.773900412355
1485.2342813744108 3803.02559539805
1486.0201793357446 3749.532746217877
1486.8058860344572 3752.9954635985305
1487.591401522117 3750.633717220626
1488.3767258502594 3771.4939746062
1489.1618590704056 3680.7684950775547
1489.9468012340494 3717.130485902252
1490.7315523926754 3718.422490138073
1491.5161125977356 3853.5643753854106
1492.3004819006637 3795.2712850750277
1493.084660352877 3717.754938467704
1493.8686480057622 3669.2976751367655
1494.6524449106964 3829.5279645227265
1495.4360511190262 3791.7465363358206
1496.219466682087 3839.328146561268
1497.0026916511779 3879.7838056554706
1497.7857260775945 3740.3087420243255
1498.5685700125996 3724.504802674529
1499.3512235074395 3854.757798496569
1500.133686613337 3768.965331313615
1500.9159593814966 3711.910354326683
1501.698041863101 3859.3917224863835
1502.4799341093094 3688.5881523678845
1503.2616361712662 3648.650116653561
1504.043148100087 3800.0152310204685
1504.8244699468742 3835.7567642867753
1505.6056017626997 3739.3438500528673
1506.3865435986281 3594.7420019062592
1507.1672955056893 3719.685841953513
1507.9478575348967 3645.0726198707416
1508.7282297372512 3667.635686906611
1509.5084121637192 3774.247950243075
1510.2884048652577 3710.0258375824765
1511.0682078927948 3639.8738629709965
1511.8478212972423 3696.633190525982
1512.6272451294917 3695.971328631914
1513.4064794404076 3822.482874785378
1514.1855242808433 3620.617663061393
1514.9643797016215 3739.400028320479
1515.743045753552 3731.716110078014
1516.5215224874191 3733.8376653311243
1517.2998099539836 3552.295330419876
1518.077908203999 3610.1911378068953
1518.8558172881785 3635.5189349365514
1519.633537257234 3764.808066842753
1520.4110681618404 3603.3905869623677
1521.1884100526604 3760.0814676009513
1521.9655629803365 3755.723771444196
1522.7425269954856 3837.0014045779817
1523.5193021487103 3686.9497208171656
1524.2958884905856 3659.1315101141363
1525.0722860716687 3613.4133868006734
1525.848494942502 3708.6876451753496
1526.624515153595 3589.131223919925
1527.4003467554485 3755.079442026171
1528.175989798534 3746.0005742769727
1528.9514443333064 3624.280455526131
1529.726710410203 3887.155742119802
1530.5017880796331 3581.074620924324
1531.276677391992 3596.3324326017623
1532.0513783976457 3816.346721658522
1532.825891146953 3666.7972134342344
1533.6002156902414 3766.510738727297
1534.3743520778207 3675.9683605097916
1535.1483003599806 3681.17849479089
1535.9220605869923 3514.49311567143
1536.6956328091019 3757.5936297970366
1537.4690170765407 3763.9645382241624
1538.242213439511 3794.7504305243165
1539.015221948208 3743.2290043917274
1539.78804265279 3751.3356456065753
1540.560675603405 3566.149327234355
1541.3331208501804 3840.2282382855847
1542.1053784432224 3736.6534402695297
1542.8774484326168 3800.923733684441
1543.649330868422 3676.875418437451
1544.4210258006842 3829.5672682712093
1545.1925332794308 3734.1336633806104
1545.9638533546604 3748.713999039631
1546.7349860763552 3644.815481332439
1547.5059314944829 3920.1807249736985
1548.27668965898 3675.2171528637423
1549.0472606197673 3827.3275138004296
1549.817644426752 3670.409102650255
1550.5878411298072 3867.3793352593043
1551.3578507787988 3764.1285453726196
1552.1276734235635 3818.5857012135175
1552.8973091139233 3703.0774269483563
1553.6667578996767 3709.66289412844
1554.436019830604 3839.291405934353
1555.20509495646 3832.654650351908
1555.9739833269869 3640.627019422467
1556.7426849919011 3712.4851401376327
1557.511200000903 3848.1098295080797
1558.2795284036674 3831.635661963667
1559.0476702498509 3715.4669738341827
1559.8156255890954 3826.843969375898
1560.5833944710157 3905.4887882975227
1561.3509769452048 3785.069732816954
1562.1183730612447 3809.0882946294537
1562.8855828686865 3715.15226490475
1563.6526064170703 3868.418993906701
1564.4194437559127 3916.4085638215206
1565.1860949347047 3695.315547852475
1565.9525600029283 3879.427525792019
1566.7188390100328 3896.280138270709
1567.4849320054564 3786.231454151314
1568.250839038612 3757.1109425297627
1569.0165601588997 3827.743525836743
1569.7820954156887 3824.4379727392175
1570.5474448583373 3723.9223452776714
1571.31260853618 3693.8323783744177
1572.0775864985299 3660.445363401891
1572.8423787946813 3740.3582860172364
1573.6069854739108 3642.7666183418223
1574.371406585471 3863.170070706442
1575.1356421785986 3805.5416820756
1575.899692302506 3766.950840838291
1576.6635570063845 3810.1832874825277
1577.4272363394157 3718.499657213887
1578.190730350747 3810.978511453657
1578.9540390895163 3618.029753581094
1579.7171626048384 3445.903114780005
1580.480100945806 3633.7293143415204
1581.2428541614918 3666.4622409010976
1582.0054223009538 3587.857699864269
1582.767805413223 3783.537268612911
1583.5300035473156 3661.5346929650577
1584.292016752228 3788.1738105737736
1585.0538450769309 3637.36428467808
1585.8154885703807 3675.4968506434125
1586.5769472815136 3597.079636501315
1587.3382212592405 3710.01780415268
1588.099310552463 3843.5065565013547
1588.8602152100484 3548.041858405167
1589.6209352808564 3641.631219108944
1590.3814708137234 3716.319108884414
1591.14182185746 3472.185364156891
1591.9019884608679 3742.2463930247527
1592.6619706727215 3480.6354654327383
1593.4217685417734 3708.820063142036
1594.1813821167616 3759.2554674428893
1594.9408114464022 3424.4883791628104
1595.7000565793933 3606.7692436489474
1596.459117564409 3636.7191375679567
1597.2179944501113 3596.692550629574
1597.9766872851324 3733.292324986722
1598.735196118092 3655.829714342851
1599.4935209975883 3759.247210994341
1600.2516619721973 3665.530294460702
1601.0096190904787 3626.217465103707
1601.7673924009723 3590.2363586500783
1602.524981952196 3625.2766152926633
1603.2823877926476 3589.760270832487
1604.0396099708087 3619.891284348255
1604.7966485351371 3561.9412044140263
1605.5535035340745 3591.048652660264
1606.3101750160404 3677.409817286746
1607.0666630294363 3645.6553886521315
1607.822967622642 3366.682838770076
1608.5790888440224 3526.270720735476
1609.3350267419137 3556.182498772221
1610.0907813646445 3667.515786819499
1610.8463527605145 3640.885912224803
1611.601740977805 3575.9096602064483
1612.356946064785 3569.026023542431
1613.1119680696902 3351.1490275227416
1613.8668070407512 3416.5641559404125
1614.6214630261748 3523.632566138359
1615.375936074137 3475.246168724155
1616.1302262328118 3633.3475049923736
1616.8843335503425 3527.7914257420475
1617.638258074854 3343.536318581285
1618.391999854457 3547.742169217939
1619.1455589372363 3625.866870439547
1619.8989353712623 3539.00326357141
1620.65212920458 3332.1577363949777
1621.4051404852235 3329.9134156569876
1622.1579692611976 3422.326731953729
1622.9106155804966 3410.9949882087362
1623.663079491087 3322.512888956278
1624.4153610409248 3354.8037400732705
1625.1674602779385 3402.2293397998174
1625.9193772500403 3225.1882458935274
1626.6711120051277 3464.2590229168936
1627.4226645910676 3372.8868785409713
1628.174035055721 3264.0267376083434
1628.9252234469168 3375.0358304177776
1629.676229812474 3235.701555132272
1630.4270542001905 3527.1322581865156
1631.1776966578382 3271.054740650872
1631.9281572331747 3394.670961832135
1632.678435973945 3311.992295027941
1633.4285329278573 3321.880134173292
1634.1784481426203 3303.9539459453313
1634.9281816659113 3304.3955859952557
1635.677733545388 3392.0930797379997
1636.4271038286934 3258.819260117791
1637.176292563452 3233.314140058111
1637.9252997972635 3312.494907673388
1638.674125577716 3393.380932028717
1639.4227699523672 3389.7467109024933
1640.171232968767 3169.6928260516534
1640.9195146744423 3320.4449079180804
1641.6676151168977 3345.76647276649
1642.4155343436178 3268.5222992793597
1643.1632724020765 3277.542479523631
1643.9108293397167 3346.124043132061
1644.658205203974 3157.4194306433983
1645.4054000422566 3531.3840251647403
1646.1524139019566 3254.3480519790173
1646.8992468304423 3287.3776811508674
1647.6458988750728 3171.977550785525
1648.3923700831765 3364.5220580851105
1649.1386605020743 3243.7876158645686
1649.8847701790564 3313.270283946035
1650.6306991614038 3349.9446844139384
1651.3764474963682 3234.7056570711507
1652.1220152311944 3187.435922008513
1652.867402413096 3300.439798703923
1653.6126090892776 3223.649673208562
1654.3576353069184 3337.1201218825554
1655.1024811131829 3193.6475967240995
1655.8471465552066 3313.772072519124
1656.5916316801213 3379.2698215642713
1657.3359365350298 3304.234367573863
1658.0800611670165 3219.4913529139635
1658.824005623148 3276.0001099367414
1659.5677699504722 3102.4893302814016
1660.3113541960192 3246.1861300962382
1661.054758406799 3190.9173798696156
1661.7979826297997 3100.982995343981
1662.5410269119966 3159.210379877419
1663.283891300338 3080.708032579856
1664.0265758417645 3018.0775204882784
1664.7690805831826 3143.72244653073
1665.5114055714948 3238.3417362630366
1666.2535508535748 3236.6621241314774
1666.9955164762814 2953.45610767709
1667.7373024864555 3067.31810750683
1668.478908930916 3152.0189310627034
1669.220335856462 2857.384438749459
1669.9615833098778 3037.6243365037817
1670.7026513379296 2943.5446334963144
1671.44353998736 3005.9066673014204
1672.1842493048916 2951.699734803059
1672.9247793372379 2981.6977700526386
1673.6651301310812 2991.3331637429183
1674.4053017330934 2874.1949012351915
1675.1452941899242 2929.232853157387
1675.885107548207 2665.470738752274
1676.6247418545518 2840.0738054930416
1677.3641971555535 2975.5182882867393
1678.1034734977893 2915.8974033861164
1678.8425709278108 2894.0053395703862
1679.5814894921605 2913.5413622109486
1680.320229237359 2661.0922772218664
1681.0587902098978 2881.64981422007
1681.7971724562685 2754.6131446544186
1682.5353760229264 2878.0911260245693
1683.2734009563173 2668.6247062002226
1684.0112473028657 2598.133604456242
1684.7489151089794 2752.8273783209816
1685.4864044210462 2817.503695276869
1686.2237152854377 2656.1454209699014
1686.960847748498 2786.947204751342
1687.6978018565642 2702.3530640134354
1688.434577655944 2572.819483930921
1689.1711751929379 2720.209834035852
1689.9075945138156 2650.1268701834247
1690.6438356648396 2683.810749531623
1691.3798986922448 2467.301551548704
1692.1157836422499 2593.871921953387
1692.851490561059 2568.951419884902
1693.587019494853 2555.4535604754697
1694.3223704897991 2467.3438455026762
1695.0575435920364 2396.4810915023504
1695.792538847696 2576.6181131988424
1696.527356302886 2556.6813664419788
1697.2619960036936 2389.0466164725635
1697.9964579961907 2464.069993381151
1698.730742326432 2234.1211009982503
1699.4648490404488 2312.9050158503956
1700.1987781842563 2371.313880547265
1700.9325298038548 2440.1008663577722
1701.6661039452174 2474.5505150567965
1702.3995006543082 2463.629230368205
1703.1327199770658 2372.0244699452464
1703.865761959416 2087.894385410808
1704.598626647261 2563.0660534364133
1705.3313140864866 2258.283786367755
1706.0638243229587 2430.3804977465065
1706.7961574025303 2490.7601619073826
1707.528313371029 2360.8467583862557
1708.260292274268 2216.587839842276
1708.9920941580403 2309.1952181708716
1709.7237190681226 2276.041513430878
1710.4551670502697 2370.7134939729012
1711.18643815022 2141.79864427613
1711.9175324136959 2425.2740903740028
1712.6484498863938 2233.945978848755
1713.379190614005 2233.1429310178264
1714.109754642188 2475.974251027067
1714.8401420165883 2227.5694692270818
1715.570352782839 2093.4104145904203
1716.3003869865497 2292.502130853326
1717.0302446733076 2170.2082121564586
1717.7599258886876 2143.8402155977046
1718.4894306782444 2491.2325141380925
1719.2187590875183 2205.0991661220846
1719.9479111620203 2341.5250883118288
1720.6768869472544 2147.502680387455
1721.4056864887025 2302.0923659792843
1722.1343098318284 2254.622908959908
1722.8627570220742 2273.0867485077424
1723.591028104871 2140.6646308227146
1724.3191231256242 2083.085304365438
1725.0470421297232 2110.261004899602
1725.7747851625427 2191.501058499994
1726.5023522694337 2174.038372884505
1727.2297434957363 2195.5725707868605
1727.9569588867635 1987.8963677126317
1728.6839984878152 2224.159110864903
1729.4108623441734 1955.2598525577978
1730.1375505011038 2210.9374703521116
1730.8640630038426 2178.6445743017803
1731.5903998976264 1962.084958437219
1732.316561227657 2163.2389011140995
1733.0425470391274 2111.9027291823836
1733.7683573772065 2103.051062023041
1734.4939922870508 2041.0127533436128
1735.2194518137949 2109.593448109445
1735.9447360025606 2078.462636448522
1736.669844898439 2084.4616628536746
1737.3947785465189 2064.36832591461
1738.1195369918605 2024.962359191386
1738.8441202795093 1913.4768960650883
1739.5685284544943 2132.862483674404
1740.292761561821 1978.1463031776304
1741.0168196464838 2157.817891656738
1741.7407027534518 2103.1692999407464
1742.464410927687 2087.572457791827
1743.187944214118 2083.5245467667683
1743.9113026576688 1879.1867335543218
1744.634486303241 2071.1590215129613
1745.3574951957125 1981.3526462804116
1746.0803293799509 2028.5284898488364
1746.8029889008048 1850.9369398824797
1747.5254738031017 2064.0604700950216
1748.2477841316504 1928.7197542874146
1748.969919931249 2013.3414927491808
1749.6918812466665 1808.8346530194813
1750.4136681226646 2038.2961973028791
1751.1352806039777 2069.831416970139
1751.856718735331 1930.022925578524
1752.5779825614281 2000.4810170898484
1753.2990721269507 2033.8399352965305
1754.0199874765676 2021.365160021303
1754.7407286549314 1872.437136699985
1755.4612957066693 1999.273424660592
1756.1816886763954 1955.1584697057401
1756.9019076087097 1966.2359479679774
1757.6219525481865 2091.3060135456863
1758.3418235393856 2005.7483360997453
1759.061520626854 2039.7309692212323
1759.7810438551096 1877.7289160393616
1760.5003932686614 1956.1781281589144
1761.2195689119999 1958.6331136823537
1761.938570829594 1886.6217011591336
1762.657399065898 1907.2833015454703
1763.376053665348 1978.3739548124443
1764.0945346723602 1913.7233017804751
1764.812842131334 1982.8606924472638
1765.5309760866512 1811.3141903656924
1766.2489365826787 1924.0672197051488
1766.9667236637597 2021.346098194045
1767.684337374223 1867.019799488131
1768.401777758383 1704.5491806176906
1769.1190448605284 1901.830146884214
1769.836138724937 1888.889460559401
1770.5530593958665 2085.327855992435
1771.2698069175603 1982.8937048913845
1771.9863813342326 2018.4942134582736
1772.702782690094 1909.2591567364736
1773.4190110293293 1954.1908152854812
1774.1350663961111 1940.8424800022335
1774.8509488345844 1944.054237997473
1775.5666583888924 1949.5180762669686
1776.2821951031437 2051.5751200538475
1776.9975590214362 1999.405375071743
1777.7127501878585 2135.2253341595388
1778.4277686464684 1930.1985578808399
1779.1426144413108 2027.0930264589147
1779.8572876164162 1927.7690229533684
1780.571788215797 1956.8381731758686
1781.2861162834415 1937.8398337725412
1782.0002718633277 1790.1536885034916
1782.7142549994132 1860.3697735053786
1783.4280657356376 1872.627035698611
1784.141704115922 1742.817298268803
1784.855170184177 1892.8069813233913
1785.5684639842839 1903.1337780181118
1786.2815855601148 1775.946222274752
1786.9945349555237 1913.9520755115532
1787.707312214343 1797.9777052077686
1788.4199173803918 1884.53765448084
1789.132350497468 1818.1102936373852
1789.8446116093583 1811.8019468893465
1790.556700759822 1907.2102380007684
1791.2686179926077 1682.3094021701504
1791.9803633514493 1863.425267144744
1792.6919368800554 1798.6384436021985
1793.4033386221236 1963.9014546864212
1794.1145686213295 1948.8523649982549
1794.8256269213307 1986.916874115345
1795.536513565774 1940.6792339407373
1796.247228598284 1760.697169996077
1796.9577720624693 1796.176067137191
1797.6681440019165 1731.470829436414
1798.3783444602013 1817.0801103872504
1799.0883734808776 1851.7431668135255
1799.7982311074884 1895.4302626972506
1800.5079173835475 1633.1464127521197
1801.2174323525633 1851.459083179428
1801.9267760580187 1875.9188471914895
1802.635948543386 1863.1348141799378
1803.3449498521113 1720.4416632538985
1804.0537800276325 1845.625645073976
1804.7624391133668 1900.581318824692
1805.47092715271 1683.0559719613418
1806.1792441890484 1782.8062347366617
1806.8873902657433 1894.3509138136549
1807.5953654261448 1742.1044379033654
1808.3031697135812 1754.988227863599
1809.0108031713662 1777.8615096999115
1809.71826584279 1809.8788406314175
1810.425557771141 1786.9282883901656
1811.1326789996747 1946.2768855148151
1811.839629571632 1893.1741297298915
1812.5464095302468 1658.9665021385833
1813.2530189187182 1782.352423757516
1813.959457780249 1690.4707582295082
1814.6657261580076 1894.0595637863412
1815.371824095153 1783.7601031688628
1816.0777516348262 1873.9617458923399
1816.78350882015 1653.2888748029127
1817.4890956942272 1668.3466129100811
1818.1945123001533 1771.3503107092024
1818.8997586809928 1774.850824259777
1819.6048348798067 1710.4939177678425
1820.3097409396287 1759.2065642357084
1821.0144769034796 1874.1676229846776
1821.7190428143622 1782.716980076085
1822.423438715261 1911.8621771974936
1823.1276646491478 1825.1795888522247
1823.8317206589727 1794.6318031320984
1824.5356067876692 1801.8081669139774
1825.2393230781581 1540.8586249109235
1825.942869573335 1665.594345786254
1826.646246316086 1734.8942909872258
1827.3494533492758 1789.9421873147762
1828.052490715756 1818.1302064500992
1828.7553584583547 1837.962687903886
1829.458056619891 1815.7787511406827
1830.1605852431585 1674.9416766944232
1830.8629443709433 1646.090883543995
1831.5651340460063 1799.291074266484
1832.2671543110919 1829.6565358406758
1832.9690052089318 1749.6759150155528
1833.6706867822395 1641.8850638030494
1834.3721990737104 1946.2434440416102
1835.0735421260233 1764.4639138848402
1835.774715981841 1840.7156834493192
1836.4757206838058 1776.0715067381057
1837.1765562745459 1566.6416978362365
1837.8772227966747 1587.32221845492
1838.5777202927839 1824.033534867593
1839.2780488054523 1806.9639149705113
1839.9782083772352 1667.6847865377829
1840.6781990506806 1755.1327802332348
1841.378020868313 1759.3820198139292
1842.0776738726418 1799.4196941559155
1842.777158106157 1800.1147202629647
1843.4764736113375 1659.072599225245
1844.1756204306403 1779.1961549152097
1844.8745986065078 1667.4516823867332
1845.5734081813607 1576.5964274975681
1846.2720491976124 1609.8746264482256
1846.970521697649 1568.2711961259317
1847.6688257238511 1724.4303620348824
1848.3669613185684 1706.5380564949714
1849.0649285241452 1530.7065567009938
1849.7627273829057 1726.0860747443287
1850.460357937156 1789.5238590050733
1851.1578202291857 1561.1827528672907
1851.8551143012664 1620.0778481665159
1852.5522401956569 1834.2578116662032
1853.2491979545957 1717.320496446066
1853.9459876203055 1642.010140281101
1854.6426092349902 1588.460829013109
1855.3390628408451 1736.8149058658103
1856.0353484800362 1750.0734632337303
1856.7314661947203 1645.181244595708
1857.4274160270397 1546.2291538070472
1858.123198019115 1785.258107285255
1858.8188122130487 1694.07253715491
1859.5142586509319 1677.2160100976532
1860.209537374838 1683.723739252469
1860.9046484268183 1600.8750437964536
1861.599591848917 1760.0806797946916
1862.294367683151 1580.6918166924506
1862.988975971528 1687.906089763998
1863.6834167560355 1753.4945541072443
1864.3776900786452 1673.7685461203332
1865.0717959813119 1577.3745913467733
1865.7657345059724 1710.1632619399202
1866.4595056945564 1777.7501475831948
1867.1531095889586 1678.7206461686856
1867.846546231076 1769.2306762557478
1868.5398156627743 1874.8147230351574
1869.2329179259123 1686.4667815934445
1869.9258530623283 1869.284124153406
1870.618621113843 1668.293549208406
1871.3112221222636 1548.5373203767197
1872.0036561293764 1597.1737811759797
1872.695923176956 1757.4757990221674
1873.3880233067594 1843.234588157992
1874.0799565605212 1458.1808720476697
1874.7717229799673 1616.9937076715637
1875.4633226068036 1715.2508116680935
1876.1547554827175 1808.4038125160982
1876.8460216493859 1687.1285226361244
1877.5371211484617 1785.7218685952164
1878.2280540215852 1788.9334448827262
1878.9188203103804 1692.0928816692017
1879.6094200564548 1859.969362471499
1880.299853301396 1597.1967092071454
1880.9901200867826 1704.8786578347695
1881.6802204541673 1562.3080361689292
1882.3701544450942 1598.9939192566494
1883.059922101087 1654.3816363381356
1883.7495234636517 1741.8540869571905
1884.4389585742792 1605.0264780739055
1885.1282274744517 1557.0962080939362
1885.8173302056166 1871.9884372161694
1886.506266809225 1646.6118557284583
1887.195037326701 1586.1256347122323
1887.8836417994517 1841.8690795881732
1888.5720802688702 1817.2694530695578
1889.260352776333 1568.983379151584
1889.9484593632042 1670.4834725707726
1890.63640007082 1678.0808526898916
1891.3241749405151 1577.196090038858
1892.0117840135954 1658.389579871768
1892.6992273313572 1626.5325411601068
1893.3865049350788 1571.233655421785
1894.0736168660223 1828.963005201127
1894.7605631654333 1676.3815754046725
1895.4473438745408 1515.3810537005309
1896.133959034556 1716.6053950994763
1896.820408686679 1633.7592193923442
1897.506692872088 1715.990305667056
1898.192811631945 1648.3148322339196
1898.8787650073991 1655.6076223217497
1899.5645530395832 1766.9834342597865
1900.2501757696118 1778.1286173862422
1900.9356332385796 1524.014234487331
1901.620925487574 1700.231651734683
1902.3060525576602 1699.9502529472654
1902.9910144898859 1685.2557513183096
1903.6758113252872 1680.6325902059464
1904.3604431048789 1596.8852568334767
1905.0449098696663 1584.0654931079112
1905.7292116606295 1635.992725335669
1906.4133485187394 1702.6388451209277
1907.0973204849488 1471.3773780242977
1907.7811276001976 1612.0552852506585
1908.4647699053967 1612.8094548500972
1909.1482474414588 1406.2522201727475
1909.8315602492694 1407.586016907482
1910.5147083696957 1668.8375549895713
1911.1976918436012 1638.0547457978707
1911.880510711815 1631.984957020342
1912.5631650151681 1568.7417075524957
1913.2456547944657 1621.4786612390358
1913.927980090495 1564.5255482890323
1914.6101409440362 1563.7878430163748
1915.2921373958416 1529.8172898127098
1915.9739694866603 1612.272198005073
1916.655637257214 1810.4879409775226
1917.3371407482136 1671.1710122679608
1918.0184800003572 1786.3612653598466
1918.6996550543154 1643.0519297014084
1919.3806659507554 1629.3341330396358
1920.0615127303208 1751.0284549984292
1920.7421954336423 1653.602271501565
1921.4227141013343 1664.7234688904052
1922.103068773993 1526.1430120540683
1922.783259492202 1713.0133731397655
1923.4632862965227 1530.6399669740622
1924.1431492275078 1436.5996425550954
1924.8228483256917 1675.226933133094
1925.5023836315922 1613.0244663886356
1926.1817551857057 1457.4570454275506
1926.8609630285227 1732.3346284960244
1927.5400072005123 1616.0098442608905
1928.218887742125 1492.079888408882
1928.8976046938005 1408.288240413243
1929.5761580959588 1592.5897767735948
1930.2545479890086 1573.699389790803
1930.9327744133352 1579.2784236293712
1931.6108374093164 1668.6484709515066
1932.2887370173066 1699.8276012611223
1932.9664732776473 1710.291885629517
1933.6440462306673 1720.7175881628223
1934.3214559166754 1543.9530928792276
1934.9987023759659 1608.9817460707986
1935.675785648813 1609.7099345165145
1936.3527057754836 1451.147096529359
1937.029462796223 1636.8094319768456
1937.70605675126 1577.7614340244395
1938.3824876808085 1591.8688818077223
1939.058755625072 1388.9196396805487
1939.7348606242267 1583.0920464925086
1940.4108027184448 1607.824656371477
1941.0865819478713 1484.019014739865
1941.7621983526478 1359.919760397008
1942.4376519728921 1451.4994695072457
1943.1129428487038 1361.0808180198517
1943.7880710201734 1518.0845469587043
1944.4630365273733 1750.3393002010391
1945.1378394103576 1452.0392736566328
1945.8124797091714 1726.0066975453763
1946.4869574638324 1691.5457698521636
1947.161272714353 1656.968491721948
1947.8354255007234 1612.1459113856995
1948.5094158629272 1481.192273237637
1949.1832438409183 1618.9242262276641
1949.8569094746435 1598.1050105199067
1950.530412804037 1551.0777492768116
1951.2037538690092 1619.3899751631357
1951.8769327094578 1596.5425795410324
1952.5499493652678 1663.9789557006814
1953.222803876306 1483.481977259702
1953.895496282421 1523.548337580924
1954.5680266234522 1498.3425564124293
1955.2403949392155 1647.481949435364
1955.9126012695142 1505.188568053989
1956.5846456541403 1612.5051583927266
1957.2565281328643 1408.4988785644227
1957.9282487454457 1674.2474266667978
1958.5998075316202 1709.6779597836135
1959.27120453112 1634.6566417183226
1959.9424397836501 1463.5963306115386
1960.613513328908 1621.5992695241916
1961.2844252065697 1594.4539287846214
1961.9551754563017 1668.3310411651742
1962.6257641177453 1516.3014389214293
1963.29619123054 1581.2367873376377
1963.966456834296 1351.074699559509
1964.6365609686181 1429.635017656741
1965.306503673086 1648.0789525768191
1965.976284987275 1454.8483637913857
1966.645904950734 1540.3669553610948
1967.315363603002 1470.0803888948453
1967.9846609836077 1608.8467048241066
1968.6537971320486 1562.0724667823565
1969.3227720878222 1532.9705474847974
1969.9915858904042 1301.3365486058779
1970.660238579252 1616.963921291137
1971.3287301938108 1476.2560214856505
1971.997060773514 1291.0621943465846
1972.665230357772 1544.1900989970534
1973.3332389859843 1285.8657669728475
1974.0010866975335 1574.3332011179577
1974.6687735317864 1619.3473517837506
1975.3362995280932 1678.3382565214918
1976.003664725793 1531.67492984089
1976.6708691642052 1228.5552591959945
1977.3379128826364 1538.849511450495
1978.004795920373 1587.583780352937
1978.6715183166925 1777.776442174872
1979.3380801108524 1414.9571116828872
1980.0044813420973 1481.6315757308416
1980.6707220496555 1422.720210779345
1981.3368022727373 1469.7065597194137
1982.0027220505417 1556.871626602439
1982.66848142225 1452.2125721542309
1983.3340804270283 1391.5159594363008
1983.999519104027 1496.159175475114
1984.6647974923835 1600.0287639804283
1985.329915631215 1489.1331787704926
1985.99487355963 1569.008208515535
1986.6596713167146 1529.206535619067
1987.3243089415428 1698.7814791118985
1987.9887864731754 1599.4310144749659
1988.6531039506553 1542.2660433204942
1989.3172614130071 1707.1828754926505
1989.9812588992481 1464.068982430589
1990.645096448372 1496.731866141343
1991.3087740993633 1541.6293924178444
1991.9722918911848 1384.9437135048615
1992.635649862792 1437.973176284212
1993.2988480531185 1726.707207130122
1993.9618865010852 1773.137245754507
1994.6247652455968 1430.0501207267757
1995.287484325545 1335.8589675625715
1995.9500437798033 1572.936377061313
1996.6124436472292 1395.1059562778598
1997.2746839666706 1552.1520163505936
1997.936764776954 1630.7899520452665
1998.598686116895 1619.4309241807557
1999.2604480252903 1655.1946419951091
1999.9220505409212 1352.062691493124
2000.5834937025593 1495.4154692944105
2001.2447775489582 1461.950158259612
2001.9059021188514 1487.021177895108
2002.5668674509616 1462.5175772034265
2003.2276735839987 1387.2910138534037
2003.8883205566508 1647.448380769269
2004.5488084075987 1390.2501783060407
2005.2091371755014 1539.0612066506324
2005.8693068990033 1391.1842143501199
2006.5293176167397 1526.9278917892384
2007.1891693673224 1551.100278076528
2007.848862189354 1275.61793290782
2008.5083961214223 1468.0976854779892
2009.1677712020955 1425.0727368821463
2009.8269874699254 1316.4521700927057
2010.4860449634598 1529.7472226785108
2011.1449437212177 1521.8810579517985
2011.8036837817108 1514.075137960282
2012.4622651834325 1523.5970171007577
2013.1206879648653 1629.6573234830776
2013.7789521644736 1609.0353458908628
2014.4370578207036 1364.3815246224453
2015.0950049719922 1467.554338500322
2015.7527936567585 1545.6876528449943
2016.4104239134067 1499.3617228087026
2017.067895780323 1630.5542612381223
2017.725209295886 1659.3227402792068
2018.3823644984514 1688.1309452916237
2019.0393614263648 1525.7966277229457
2019.6962001179545 1253.4507303824305
2020.3528806115355 1584.2397399562678
2021.0094029454067 1229.1198988772196
2021.6657671578487 1570.420771895518
2022.321973287133 1339.497963235693
2022.9780213715148 1480.6866537597211
2023.6339114492293 1473.2816479830574
2024.2896435585026 1465.941528828822
2024.9452177375442 1472.642422408588
2025.600634024544 1672.3755763340152
2026.2558924576842 1479.7947351776888
2026.9109930751292 1604.5652932732473
2027.565935915025 1452.3941113410158
2028.2207210155066 1654.5838805636074
2028.8753484146964 1497.5693117269404
2029.529818150695 1384.6163426064154
2030.1841302615903 1495.890955366642
2030.8382847854573 1341.9440646497333
2031.4922817603601 1292.4174050077368
2032.1461212243357 1293.5345749576734
2032.7998032154192 1294.4899374756992
2033.4533277716218 1510.9844890732725
2034.1066949309443 1499.2025092678896
2034.7599047313688 1636.8176533028336
2035.4129572108704 1602.8785087912775
2036.0658524074006 1683.3831252720652
2036.7185903589016 1514.9365930785625
2037.3711711032956 1409.1685459892853
2038.023594678496 1447.9588732466195
2038.675861122394 1335.5624607127875
2039.3279704728757 1421.1045059937285
2039.9799227678031 1243.349134092099
2040.6317180450278 1394.6290858346715
2041.2833563423865 1390.8694829338372
2041.9348376977014 1470.479477541926
2042.5861621487784 1352.0664577224775
2043.2373297334088 1513.0304632208931
2043.8883404893695 1510.2056505448884
2044.5391944544208 1618.9166447550342
2045.1898916663158 1388.9529680598048
2045.8404321627804 1364.3210099000858
2046.4908159815368 1367.517838969719
2047.1410431602853 1537.5230250572397
2047.7911137367173 1250.3151518664008
2048.441027748504 1444.948981970007
2049.090785233302 1304.256894326326
2049.7403862287592 1350.8600494211066
2050.389830772503 1297.574300414995
2051.0391189021466 1244.275024662231
2051.688250655294 1338.2400103986372
2052.337226069527 1386.2833614084527
2052.986045182417 1417.616302762523
2053.634708031521 1368.0099715492074
2054.283214654375 1492.026075159536
2054.931565088511 1232.6856809667065
2055.579759371436 1439.2943585394225
2056.2277975406523 1492.4719771706355
2056.8756796336384 1707.3404792952533
2057.5234056878617 1547.6688894785807
2058.1709757407752 1353.6391101836614
2058.8183898298194 1417.5103373658585
2059.465647992416 1400.8219281516722
2060.1127502659747 1496.1922889851037
2060.759696687888 1424.9578703186194
2061.4064872955405 1580.3807158830834
2062.053122126292 1578.3552132590555
2062.699601217497 1323.6062063004993
2063.345924606485 1495.21076981194
2063.992092330587 1532.0144612003044
2064.638104427102 1478.1241920115883
2065.283960933324 1566.1411394178697
2065.92966188653 1454.3564927006648
2066.5752073239855 1474.2955202784365
2067.2205972829397 1374.90257583647
2067.86583180062 1397.118081393674
2068.5109109142522 1353.37932411391
2069.15583466104 1461.0083082225135
2069.8006030781708 1568.7389425854112
2070.445216202821 1397.4200934114535
2071.089674072153 1500.641742364311
2071.7339767233116 1382.7224659886747
2072.3781241934303 1413.0253559304745
2073.0221165196253 1576.9382386734455
2073.6659537390024 1576.613614448297
2074.3096358886505 1594.6321790393563
2074.953163005637 1304.022640869718
2075.596535127028 1371.192678104869
2076.2397522898664 1373.2157334943722
2076.882814531182 1418.7775193085206
2077.5257218879924 1518.2706550376993
2078.1684743973 1364.3866733598977
2078.8110720960885 1384.7445453954638
2079.453515021336 1478.5955486404441
2080.095803209997 1415.0911893352127
2080.7379366990135 1342.2716701534214
2081.37991552532 1354.4618753665945
2082.0217397258275 1480.582449632695
2082.6634093374414 1314.3812541779623
2083.3049243970418 1396.9077212890086
2083.9462849415067 1348.205875662056
2084.587491007689 1496.8145462721736
2085.2285426324324 1551.0887943379544
2085.869439852564 1461.104608930251
2086.510182704902 1181.3485059630336
2087.1507712262483 1295.814663409898
2087.791205453381 1387.284113375188
2088.4314854230743 1340.902234442528
2089.0716111720867 1353.6047676911667
2089.7115827371617 1319.886356334178
2090.351400155023 1325.6748654734015
2090.991063462385 1331.5410072204363
2091.6305726959527 1342.1527078332883
2092.2699278924047 1347.0229487938134
2092.9091290884153 1351.9554715373426
2093.548176320641 1367.4439763583819
2094.187069625721 1499.9316073114835
2094.8258090402887 1480.5028443260946
2095.464394600951 1461.0330512901705
2096.102826344313 1432.136202733454
2096.741104306955 1313.907074480962
2097.379228525453 1195.4175229999835
2098.017199036358 1247.372277614721
2098.6550158762147 1505.68725484514
2099.2926790815527 1374.004148089802
2099.9301886888825 1492.4224677459993
2100.5675447347076 1398.2349736563087
2101.2047472555114 1302.6543562137226
2101.841796287761 1517.3305480701479
2102.47869186792 1395.5853158201649
2103.1154340324265 1435.093688519383
2103.752022817709 1463.9995149086667
2104.388458260184 1464.4164857798883
2105.024740396251 1417.1935838013906
2105.660869262292 1372.2694005621756
2106.296844894685 1636.5445334441295
2106.93266732978 1532.055573279101
2107.5683366039284 1461.4707582773428
2108.2038527534532 1390.750359822588
2108.8392158146726 1520.865610404764
2109.4744258238843 1520.38244127258
2110.1094828173755 1373.1600532810298
2110.744386831422 1579.7053402948345
2111.3791379022787 1502.1796104462692
2112.01373606619 1358.0410594077928
2112.648181359389 1421.5107616730286
2113.28247381809 1418.5215913785219
2113.916613478492 1487.0028730696713
2114.550600376786 1504.59636350876
2115.1844345491445 1455.9134053674347
2115.818116031729 1407.0333030122315
2116.451644860679 1430.429221499551
2117.085021072133 1323.35071126311
2117.718244702204 1314.838761975253
2118.3513157869984 1572.5012655606172
2118.984234362604 1374.585720679228
2119.617000465092 1436.8689632693063
2120.249614130529 1580.0254031570225
2120.8820753949585 1472.220212985547
2121.5143842944162 1397.4007934445617
2122.14654086492 1412.1481466741095
2122.7785451424734 1498.3219639619551
2123.4103971630702 1284.730220707363
2124.042096962681 1530.1300855572747
2124.6736445772767 1373.0633757317498
2125.305040042802 1244.045375556281
2125.936283395191 1355.7835852704359
2126.567374670365 1341.4655047174324
2127.198313904233 1328.2283412428026
2127.8291011326855 1374.99053563733
2128.4597363916037 1421.6871690142696
2129.0902197168507 1415.4712123724398
2129.720551144279 1371.7855763755
2130.3507307097225 1458.6703146581942
2130.980758449008 1494.4926852235544
2131.6106343979427 1507.2156481434095
2132.2403585923203 1519.8749186064915
2132.8699310679276 1364.6417669193556
2133.499351860526 1430.2270781475731
2134.1286210058715 1557.0878867372078
2134.7577385397053 1282.9296753819913
2135.3867044977487 1411.2005560400926
2136.0155189157176 1447.1140043835892
2136.644181829308 1445.6048272417975
2137.2726932742025 1514.3542874897676
2137.901053286074 1282.9365858189099
2138.5292619005777 1368.7457585362831
2139.1573191533535 1592.304512929538
2139.7852250800315 1529.612743847926
2140.4129797162295 1390.0649873505556
2141.0405830975433 1478.290898756394
2141.6680352595613 1184.0100548148773
2142.2953362378576 1264.0349308664322
2142.9224860679915 1180.6201787725608
2143.549484785508 1285.473058966811
2144.1763324259373 1531.030348130986
2144.803029024799 1466.5916379639284
2145.429574617594 1328.4073706243662
2146.0559692398165 1494.5068058854536
2146.682212926942 1273.343927271922
2147.308305714432 1340.2879125443365
2147.9342476377333 1393.2483861553285
2148.5600387322847 1260.4461589017822
2149.185679033506 1452.2044648778808
2149.8111685768017 1366.5301857721806
2150.4365073975678 1265.5553923179964
2151.061695531187 1422.350635593059
2151.686733013021 1454.3788043355667
2152.311619878423 1315.2117937425107
2152.9363561627342 1544.4428394821289
2153.560941901278 1329.4424387574904
2154.1853771293663 1440.9659831439978
2154.809661882293 1525.5522551319073
2155.433796195348 1558.6806562808988
2156.0577801037944 1325.6276889891165
2156.681613642895 1450.9254611689291
2157.3052968478896 1411.6044229083923
2157.928829754006 1364.5157081139555
2158.552212396462 1371.4974629754925
2159.1754448104566 1139.0533532419229
2159.7985270311783 1325.2501567532945
2160.4214590938027 1130.1539516919574
2161.0442410334927 1247.1615093986982
2161.6668728853874 1181.068892793429
2162.289354684628 1121.3768257280713
2162.911686466332 1485.9691518828786
2163.533868265602 1570.181488590256
2164.1559001175337 1483.397356382366
2164.7777820572046 1598.7626681882728
2165.399514119681 1291.0490128924484
2166.021096340013 1042.603764263119
2166.6425287532384 1179.9572740543663
2167.263811394385 1317.6054032356585
2167.8849442984574 1107.8254917865258
2168.505927500455 1189.8213417443772
2169.126761035366 1427.4716828714877
2169.7474449381552 1344.299796713547
2170.367979243778 1249.232059003238
2170.9883639871823 1347.926379317601
2171.608599203293 1486.9323053624287
2172.2286849270276 1626.2940745592189
2172.8486211932886 1586.3494196422662
2173.4684080369625 1281.394889862375
2174.0880454929265 1396.469535263962
2174.7075335960417 1322.914769145222
2175.3268723811543 1417.1455352676005
2175.9460618831 1383.181288717787
2176.565102136701 1420.7631856983085
2177.1839931767627 1414.6617324520512
2177.802735038078 1408.564472407214
2178.421327755432 1282.6374747315954
2179.0397713635866 1364.2968846539566
2179.658065897298 1228.565959847776
2180.276211391305 1238.0922724623447
2180.8942078803357 1314.4719572196523
2181.5120553991 1301.2321973643348
2182.129753982299 1409.953045756607
2182.7473036646206 1277.2917964205112
2183.3647044807367 1294.8829405374577
2183.9819564653044 1278.926205065161
2184.599059652968 1578.2141218766283
2185.216014078367 1508.675277065678
2185.832819776113 1470.6678707856163
2186.4494767808137 1432.4860980018746
2187.065985127063 1515.2326889135527
2187.682344849436 1317.55625196205
2188.298555982501 1589.9333776995704
2188.9146185608097 1379.535062345471
2189.530532618901 1521.9007924580428
2190.1462981912937 1317.871755579536
2190.761915312507 1547.5395149363794
2191.377384017036 1264.3171315303675
2191.9927043393654 1414.055600208172
2192.6078763139667 1231.254296656342
2193.2228999753006 1229.0721852770334
2193.837775357808 1226.9071958788443
2194.452502495922 1180.2652739274001
2195.0670814240602 1375.980652173092
2195.6815121766285 1488.4375579477667
2196.2957947880186 1341.697151443913
2196.9099292926057 1366.4111904433594
2197.523915724758 1498.477951727213
2198.137754118825 1381.6605537434323
2198.7514445091456 1330.116773516485
2199.3649869300443 1278.5127279090489
2199.9783814158327 1454.1115396092707
2200.5916280008096 1415.0828170451719
2201.2047267192593 1375.9895040144497
2201.8176776054515 1447.0617285593535
2202.430480693649 1297.5588882701325
2203.0431360180955 1403.505391000618
2203.6556436130195 1405.3525767550002
2204.268003512645 1500.6499582112397
2204.8802157511727 1427.3667133241847
2205.492280362796 1514.7045778739357
2206.1041973816937 1465.1312636490097
2206.715966842032 1465.881100243651
2207.3275887779655 1154.853571884754
2207.93906322363 1374.3013454863249
2208.550390213153 1371.7024539277652
2209.1615697806465 1335.0470718707181
2209.7726019602105 1238.8887878251064
2210.3834867859277 1236.9254386816206
2210.9942242918787 1470.5939490597632
2211.6048145121167 1352.608682921459
2212.2152574806914 1418.8860172949721
2212.825553231638 1485.236754593945
2213.435701798975 1580.7430159702267
2214.045703216707 1281.6332372571856
2214.655557518832 1281.1643930665118
2215.2652647393297 1316.3333396498156
2215.874824912169 1128.95100512082
2216.4842380713 1279.443758450191
2217.09350425067 1411.9017542372071
2217.7026234842033 1511.2650489270768
2218.311595805819 1250.7508180106754
2218.9204212494133 1358.6388712677854
2219.52909984888 1266.5539995901593
2220.137631638092 1524.7760445658691
2220.7460166509154 1423.1676221453733
2221.354254921198 1474.7146219484237
2221.9623464827764 1457.4325688424594
2222.5702913694713 1346.7350624064034
2223.178089615096 1402.626529315116
2223.7857412534486 1383.7845066947434
2224.39324631831 1429.7219265765852
2225.000604843457 1188.784820510573
2225.607816862641 1413.4813914032259
2226.214882409611 1356.8459472883646
2226.8218015180973 1438.778811639298
2227.4285742218217 1338.4885184493173
2228.0352005544864 1279.9552475105334
2228.6416805497847 1221.2951246752252
2229.248014241399 1316.099105786854
2229.8542016629945 1381.292646906685
2230.460242848223 1446.5812938306822
2231.0661378307304 1588.1676966529312
2231.671886644139 1554.2838066172558
2232.277489322065 1164.4451729632642
2232.8829458981127 1171.0053701290915
2233.48825640587 1378.3289200956724
2234.0934208789095 1504.4149289249358
2234.6984393507955 1470.4640924616203
2235.3033118550793 1586.6416633760055
2235.9080384252975 1357.3259419094352
2236.5126190949723 1337.931664441141
2237.1170538976166 1279.0999036764172
2237.721342866729 1430.0187399270048
2238.32548603579 1581.186712263274
2238.9294834382763 1463.834284641181
2239.533335107646 1486.983207878165
2240.1370410773434 1510.1529329243517
2240.740601380803 1439.399976987185
2241.3440160514474 1312.7207662857895
2241.9472851226783 1466.7046995791236
2242.550408627896 1232.4644025816467
2243.1533866004793 1441.1783531427798
2243.756219073799 1399.6738781141134
2244.3589060812064 1133.8525016711592
2244.961447656049 1213.1336741833152
2245.5638438316564 1376.8372169486552
2246.166094641343 1530.526589568742
2246.7682001184166 1367.6322708508355
2247.3701602961664 1403.0792194927349
2247.971975207871 1379.242931377911
2248.5736448867974 1579.6120584332464
2249.175169366197 1399.70725520407
2249.7765486793123 1389.0268415611013
2250.3777828593684 1384.1905533372478
2250.9788719395783 1532.7529401993668
2251.579815953146 1390.6369126130508
2252.1806149332606 1146.7965708059548
2252.781268913097 1395.3654142103665
2253.381777925817 1196.002071204904
2253.9821420045737 1305.8607469611015
2254.5823611825035 1493.665309321404
2255.1824354927303 1365.8987119539147
2255.782364968365 1354.089976440968
2256.38214964251 1342.3070888150658
2256.9817895482483 1403.3059157135876
2257.5812847186553 1500.4745698528927
2258.180635186791 1541.507237004935
2258.779840985704 1582.6595843820319
2259.37890214843 1299.5905917977009
2259.97781870799 1290.2016605088193
2260.5765906973957 1280.8065196712128
2261.175218149645 1316.6609195525073
2261.773701097718 1169.0441125244886
2262.3720395745895 1021.1407549186508
2262.970233613216 953.8954039715302
2263.568283246548 1257.4599118756869
2264.1661885075137 1259.9059516823613
2264.763949429038 1235.022651117239
2265.3615660440246 1386.0961186494235
2265.959038385374 1227.6313073887623
2266.5563664859637 1154.0645984947785
2267.153550378669 1080.4429119004885
2267.7505900963424 1280.7255856146799
2268.3474856718312 1342.8254617742314
2268.9442371379664 1412.7563936703993
2269.5408445275643 1200.5160775665204
2270.1373078734377 1394.3223377917977
2270.7336272083758 1440.1685509042281
2271.32980256516 1555.0071503258773
2271.925833976562 1432.453749627258
2272.5217214753357 1254.3773126236395
2273.117465094223 1397.6960718692715
2273.7130648659586 1263.0049354390162
2274.308520823257 1319.6407401436597
2274.903832998827 1639.7984683712639
2275.4990014253563 1533.4499067553945
2276.094026135528 1426.8686070090312
2276.6889071620117 1196.4545256117822
2277.2836445374614 1495.9053242004716
2277.878238294519 1385.7139200221359
2278.472688465812 1329.4848422976452
2279.066995083962 1273.126112176798
2279.6611581815705 1351.600955139084
2280.255177791232 1226.8982041113113
2280.8490539455233 1339.707403197884
2281.442786677013 1452.783796747702
2282.0363760182554 1416.7798825885336
2282.6298220017943 1274.8884051838886
2283.223124660155 1404.0927005759354
2283.816284025859 1427.507081657722
2284.4093001314086 1497.9165288419017
2285.002173009292 1448.8292632567484
2285.5949026919952 1399.6245443855903
2286.1874892119777 1271.0760609723152
2286.7799326016993 1196.346279542699
2287.3722328936 1121.3788132496086
2287.964390120109 1303.399225856301
2288.556404313642 1351.8257096485738
2289.1482755066027 1436.4990865614882
2289.7400037313873 1112.7445046650007
2290.3315890203703 1426.1578518366414
2290.9230314059205 1372.7900236058028
2291.5143309203904 1319.3783587197006
2292.1054875961236 1328.4445340796858
2292.6965014654506 1256.826782970976
2293.287372560684 1369.0630786759082
2293.878100914131 1695.8664584964467
2294.468686558086 1475.2631784629207
2295.059129524827 1467.3466407871556
2295.649429846617 1717.3622539550493
2296.239587555716 1486.4632018559942
2296.8296026843636 1449.6774447154817
2297.419475264791 1815.2365498635227
2298.0092053292137 1489.1465305742759
2298.598792909839 1189.5944693822496
2299.1882380388597 1219.3349301183846
2299.777540748455 1312.3303374330503
2300.3667010707904 1405.367005929352
2300.9557190380256 1380.5208660269304
2301.544594682302 1623.6587012355171
2302.1333280357503 1601.231574715812
2302.721919130485 1578.8089198706891
2303.3103679986198 1533.1405014525567
2303.898674672242 1531.0017702739112
2304.486839183437 1285.8766561714797
2305.0748615642697 1538.5435519784137
2305.6627418468015 1380.4035672595187
2306.2504800630704 1360.9381147918075
2306.8380762451143 1207.241772779062
2307.425530424949 1402.917876374227
2308.012842634582 1599.0321770263783
2308.6000129060103 1432.0827017770948
2309.187041271214 1392.288538837483
2309.773927762164 1352.4272636110045
2310.3606724108213 1341.0048981221578
2310.9472752491274 1294.5345761660394
2311.5337363090184 1247.9777332633753
2312.120055622414 1324.715228722242
2312.706233221221 1210.1787694814145
2313.2922691373424 1260.8329119612288
2313.8781634026564 1424.7926993979947
2314.463916049037 1316.474088400312
2315.049527108342 1342.720946313351
2315.6349966124235 1227.4106772210475
2316.2203245931123 1281.5846185701419
2316.8055110822315 1335.8505137434945
2317.3905561115935 1297.697560324742
2317.9754597129977 1224.7171475103166
2318.560221918229 1466.1780238477313
2319.1448427590603 1370.0563096831754
2319.729322267256 1502.791596327344
2320.313660474563 1635.925733080012
2320.8978574127195 1624.7358081669547
2321.481913113452 1288.7119772142298
2322.0658276084705 1489.876606102734
2322.6496009294806 1319.0630187720037
2323.233233108165 1598.6811038120202
2323.8167241762058 1646.1683641967988
2324.4000741652617 1727.274517944156
2324.983283106987 1808.4759663276527
2325.5663510330232 1671.0518995208229
2326.1492779749933 1561.7413614255465
2326.7320639645204 1391.332090482198
2327.3147090332004 1568.7700951775294
2327.897213212629 1329.359302195057
2328.4795765343843 1473.804397703656
2329.0617990300307 1304.0003253043856
2329.643880731124 1521.303158444803
2330.22582166921 1412.3289004162602
2330.807621875816 1374.4349203733263
2331.3892813824623 1202.6829268619204
2331.9708002206517 1278.4347118975907
2332.5521784218818 1609.1662356662357
2333.133416017634 1536.0184765469612
2333.7145130393765 1626.1382977800736
2334.295469518571 1566.5585539037788
2334.876285486658 1438.6455873748307
2335.456960975076 1218.269923177169
2336.037496015242 1539.2959658821394
2336.6178906385667 1576.9995258991141
2337.198144876451 1748.4621423734266
2337.778258760278 1361.1320950772695
2338.3582323214214 1256.2525266946536
2338.938065591243 1537.9489876645373
2339.517758601087 1567.21095856681
2340.0973113822965 1439.6702687102463
2340.676723966193 1108.2656175560498
2341.255996384094 1337.3237186819329
2341.835128667295 1575.4820614206342
2342.4141208470883 1462.8894499585874
2342.992972954751 1363.9285192356815
2343.5716850215467 1190.2023911397932
2344.1502570787306 1254.7154561856782
2344.7286891575386 1319.2898164243604
2345.3069812892045 1614.2530722659735
2345.885133504944 1382.3852916133862
2346.4631458359618 1439.1040268426336
2347.04101831345 1556.795525617176
2347.6187509685915 1723.393264964415
2348.196343832553 1420.8930081545125
2348.7737969364935 1158.1770693237938
2349.351110311558 1227.024322325684
2349.9282839888765 1362.4131793576457
2350.5053179995757 1366.8714792288708
2351.0822123747585 1371.4050995707105
2351.658967145526 1551.1982180702566
2352.2355823429643 1231.6936575936202
2352.812057998144 1112.6212322613721
2353.3883941421263 1486.9964141122339
2353.9645908059647 1381.2546534565258
2354.540648020693 1502.4270071342273
2355.116565817336 1266.1640840371485
2355.6923442269126 1278.1465483702277
2356.2679832804224 1290.1470873509502
2356.8434830088518 1326.8913327261157
2357.41884344318 1363.6587547814374
2357.994064614377 1239.2248858421272
