#exp_cfg={"servo_angle": 0.0, "laser_lim": 100.0, "servo_angle_to": 18.0, "laser_wup": 0.0, "bt_dev": "EnSpectr-25AE3", "laser_wdn_max": 0.0, "frames": 10.0, "servo_used": 0, "servo_calib_use": 0, "laser_wdn_min": 0.0, "servo_pix_from": 90.0, "cooler_tout": 300.0, "servo_angle_from": 0.0, "servo_calib": "[-1.9174921013161362e-09, 3.9322238269163779e-05, -0.27385609119055809, 653.59552119713567]", "laser_autoctl": 0, "servo_pix_to": 3682.0, "laser_pw": 100.0, "cooler_on": 0, "laser_volt": 4.0, "cooler_autoctl": 0, "cooler_curr": 70.0, "cooler_startup": 10.0, "laser_fixed_pw": 0, "gain": 1.3, "offset": 2.53059635486, "servo_calib_degree": 3.0, "laser_curr": 55.0, "shutter": 8200.0, "servo_calib_step": 1.0, "laser_fixed_curr": 0, "exp": 2000.0, "ccd_volt": 4.7, "bt_addr": "00:06:66:62:5A:E3", "servo_delay": 500.0, "laser_autooff": 1}
#proc_cfg={"flat_auto_wnd": 200.0, "flat_auto_fr": 200.0, "flat_auto_shift": 5.0, "yconv": 1, "flatten": 1, "flatten_strength": 100.0, "xfrom": 300.0, "auto_max_frame": 2000.0, "auto_signal": 48000.0, "flat_auto_tol": 0.1, "autoclip": 1, "xrel_range": 0.0, "flat_auto_to": 4000.0, "intensity_adj": 1.0, "xrel": 7852.0, "rmhot": 1, "flat_auto_slit": 4.999999999999997, "auto_ini_exp": 300.0, "auto_off": 0, "xto": 2860.0, "flat_auto_ref": "", "flat_auto_rank": 1, "autobackg": 0, "xrel_adj": 0.0, "auto_black_lvl": 1, "base_wnd": 100.0, "sub_baseline": 0, "xconv": 2, "auto_max_exp": 1000.0, "auto_total_exp": 10000.0, "auto_exp": 0, "rmripple": 0, "black_lvl": 8252.425, "shutter_clip_adj": 0.0, "auto_bckg": 0, "flat_auto_thr": 0.9, "subbackg": 1}
316.8218498245369 9167.134279325961
317.89969571804795 8917.719148137348
318.977263876126 8817.176256834126
320.05455438786703 8787.824720452252
321.1315673423287 8807.600923631038
322.2083028285215 8872.546322727085
323.2847609354267 8661.021730860486
324.3609417519747 8692.514296405012
325.43684536705587 8674.082949895812
326.5124718695279 8504.816835577692
327.58782134820103 8613.865559942296
328.66289389184385 8540.213919787811
329.7376895891921 8411.351564933944
330.8122085289342 8547.127972224322
331.88645079971866 8428.139304005861
332.9604164901575 8339.232389290388
334.03410568881554 8375.583561066609
335.1075184842266 8503.113902841786
336.18065496487543 8251.850744514577
337.2535152192122 8317.830551738989
338.32609933564163 8339.969821257051
339.39840740253203 8233.959499896891
340.4704395082099 8190.803464606205
341.5421957409617 8224.76329358286
342.6136761890357 8224.734074190888
343.6848809406365 8178.010992757266
344.75581008392874 8118.78820400336
345.82646370703696 8123.871537705521
346.8968418980512 8123.429859610149
347.96694474501055 8134.101399168278
349.0367723359268 8089.66465858154
350.106324758759 8023.955784431125
351.1756021014353 7981.616973829317
352.2446044518383 7999.250091759653
353.31333189781435 8072.558893917094
354.38178452716966 8005.325591971976
355.449962427665 8103.509924953223
356.51786568702846 8014.793144691944
357.58549439294256 8155.218232429244
358.6528486330535 8166.888211603274
359.71992849496564 8052.866051385723
360.7867340662433 8062.982688912006
361.8532654344144 8033.565578193209
362.9195226869597 8187.317539716847
363.9855059113288 7989.273283420941
365.05121519492604 8052.760110887817
366.11665062511565 8164.86484086619
367.1818122892273 8185.775688506833
368.2467002745434 8111.028985674244
369.31131466831175 8079.47435575037
370.375655557742 8151.271234379773
371.4397230299983 8165.945204962675
372.5035171722102 8155.417963642474
373.5670380714637 8190.6857585191665
374.6302858148101 8264.41715980638
375.6932604892554 8232.027906942976
376.7559621817709 8221.637244452484
377.81839097928605 8104.369244737602
378.8805469686886 8156.689383078976
379.94243023683157 8115.483894343267
381.0040408705263 8227.649513319051
382.0653789565458 8034.347725693509
383.1264445816196 8105.38262794689
384.1872378324406 8048.132807371253
385.2477587956637 8115.105009818095
386.3080075579037 8010.328338483998
387.3679842057336 8003.27080001914
388.4276888256918 8055.934637966256
389.48712150426945 8042.818182312281
390.54628232792857 7980.026531051304
391.6051713830857 8015.410999796489
392.66378875611736 8023.662503236126
393.7221345333637 7999.735500725849
394.7802088011249 7904.541832780926
395.838011645661 7945.294773467553
396.89554315319765 7950.817637470034
397.9528034099112 7889.476173200876
399.00979250194723 7862.545805000045
400.06651051541485 7851.02284149835
401.1229575363741 7895.260329776715
402.17913365085224 7820.211173211089
403.23503894483656 7833.7059858089315
404.2906735042761 7729.987049587222
405.3460374150818 7672.222951547871
406.401130763119 7747.41660232056
407.455953634224 7670.893182862013
408.5105061141876 7697.870552393624
409.56478828876243 7541.520472872221
410.6188002436629 7639.154635071609
411.6725420645689 7549.044150711385
412.72601383711117 7580.781088132028
413.77921564689314 7626.20709147576
414.8321475794728 7504.8140510779995
415.88480972036814 7480.61959853709
416.93720215506437 7656.867569532563
417.9893249690049 7429.5818527203255
419.04117824759123 7443.748744557833
420.09276207619223 7391.9999714013775
421.144076540133 7479.195863585417
422.1951217247042 7373.259954215357
423.24589771515275 7444.716351165817
424.2964045966928 7378.235082655914
425.34664245449494 7406.09444121135
426.3966113736933 7249.357367562769
427.4463114393875 7280.541619409778
428.49574273662984 7350.632247623139
429.5449053504417 7257.937939326546
430.5937993658026 7383.017495458089
431.6424248676558 7248.793728041116
432.6907819409007 7226.602773330751
433.73887067040596 7278.878042701632
434.7866911409965 7307.174336381593
435.8342434374608 7203.067037728637
436.88152764455117 7195.925437711875
437.9285438469724 7230.475856470701
438.9752921294057 7148.65968196842
440.02177257648145 7141.894870205227
441.06798527279716 7144.087968008846
442.1139303029122 7140.1324343602555
443.1596077513459 7227.936886560303
444.2050177025794 7138.42962967161
445.25016024105753 7204.796601912877
446.2950354511886 7188.191248114601
447.33964341733736 7218.009120440525
448.383984223834 7110.344207564526
449.4280579549686 7087.184379777003
450.471864694995 7086.154917141474
451.5154045281306 7121.110128043147
452.5586775385509 7121.836170430351
453.60168381039693 7076.010050303155
454.64442342776783 7163.103285958461
455.6868964747264 7102.164756542332
456.7291030353008 7097.407279710802
457.77104319347563 7169.773005097704
458.8127170332027 7186.967220736156
459.854124638392 7149.776924874961
460.895266092919 7206.387712461864
461.93614148061897 7206.761805707737
462.97675088529104 7218.85395781568
464.01709439069236 7230.736850597275
465.0571720805492 7171.516668506772
466.0969840385442 7247.079472058338
467.1365303483253 7373.397845773269
468.17581109350067 7292.712404635438
469.2148263576437 7134.77331030779
470.2535762242878 7246.426794791396
471.29206077693016 7403.774274414558
472.33028009902773 7338.808253784327
473.3682342740012 7447.187966174128
474.40592338523857 7420.21106257953
475.4433475160804 7461.515436276034
476.4805067498364 7537.816843281231
477.51740116978 7514.557058366433
478.5540308591426 7548.617354452003
479.59039590112116 7768.248024450275
480.6264963788726 7753.101301224701
481.6623323755193 7872.607807717211
482.6979039741436 7927.0454145986805
483.7332112577915 8069.197096369983
484.76825430947247 8242.833899918955
485.80303321215797 8319.784048150967
486.837548048783 8468.215899846171
487.8717989022425 8663.211515930976
488.90578585539697 8745.555343196384
489.9395089910686 8767.207937746449
490.97296839203955 8809.900434737858
492.00616414106116 8638.245608993666
493.0390963208429 8704.129001398212
494.0717650140559 8716.85287187058
495.10417030333883 8607.251893250768
496.1363122712901 8573.915786146
497.16819100046814 8385.49432463533
498.1998065734024 8220.469955964227
499.2311590725767 8233.409389116496
500.26224858044407 8018.151880639956
501.2930751794156 7893.067361515574
502.3236389518679 7944.612836647259
503.35393998014115 7658.025981229983
504.38397834653733 7755.483012194874
505.4137541333221 7687.891360046032
506.4432674227228 7512.107502459154
507.4725182969323 7487.21052820439
508.5015068381035 7401.214485174251
509.53023312835467 7453.174427239317
510.55869724976765 7383.1699878840445
511.58689928438434 7270.329513837894
512.6148393142121 7290.02453323345
513.6425174212218 7274.369363362721
514.6699336873462 7300.304050468796
515.6970881944835 7264.911727540266
516.7239810244901 7186.697666786737
517.7506122591931 7282.049957205204
518.7769819803761 7303.545518372691
519.8030902697901 7280.473190701734
520.8289372091476 7291.702089807926
521.8545228801249 7389.34098465436
522.8798473643619 7320.980809880091
523.9049107434621 7350.613374471301
524.9297130989908 7389.51027021972
525.9542545124805 7362.849693598713
526.9785350654201 7358.769491246372
528.0025548392696 7359.857865327021
529.0263139154504 7334.832714672957
530.0498123753423 7269.905442892855
531.073050300296 7217.841283846554
532.0960277716204 7286.337877167459
533.1187448705896 7116.613092730207
534.1412016784416 7167.377808838644
535.1633982763833 7147.142327376804
536.1853347455726 7080.740741205196
537.2070111671401 6987.478388211202
538.2284276221817 7030.031281439331
539.2495841917516 6960.093119692702
540.2704809568677 6829.555960595647
541.2911179985167 6897.876998693799
542.3114953976419 6869.991071671409
543.3316132351592 6816.363576890131
544.3514715919409 6818.203646974274
545.3710705488247 6818.968386985829
546.3904101866156 6720.692883297134
547.4094905860784 6770.0261306777265
548.4283118279418 6749.738378235561
549.4468739929034 6819.22763589143
550.4651771616191 6714.374572668256
551.4832214147063 6680.1892849256255
552.501006832761 6677.373947445589
553.5185334963226 6724.676028236567
554.5358014859103 6727.266052925455
555.5528108820035 6756.138938229844
556.5695617650363 6638.153743359069
557.5860542154242 6740.623828572594
558.6022883135283 6664.957331432648
559.6182641396881 6625.813092619217
560.6339817741991 6621.884375746646
561.6494412973225 6712.904299904991
562.6646427892883 6666.763093294811
563.6795863302796 6633.329642369841
564.694272000459 6653.362366535558
565.7086998799423 6720.420001132571
566.7228700488104 6723.691741530926
567.7367825871115 6634.60656589403
568.7504375748576 6705.193369573039
569.7638350920224 6717.378715885337
570.7769752185486 6679.1916674331105
571.7898580343353 6739.613254138836
572.802483619258 6657.456585387294
573.8148520531431 6774.282416593132
574.8269634157932 6858.298000713561
575.8388177869692 6716.508706973285
576.8504152463938 6782.435058336387
577.8617558737587 6871.777634122928
578.8728397487175 6867.411573874961
579.883666950891 6966.559871457098
580.8942375598654 7067.430452736837
581.9045516551851 7141.891833414762
582.9146093163617 7274.136835245981
583.924410622878 7224.922753915658
584.9339556541727 7283.471803421882
585.9432444896538 7487.414307418733
586.9522772086875 7285.6111905830985
587.9610538906127 7430.049180324828
588.9695746147318 7382.214135011311
589.9778394603054 7414.775742866046
590.985848506567 7413.720842375666
591.9936018327098 7358.637638925607
593.0010995178891 7164.0784647313385
594.0083416412344 7250.902559594244
595.0153282818283 7105.870672924546
596.0220595187293 7094.598808034287
597.0285354309508 7036.524925407961
598.0347560974806 6943.490600749715
599.0407215972609 6918.56045986847
600.0464320092051 6840.394320612376
601.0518874121954 6883.171729368893
602.0570878850685 6821.3891466979785
603.062033506636 6862.169498989361
604.0667243556636 6879.991042395735
605.0711605108936 6780.12125078816
606.0753420510264 6951.0583148365085
607.0792690547278 6824.965379844913
608.082941600629 6819.568830231893
609.0863597673306 6794.1938585612825
610.0895236333909 6874.561115801533
611.0924332773357 6871.556864506997
612.0950887776617 6964.673442596999
613.0974902128219 7011.554276497149
614.0996376612384 7228.711419837915
615.1015312013005 7209.704521942818
616.1031709113595 7282.121625330949
617.1045568697336 7235.121589252541
618.1056891547069 7460.130502673473
619.1065678445229 7515.374325725914
620.1071930173985 7779.45748895368
621.1075647515099 7824.636737070754
622.1076831250048 8000.821094562665
623.1075482159849 8128.0094034190215
624.1071601025305 8201.138460454775
625.1065188626781 8432.866061889461
626.105624574433 8607.414933553282
627.1044773157682 8712.816955688853
628.1030771646128 8737.629607662608
629.1014241988742 8952.69499386628
630.0995184964158 9173.457984841367
631.0973601350688 9162.416962088939
632.0949491926294 9398.09663020561
633.0922857468631 9267.880218070282
634.089369875499 9378.203364607643
635.0862016562278 9311.210910944941
636.0827811667077 9170.242043182812
637.0791084845641 9161.908164504239
638.0751836873878 8988.35126927265
639.0710068527369 9060.619952712854
640.0665780581294 8873.71944873377
641.0618973810506 8830.261716304169
642.0569648989604 8631.81088580332
643.0517806892676 8460.320348357993
644.0463448293649 8344.661728193732
645.040657396592 8226.885752051468
646.0347184682723 8025.383411789144
647.0285281216875 7893.176556777024
648.0220864340772 7797.852730579017
649.0153934826558 7586.523888158064
650.0084493446047 7498.118534487068
651.0012540970674 7493.218363885966
651.9938078171526 7294.068290352036
652.9861105819346 7285.597470139224
653.9781624684565 7229.831660593163
654.9699635537254 7089.549665178769
655.9615139147136 7131.009594110898
656.9528136283589 6995.654932994044
657.9438627715699 7044.947199019798
658.9346614212154 6986.318672277594
659.925209654135 6753.478096922698
660.9155075471263 6842.485839358717
661.9055551769616 6772.824787003959
662.895352620375 6883.709069071303
663.8848999540678 6690.382406382776
664.8741972547068 6579.259363733467
665.863244598926 6563.360100980424
666.8520420633213 6626.868765169309
667.8405897244611 6532.654066705125
668.8288876588758 6412.695773888727
669.8169359430613 6585.7471095202245
670.8047346534822 6479.447598579037
671.7922838665672 6444.154738836432
672.7795836587156 6575.3678713051
673.766634106285 6639.186036020097
674.7534352856092 6425.867154073594
675.7399872729766 6468.543959967406
676.7262901446538 6559.513022556392
677.712343976862 6458.909462006605
678.6981488457986 6575.372216721208
679.6837048276229 6436.756957696069
680.6690119984596 6530.8699015033935
681.6540704344043 6506.143927353495
682.6388802115107 6484.875287027915
683.6234414058108 6517.040240381486
684.6077540932874 6396.754065821564
685.591818349907 6372.10453819969
686.575634251587 6408.521002445612
687.5592018742263 6390.45239265475
688.5425212936734 6270.413090378621
689.5255925857564 6464.738464753513
690.5084158262707 6303.5165739410195
691.4909910909646 6310.454794088882
692.4733184555644 6287.072090309838
693.4553979957618 6280.794766601704
694.4372297872123 6220.912629253885
695.4188139055404 6200.226335095685
696.4001504263324 6217.9655760097585
697.3812394251509 6338.947761201542
698.3620809775111 6166.425179188526
699.3426751589104 6200.126138453628
700.3230220448004 6147.310652256128
701.3031217106054 6155.471468605537
702.2829742317172 6302.460952212057
703.2625796834873 6164.207450299694
704.2419381412474 6119.8266210292795
705.22104968028 6175.589504371632
706.1999143758458 6178.952908933006
707.178532303169 6220.250890088593
708.1569035374378 6236.845999300799
709.1350281538107 6232.844556128565
710.1129062274158 6186.70385517935
711.0905378333373 6314.299508148915
712.0679230466376 6329.2218436177955
713.0450619423427 6389.686358809719
714.0219545954424 6484.346547702596
714.9986010808989 6328.880867498906
715.9750014736292 6425.477117075731
716.9511558485392 6527.102047238128
717.9270642804786 6624.52158179083
718.9027268442787 6661.937410371477
719.8781436147328 6630.507630672558
720.8533146666014 6596.306845484016
721.828240074612 6688.854575986763
722.8029199134635 6624.316921823294
723.7773542578125 6719.223370540427
724.751543182294 6638.479933252417
725.7254867615029 6688.889615021291
726.6991850700015 6544.98808658916
727.6726381823228 6594.163247044945
728.6458461729599 6539.9946865422735
729.6188091163858 6577.297532982295
730.5915270870246 6557.741941550611
731.5640001592856 6345.628288506968
732.536228407529 6497.885794289222
733.5082119060917 6465.151145565531
734.4799507292755 6437.898410679906
735.4514449513481 6417.835328087403
736.4226946465496 6510.08441883214
737.3936998890786 6445.880142009855
738.3644607531078 6300.629022671291
739.3349773127793 6348.9431765469135
740.3052496421951 6344.515593368612
741.27527781543 6313.752908064311
742.2450619065221 6272.283546639135
743.2146019894826 6348.1041912852415
744.183898138288 6285.52542801591
745.1529504268801 6268.9309106837645
746.1217589291682 6208.948711762843
747.0903237190341 6197.49690739676
748.058644870318 6257.232467894057
749.0267224568397 6234.7724434900465
749.994556552374 6078.619952016539
750.9621472306771 6176.124086724873
751.9294945654583 6222.8320547104195
752.8965986304011 6145.152809115085
753.8634594991636 6135.675510620607
754.8300772453586 6253.480356525625
755.7964519425768 6159.169746216563
756.762583664371 6214.9987947401105
757.7284724842611 6259.129629909019
758.6941184757416 6147.177488517573
759.6595217122667 6182.4587378003
760.6246822672638 6188.414037763688
761.5896002141235 6079.880803227087
762.5542756262093 6197.251216501996
763.5187085768503 6194.153071068902
764.4828991393406 6186.954227620903
765.4468473869474 6191.867477267225
766.4105533929032 6159.640320182839
767.3740172304078 6093.900376838565
768.3372389726283 6143.702268255719
769.3002186926988 6098.926754646685
770.2629564637282 6049.142071958857
771.2254523587872 6111.039881636848
772.1877064509154 5956.879523614583
773.1497188131179 5917.936555225163
774.1114895183728 5868.764259288624
775.0730186396268 5928.544104736733
776.0343062497905 5877.100187551861
776.9953524217381 5819.191456743869
777.9561572283274 5916.1955043081125
778.9167207423689 5914.300916205406
779.8770430366476 5843.105661334689
780.8371241839159 5836.073573937845
781.7969642568951 5844.500452658587
782.7565633282757 6029.988938744817
783.7159214707099 5833.463899360422
784.6750387568281 5912.361151388539
785.6339152592227 5897.277005930769
786.5925510504512 5789.216444791489
787.5509462030477 5827.41402374524
788.5091007895098 5938.345479431408
789.4670148823006 5891.997586544898
790.4246885538596 5874.689572541478
791.3821218765861 5878.519670304364
792.3393149228505 5920.143002390938
793.2962677649975 5979.737540941735
794.2529804753303 5974.116349720602
795.20945312613 6066.630087552657
796.1656857896378 5938.799073766795
797.1216785380675 5943.295333613273
798.0774314435985 6060.165005290207
799.0329445783846 6184.65525473061
799.9882180145414 6196.450268190316
800.9432518241574 6166.651335120148
801.89804607929 6259.253762956416
802.852600851962 6308.988990092992
803.8069162141637 6305.826007343659
804.760992237856 6442.578171661015
805.714828994971 6346.546088597349
806.6684265574077 6432.1847883391665
807.6217849970271 6479.577690734333
808.574904385674 6434.071500400923
809.527784795142 6478.286882889212
810.4804262972102 6645.497731743359
811.4328289636178 6401.965337373532
812.3849928660748 6234.17116627333
813.3369180762638 6276.524195296147
814.2886046658241 6296.851967808442
815.2400527063783 6165.483570255773
816.1912622695108 6141.426792648901
817.1422334267718 6070.604235638546
818.0929662496856 5938.330311706409
819.0434608097457 5856.522976968586
819.9937171784059 5801.352381226987
820.9437354271013 5823.681195857406
821.8935156272255 5880.682043268669
822.8430578501484 5730.519131958148
823.7923621672016 5587.182247109377
824.7414286496896 5618.718381051798
825.6902573688876 5692.657005975465
826.6388483960363 5677.6972600623285
827.5872018023492 5546.364323535205
828.5353176590033 5681.357133071597
829.4831960371503 5539.65812732306
830.4308370079016 5471.545685696696
831.3782406423525 5597.508887627637
832.3254070115545 5543.555312112695
833.2723361865319 5486.549423206468
834.2190282382799 5529.146799423888
835.1654832377644 5584.219709544212
836.1117012559116 5503.460866683586
837.0576823636256 5651.5853628423
838.003426631778 5569.363427134933
838.9489341312074 5410.69975951778
839.8942049327197 5601.737465808917
840.8392391070975 5598.17903537126
841.7840367250865 5517.27699017444
842.7285978573982 5470.029590107751
843.672922574724 5565.798682573282
844.6170109477152 5459.122441829918
845.560863046996 5467.8762677765135
846.5044789431595 5472.981188311785
847.4478587067697 5527.107041241192
848.3910024083561 5592.238362267423
849.333910118421 5519.348075984919
850.2765819074339 5429.176727327701
851.2190178458332 5554.068775515409
852.161218004032 5580.745167271113
853.1031824524016 5564.08964113513
854.0449112612987 5566.430323156531
854.9864045010327 5546.002219178725
855.9276622418947 5531.859115504621
856.8686845541379 5622.997092769999
857.8094715079915 5572.4710357540425
858.7500231736467 5656.610874200027
859.690339621271 5698.352846995998
860.6304209209939 5619.828182372808
861.5702671429244 5532.665479225155
862.5098783571284 5614.598979906628
863.4492546336569 5622.794265586898
864.3883960425155 5588.562794775784
865.3273026536863 5668.674785489708
866.2659745371238 5615.854087271348
867.2044117627465 5773.75194662475
868.1426144004472 5674.223833432521
869.0805825200823 5738.175675902496
870.0183161914847 5788.607147626392
870.9558154844526 5826.708613472144
871.8930804687552 5864.470099789593
872.8301112141307 5852.650110008384
873.7669077902865 5982.767033255492
874.7034702669062 6050.478567796082
875.6397987136315 6037.352398520921
876.5758932000863 5927.156844423456
877.5117537958522 6126.451537782757
878.4473805704911 6104.07542077078
879.3827735935283 6108.8543237995855
880.3179329344603 6136.685351156028
881.2528586627541 6129.703010416226
882.1875508478479 6283.954366409237
883.1220095591489 6184.610416116879
884.0562348660296 6110.421222672512
884.9902268378391 6289.681740953156
885.9239855438955 6197.617343134249
886.8575110534839 6098.084796949792
887.7908034358588 6189.321044713626
888.7238627602474 6153.523916815939
889.6566890958475 6088.925648087539
890.5892825118208 5964.73685070166
891.5216430773125 6075.496233940466
892.4537708614189 5917.794333570579
893.3856659332196 5891.571692545122
894.3173283617652 5783.917297682008
895.2487582160684 5854.452505617908
896.179955565116 5871.299642795245
897.110920477864 5745.445025753847
898.0416530232451 5748.090225459033
898.9721532701478 5651.465281053121
899.9024212874428 5708.199034901259
900.8324571439662 5596.168781530606
901.7622609085302 5540.1119202120735
902.6918326499072 5510.385292399604
903.6211724368477 5583.297745395548
904.5502803380696 5513.192497298534
905.4791564222614 5672.440481194436
906.4078007580792 5493.798854800213
907.3362134141571 5494.627168870042
908.2643944590909 5522.793622827177
909.1923439614493 5446.159915079313
910.1200619897754 5464.640589246838
911.0475486125779 5605.963587463067
911.9748038983344 5425.330750188388
912.9018279155007 5429.5669561191835
913.8286207324982 5347.106298836497
914.7551824177117 5368.5699579493685
915.6815130395116 5407.829409180152
916.6076126662283 5353.524553726965
917.533481366163 5407.695310749039
918.4591192075914 5480.998954582414
919.3845262587565 5449.186410849812
920.3097025878706 5434.55481934318
921.2346482631237 5407.048932230982
922.1593633526682 5462.740135444145
923.0838479246304 5415.35163822534
924.0081020471061 5485.066935253207
924.9321257881656 5297.273047735357
925.8559192158464 5395.386792849566
926.7794823981512 5262.210684153858
927.7028154030686 5320.301979536349
928.6259182985414 5256.320826547306
929.5487911524906 5409.078798199462
930.4714340328119 5320.024183288016
931.3938470073608 5220.882345402905
932.3160301439748 5321.036904867377
933.2379835104548 5320.865407136205
934.1597071745709 5382.061856431319
935.0812012040769 5377.14306548517
936.002465666681 5334.0113643283385
936.9235006300696 5335.861263696151
937.8443061619055 5337.038541821248
938.7648823298077 5276.882670591842
939.6852292013809 5355.800157645221
940.6053468441951 5353.131854107853
941.5252353257874 5168.846079887671
942.4448947136698 5267.397455504824
943.364325075323 5247.5719130127145
944.2835264782043 5306.0916068933375
945.2024989897309 5207.854853450085
946.1212426773054 5376.034157848933
947.0397576082851 5349.161338761381
947.9580438500125 5373.339717638529
948.8761014697939 5380.114060685629
949.7939305349064 5404.616414079046
950.7115311125999 5301.834294895913
951.6289032700952 5318.2952706662645
952.5460470745875 5437.596499180894
953.4629625932339 5295.795034665663
954.3796498931715 5518.517484785023
955.2961090415029 5412.1871842786995
956.2123401053068 5425.840457850256
957.1283431516276 5473.60206115388
958.0441182474842 5280.556907228982
958.9596654598663 5427.657506636104
959.8749848557309 5388.455039892241
960.7900765020167 5320.685121638439
961.7049404656209 5288.3955444487265
962.6195768134185 5358.924823036978
963.5339856122537 5276.073658026632
964.4481669289453 5420.612175104282
965.3621208302793 5334.568437216121
966.2758473830145 5333.067919430805
967.1893466538822 5444.734839694619
968.1026187095813 5333.1742819858355
969.0156636167867 5350.413752801579
969.9284814421426 5332.032976951227
970.8410722522622 5313.178687063728
971.753436113735 5267.259834222514
972.6655730931161 5312.335163385539
973.5774832569368 5310.359528945055
974.4891666716958 5277.3451390391765
975.4006234038698 5267.061988970281
976.3118535198955 5188.259948921408
977.2228570861935 5451.022819862283
978.1336341691494 5280.190788239925
979.0441848351202 5232.8819022303605
979.9545091504333 5341.968128401217
980.864607181391 5396.141218871615
981.7744789942699 5358.01767721245
982.6841246553086 5458.04784218091
983.5935442307236 5390.4177255262675
984.5027377867027 5475.52775781856
985.4117053894024 5440.270633019073
986.3204471049557 5354.206281391719
987.2289629994648 5414.523592015817
988.1372531390007 5580.996081849552
989.0453175896091 5393.270986736028
989.9531564173067 5444.5587439932615
990.860769688079 5418.891840548093
991.7681574678918 5439.063557761681
992.6753198226706 5470.758419518603
993.582256818323 5497.995030687781
994.4889685207218 5570.846385319701
995.3954549957143 5691.904849404825
996.301716309119 5616.567495657444
997.2077525267232 5688.993689449841
998.1135637142943 5551.681819077057
999.0191499375615 5673.734818661244
999.924511262232 5675.5302517341925
1000.8296477539861 5736.055428159702
1001.7345594784656 5633.089954792403
1002.6392465012996 5612.1685185575025
1003.5437088880753 5657.048081860911
1004.4479467043584 5719.461970132454
1005.3519600156869 5539.74757646405
1006.2557488875718 5627.036249609488
1007.1593133854858 5575.556085763456
1008.0626535748888 5571.434096838173
1008.9657695212009 5606.1689745000995
1009.8686612898182 5709.914103878291
1010.7713289461135 5725.311105985409
1011.6737725554212 5648.366539334552
1012.5759921830577 5643.603090090167
1013.4779878943027 5638.903244419874
1014.379759754418 5598.172175627873
1015.2813078286254 5652.21801343419
1016.18263218213 5421.133084268922
1017.0837328801026 5542.464863023876
1017.9846099876886 5618.7559972710715
1018.8852635700023 5573.151328103245
1019.7856936921362 5365.427484215611
1020.6859004191447 5534.953290751071
1021.5858838160675 5477.252969826969
1022.4856439479063 5386.482446023818
1023.3851808796389 5289.064876681222
1024.2844946762143 5423.581260005733
1025.183585402554 5300.466612590729
1026.082453123554 5197.6412874491525
1026.9810979040776 5347.365121588446
1027.8795198089647 5235.192774692716
1028.777718903024 5345.718212216082
1029.6756952510368 5272.676756863426
1030.5734489177648 5262.493726996878
1031.4709799679313 5288.49650614687
1032.3682884662358 5362.42734454919
1033.2653744773506 5211.327334265176
1034.1622380659192 5200.198817645645
1035.058879296559 5266.503786432341
1035.9552982338591 5340.634960310054
1036.8514949423825 5369.922757192648
1037.7474694866614 5331.514855227983
1038.6432219312028 5384.794849263156
1039.5387523404825 5478.564780654155
1040.4340607789582 5504.9138420888
1041.3291473110476 5471.0183767309845
1042.2240120011465 5627.480944883172
1043.1186549136273 5686.157084565151
1044.0130761128294 5629.3327369285125
1044.9072756630649 5832.841950242508
1045.8012536286205 5782.4664225028
1046.6950100737577 5747.597063550679
1047.588545062701 5931.010433833689
1048.481858659663 6013.187086444209
1049.3749509288118 6014.111321924118
1050.2678219343034 5982.484471870034
1051.1604717402515 6010.48196078879
1052.0529004107575 5837.5276937848075
1052.9451080098825 6047.492580349857
1053.8370946016694 5881.708720626859
1054.7288602501267 6010.721519246023
1055.6204050192446 5860.118315808251
1056.511728972977 6026.296914669894
1057.402832175254 5933.180195415266
1058.2937146899785 5792.2252168858895
1059.1843765810263 5787.72963618114
1060.0748179122456 5960.526958519224
1060.9650387474576 5788.081998328419
1061.855039150456 5830.953715922189
1062.7448191850071 5774.822403775254
1063.6343789148505 5587.827133902659
1064.5237184037014 5691.121873784041
1065.412837715241 5568.200842129505
1066.3017369131267 5514.950741897849
1067.190416060992 5546.548263160586
1068.0788752224398 5413.13956815855
1068.9671144610438 5477.4899304962755
1069.8551338403558 5513.864839266595
1070.7429334239023 5534.416042838467
1071.6305132751695 5345.726722649834
1072.517873457633 5485.826154480122
1073.4050140347335 5422.949011245606
1074.2919350698776 5393.707470974892
1075.1786366264623 5288.928339504831
1076.0651187678395 5390.200904173248
1076.95138155735 5280.971735250292
1077.8374250582929 5130.515633900908
1078.7232493339507 5238.482728149089
1079.608854447577 5239.243259445802
1080.4942404623907 5211.7364355116415
1081.3794074415982 5251.491279653858
1082.2643554483657 5232.168070539739
1083.149084545841 5200.487033514046
1084.033594797138 5059.431633709935
1084.9178862653516 5138.425067887007
1085.8019590135427 5165.85288439665
1086.6858131047484 5042.84916227493
1087.5694486019802 5181.461747812019
1088.4528655682225 5090.283667470017
1089.3360640664287 5211.258600834524
1090.2190441595321 5043.559726669872
1091.1018059104317 5114.964726441994
1091.98434938201 5043.229031663929
1092.866674637111 5000.930957823059
1093.748781738559 5098.075448868269
1094.6306707491512 5031.918350660025
1095.5123417316554 5029.784193282797
1096.3937947488157 5056.3614057509785
1097.2750298633455 5032.363415390152
1098.156047137938 4988.125911157817
1099.0368466352556 5048.6848237926915
1099.9174284179317 5042.292336103264
1100.7977925485757 4972.219202097704
1101.6779390897755 4905.269637597859
1102.5578681040806 5067.690004281583
1103.4375796540226 5015.011366762904
1104.3170738021054 4939.80914454004
1105.1963506108077 4820.855007972234
1106.0754101425773 4878.5727776097465
1106.9542524598382 5020.370674733751
1107.8328776249855 4887.744198917445
1108.7112857003904 4842.60325088628
1109.5894767483987 4902.919488242385
1110.4674508313292 4987.503171909039
1111.3452080114657 4999.95168277747
1112.2227483510815 4998.055093816978
1113.1000719124077 5114.836794065274
1113.9771787576592 5035.477789707774
1114.854068949022 5058.32152308295
1115.7307425486542 5222.956464120407
1116.6071996186893 5175.362472596613
1117.483440221229 5526.068640834976
1118.3594644183577 5237.877707967794
1119.235272272128 5476.091437424047
1120.1108638445658 5547.539877787691
1120.9862391976712 5677.922852705038
1121.8613983934229 5684.10543004027
1122.7363414937627 5581.104108603531
1123.6110685606182 5694.733123540757
1124.485579655884 5853.569639255054
1125.359874841426 5829.525653356361
1126.2339541790916 5850.325967271713
1127.1078177306936 6055.980003319834
1127.9814655580267 5968.546476021887
1128.854897722851 6101.565787683324
1129.7281142869106 6053.444603262027
1130.6011153119125 6130.128673116215
1131.473900859548 6205.910553022216
1132.3464709914697 6082.237637434382
1133.2188257693178 6145.399500032024
1134.0909652546961 6054.066965411597
1134.96288950919 6031.932687213908
1135.8345985943506 6151.561379743485
1136.7060925717087 5850.369663785299
1137.57737150277 5912.58691132827
1138.4484354490069 5820.024875063065
1139.3192844718778 5904.857873135696
1140.1899186327992 5641.200696570113
1141.060337993178 5851.914398934113
1141.930542614382 5538.806823421805
1142.8005325577597 5596.982180721558
1143.670307884635 5230.54682290424
1144.5398686563003 5465.859682195765
1145.409214934025 5383.122209959266
1146.2783467790541 5150.0566863267795
1147.1472642526023 5218.034506160146
1148.0159674158622 5252.561020513424
1148.8844563300026 5097.228403705488
1149.7527310561618 4908.315393069592
1150.6207916554504 4920.157937182986
1151.4886381889592 4880.450321962333
1152.3562707177498 5003.506617291345
1153.2236893028585 4857.996926997583
1154.090894005296 4740.466155652824
1154.9578848860474 4764.412775051364
1155.8246620060709 4722.41227361294
1156.6912254262988 4760.217639472668
1157.5575752076438 4746.60740757263
1158.42371141098 4801.990505483905
1159.2896340971656 4680.038088203061
1160.1553433270346 4779.66643634647
1161.0208391613887 4719.805141411656
1161.8861216610057 4735.2353122906225
1162.75119088664 4707.865969580575
1163.6160468990201 4635.449395147733
1164.4806897588442 4569.992334508008
1165.3451195267917 4657.857107351426
1166.2093362635114 4677.43534310374
1167.0733400296285 4676.903210043523
1167.9371308857444 4541.892062653604
1168.8007088924278 4581.809014701864
1169.6640741102328 4674.052219066966
1170.5272265996773 4590.563821858247
1171.390166421259 4413.677256159849
1172.252893635452 4607.669720737271
1173.1154083026995 4739.869921585364
1173.977710483421 4635.784581268586
1174.8398002380145 4504.997887997362
1175.7016776268483 4707.850937329128
1176.563342710264 4564.887371176652
1177.4247955485826 4566.156406177573
1178.2860362020947 4652.508249681914
1179.147064731069 4550.380270941545
1180.0078811957483 4618.319669547619
1180.8684856563486 4688.783915652612
1181.7288781730604 4614.986089178782
1182.589058806052 4602.4295053850965
1183.4490276154593 4820.2512056685655
1184.3087846614017 4786.017262241671
1185.1683300039676 4705.858136255332
1186.027663703222 4912.619223415804
1186.8867858192025 4732.963546967899
1187.7456964119228 4819.790240227589
1188.6043955413716 4881.513698615452
1189.4628832675116 4981.19522245437
1190.3211596502842 4886.970260995642
1191.179224749596 4977.8314236889
1192.0370786253388 4964.370794231321
1192.8947213373758 5136.5256630434715
1193.7521529455407 5268.435030408368
1194.6093735096438 5095.385688615915
1195.466383089477 5136.145711770192
1196.3231817447977 5166.60997158683
1197.1797695353398 5296.198394099554
1198.0361465208189 5035.541307771524
1198.8923127609214 5159.134628444605
1199.7482683153048 5298.738866220806
1200.6040132436028 5329.878489064683
1201.459547605431 5180.932354095721
1202.3148714603722 5066.549990877415
1203.1699848679855 5160.271072120508
1204.0248878878065 5292.957039547757
1204.8795805793507 5057.180078347029
1205.7340630020935 5245.919856519872
1206.5883352155033 5256.380630399206
1207.4423972790064 5168.905269168523
1208.2962492520237 5088.849628295526
1209.1498911939307 5079.0219812969335
1210.0033231640937 5102.104733381047
1210.8565452218427 4998.784934880941
1211.7095574264913 4926.699126644442
1212.5623598373222 4842.457065438165
1213.4149525135963 4851.962697663619
1214.2673355145507 4786.59087395983
1215.1195088993936 4786.87028222148
1215.9714727273113 4715.238214469387
1216.8232270574663 4860.2823604862215
1217.6747719489904 4607.717052770544
1218.5261074609934 4642.089662340211
1219.3772336525653 4713.799693719067
1220.2281505827668 4798.16101065786
1221.0788583106296 4724.74214108281
1221.9293568951707 4568.982505697744
1222.7796463953746 4574.50990225977
1223.629726870202 4633.672322738324
1224.4795983785934 4645.741183014599
1225.3292609794553 4673.977690247556
1226.1787147316809 4403.353810663345
1227.0279596941327 4579.885665842581
1227.8769959256424 4547.719329576944
1228.7258234850306 4719.298140177044
1229.5744424310833 4473.936671576624
1230.422852822563 4573.903963119967
1231.2710547182105 4688.881737496795
1232.119048176739 4607.96852177485
1232.9668332568417 4416.238743541135
1233.8144100171812 4556.48961800716
1234.6617785163999 4528.07852430581
1235.508938813111 4356.83434368026
1236.3558909659114 4353.837910324415
1237.2026350333617 4572.183941796729
1238.049171074008 4596.178082683904
1238.8954991463652 4437.169840763507
1239.741619308932 4381.013152997711
1240.587531620169 4686.325286722891
1241.4332361385277 4596.323095065065
1242.2787329224248 4443.014442678718
1243.1240220302534 4388.289289702676
1243.9691035203869 4416.822281724097
1244.813977451171 4491.693850289764
1245.6586438809263 4519.975530643171
1246.5031028679496 4237.626433257722
1247.3473544705157 4501.121316161623
1248.1913987468706 4485.077560194355
1249.0352357552383 4317.88211228317
1249.8788655538228 4384.127660129037
1250.7222882007918 4510.297978465008
1251.565503754302 4458.262723331101
1252.4085122724755 4363.297145557969
1253.2513138134182 4494.51212229881
1254.0939084352049 4396.522648409348
1254.9362961958905 4409.832762432897
1255.7784771535007 4423.565287296785
1256.6204513660432 4440.838006236932
1257.4622188915 4536.650501148712
1258.3037797878242 4385.3182054212375
1259.1451341129468 4360.6839470375935
1259.9862819247755 4430.217500327443
1260.8272232811978 4356.0219642002
1261.6679582400666 4636.984631135021
1262.5084868592203 4294.460284829808
1263.34880919647 4330.542964534119
1264.1889253095997 4485.824511263789
1265.0288352563712 4408.41987570715
1265.8685390945266 4446.263381178838
1266.7080368817751 4435.530907610938
1267.5473286758115 4406.533402952965
1268.386414534294 4460.854803283717
1269.2252945148703 4213.911488242143
1270.0639686751547 4367.163309929415
1270.9024370727402 4369.628958567389
1271.7406997651997 4196.810161979223
1272.5787568100714 4283.333524078966
1273.4166082648808 4395.101757208358
1274.2542541871244 4343.474074944651
1275.091694634275 4417.777204479686
1275.9289296637817 4259.009198647707
1276.7659593330663 4306.752285613848
1277.6027836995308 4218.476180330523
1278.4394028205552 4382.398784282815
1279.2758167534867 4266.011391288839
1280.112025555658 4315.114478226863
1280.9480292843746 4258.452244837747
1281.7838279969128 4167.643588819714
1282.6194217505326 4236.615151852579
1283.4548106024686 4179.675864421411
1284.289994609926 4229.32574452244
1285.1249738300921 4361.02356638571
1285.959748320127 4202.676901641886
1286.7943181371702 4357.699727195287
1287.6286833383328 4277.899430740757
1288.4628439807038 4207.267557508732
1289.2968001213521 4142.85846518177
1290.1305518173194 4223.933263671143
1290.9640991256183 4250.614269018715
1291.7974421032523 4217.826280108699
1292.630580807183 4300.98200169821
1293.463515294361 4292.675873495197
1294.29624562171 4316.841685273908
1295.12877184613 4095.9301637433987
1295.961094024493 4174.735697733479
1296.79321221365 4303.086131034745
1297.6251264704333 4375.294276624673
1298.4568368516466 4475.3469131690945
1299.2883434140658 4330.845024950039
1300.1196462144526 4228.241577338991
1300.9507453095375 4334.459443531644
1301.7816407560313 4325.14171049254
1302.6123326106172 4384.461556641929
1303.4428209299622 4185.546361517009
1304.2731057707024 4405.29971912857
1305.1031871894502 4224.445254797976
1305.933065242798 4363.704249518791
1306.7627399873181 4299.781052042179
1307.5922114795467 4616.269409592221
1308.4214797760123 4392.602141862453
1309.2505449332057 4426.947982372656
1310.0794070076026 4423.132207509265
1310.9080660556538 4558.195599423658
1311.736522133786 4525.0944972938905
1312.5647752983987 4453.123255487029
1313.3928256058734 4417.169357625877
1314.2206731125661 4448.0550456205365
1315.048317874809 4495.578937318538
1315.8757599489109 4507.398581698362
1316.7029993911547 4574.229774296381
1317.5300362578055 4699.752683585922
1318.356870605101 4420.359944607229
1319.183502489257 4468.7303808448305
1320.0099319664623 4500.059761037757
1320.836159092889 4575.623698035667
1321.66218392468 4605.833138356689
1322.4880065179532 4434.359285197225
1323.3136269288134 4506.399519384587
1324.1390452133292 4595.953506318397
1324.9642614275563 4666.914269593649
1325.7892756275214 4637.19726001935
1326.6140878692295 4496.77779102802
1327.4386982086617 4818.605634457753
1328.2631067017755 4615.5059277632545
1329.0873134045069 4571.254989877236
1329.911318372764 4522.595128169983
1330.735121662441 4435.766137249291
1331.558723329399 4446.922206850837
1332.3821234294774 4494.809873210777
1333.2053220185007 4559.570436636605
1334.0283191522612 4453.028903455138
1334.851114886529 4606.088307524445
1335.6737092770582 4397.316527881774
1336.4961023795695 4489.012693993013
1337.3182942497697 4424.627010221541
1338.1402849433325 4492.0158360022715
1338.962074515921 4382.479615241824
1339.7836630231632 4308.9579842178155
1340.6050505206676 4702.68042591517
1341.426237064028 4500.373531577103
1342.2472227088037 4325.146393672307
1343.0680075105338 4350.746513140446
1343.888591524741 4373.7892908533695
1344.7089748069138 4584.803860484702
1345.5291574125276 4393.522307545603
1346.3491393970307 4183.7839328615555
1347.168920815846 4469.835869246728
1347.9885017243778 4256.146009258071
1348.8078821780036 4432.415417004375
1349.6270622320844 4476.247171601406
1350.4460419419447 4209.344390379654
1351.2648213629054 4464.458496499353
1352.0834005502438 4243.502910028457
1352.90177955923 4338.377233175086
1353.7199584451064 4427.194336927722
1354.5379372630887 4361.0910486690855
1355.355716068374 4357.232620693185
1356.1732949161305 4255.667263191759
1356.9906738615155 4324.801872060906
1357.8078529596478 4330.7820140835265
1358.6248322656375 4377.8422421365285
1359.441611834567 4215.568937804019
1360.2581917214866 4532.497678442052
1361.0745719814367 4203.902094154133
1361.890752669433 4215.443768379257
1362.7067338404577 4119.908776271075
1363.5225155494845 4339.155712526071
1364.3380978514506 4432.959187980536
1365.1534808012839 4118.104981006456
1365.9686644538815 4058.6981072892004
1366.783648864117 4367.694369702034
1367.5984340868417 4410.466761366306
1368.413020176893 4301.459555904192
1369.2274071890715 4072.6845073294753
1370.0415951781652 4294.954206615751
1370.8555841989346 4054.8661474644214
1371.6693743061223 4138.234381524112
1372.48296555444 4051.7827544981033
1373.2963579985844 4363.468966087479
1374.1095516932255 4218.308048308876
1374.9225466930166 4037.792878623414
1375.7353430525782 4165.422682576651
1376.5479408265164 4032.785753491942
1377.36034006941 4169.1851534298685
1378.1725408358216 4302.572654232089
1378.9845431802805 4011.0735411169326
1379.796347157304 4339.813058108476
1380.6079528213813 4219.283394251268
1381.4193602269788 3989.8690728873094
1382.230569428546 4018.494529375935
1383.0415804805016 4336.19631821206
1383.852393437246 4279.187861855632
1384.6630083531563 4179.703559923264
1385.4734252825892 4095.11018940803
1386.2836442798798 4196.35628805589
1387.0936653993322 4100.266178047814
1387.9034886952395 4092.7808648730474
1388.713114221864 4256.395843328264
1389.5225420334482 4136.236642813542
1390.331772184214 3926.962879750716
1391.1408047283585 4040.9237827983
1391.9496397200564 4015.215233111664
1392.758277213461 4318.05795170817
1393.5667172627054 4143.319575374939
1394.3749599218918 4076.9121919520135
1395.1830052451114 3927.7169643413495
1395.9908532864265 4039.938816084962
1396.7985040998774 4155.983676013214
1397.6059577394808 3990.3296312092266
1398.4132142592352 4040.45865390065
1399.2202737131156 4032.801815755528
1400.027136155073 4114.118819768594
1400.8338016390353 4099.354403345014
1401.6402702189134 4067.59580243202
1402.446541948586 4044.90570346717
1403.2526168819204 3950.9632351901464
1404.058495072757 4011.01612986751
1404.8641765749107 3838.1322481889338
1405.6696614421799 4021.098294181526
1406.4749497283356 4250.210977647053
1407.280041487129 3973.472561828825
1408.084936772295 3745.210762227779
1408.8896356375335 3971.1327347800384
1409.6941381365323 3963.273724478775
1410.498444322955 3811.402091884573
1411.3025542504402 3924.563236240595
1412.106467972606 3973.298526591136
1412.9101855430508 3913.504749073244
1413.7137070153458 3729.988518501622
1414.5170324430437 3743.6376235782686
1415.320161879672 3897.7024474314676
1416.1230953787435 4023.2870793680813
1416.925832993742 3746.146282201109
1417.7283747781275 3657.222005207733
1418.5307207853439 3807.9311644191885
1419.3328710688093 3745.310370166844
1420.134825681922 3601.248926009869
1420.9365846780584 3722.535831054423
1421.7381481105713 3813.1832917908987
1422.539516032788 3852.604993594317
1423.3406884980232 3570.4424240958347
1424.1416655595604 3612.7821392357073
1424.942447270665 3620.1621233558535
1425.7430336845828 3648.1714509872754
1426.5434248545298 3462.8818739685216
1427.3436208337116 3707.5040508987213
1428.143621675301 3817.7311007444796
1428.9434274324558 3788.680241995121
1429.7430381583108 3482.57426224895
1430.5424539059713 3515.438007694266
1431.3416747285337 4070.9856547835598
1432.1407006790632 3680.4938655431615
1432.9395318106053 3667.572913497461
1433.7381681761835 3561.573942606581
1434.5366098288014 3729.511072647193
1435.3348568214424 3583.597897173625
1436.1329092070573 3492.690029442533
1436.9307670385879 3582.0785779502608
1437.7284303689503 3663.1145100562485
1438.5258992510335 3713.7239998773066
1439.3231737377118 3607.318006798197
1440.1202538818306 3570.720301879354
1440.9171397362225 3554.6741838642824
1441.7138313536925 3552.9463570293046
1442.5103287870243 3433.273666832357
1443.3066320889775 3444.040192169222
1444.1027413122956 3621.6270759329564
1444.8986565096966 3544.938677861166
1445.694377733882 3609.9458113063165
1446.4899050375207 3437.0193877278207
1447.2852384732687 3536.10469974243
1448.0803780937622 3599.5831466558593
1448.8753239516063 3400.334687536855
1449.6700760993954 3362.2565871936727
1450.464634589689 3370.6427551396364
1451.2589994750397 3543.73501741749
1452.0531708079689 3357.2570297467946
1452.8471486409799 3329.125797056991
1453.6409330265524 3541.1055645904125
1454.4345240171442 3352.360957750927
1455.2279216651987 3438.5595503209406
1456.0211260231263 3494.231723317357
1456.8141371433194 3726.628675874164
1457.6069550781594 3478.4621457325056
1458.3995798799897 3354.651073229727
1459.1920116011424 3432.0542057301586
1459.98425029393 3280.1686152541383
1460.7762960106338 3390.136155147101
1461.5681488035225 3393.190554644572
1462.3598087248392 3408.3902374852796
1463.1512758268036 3506.2522340030177
1463.942550161617 3320.359986139083
1464.7336317814625 3369.817706231479
1465.524520738496 3362.1491146679555
1466.3152170848552 3268.0437612579585
1467.1057208726506 3468.9127623575127
1467.8960321539817 3236.092269349413
1468.6861509809169 3177.2293070069372
1469.4760774055085 3272.1203444720686
1470.265811479785 3382.7515233583945
1471.055353255755 3175.1178383242172
1471.844702785409 3258.009543004623
1472.6338601207044 3298.1536897279125
1473.4228253135934 3775.6163706591797
1474.2115984159936 3294.9821562536476
1475.0001794798063 3175.3361368799324
1475.7885685569145 3304.4244965407333
1476.576765699172 3325.607156246283
1477.3647709584238 3444.6131125223956
1478.1525843864802 3394.069370831422
1478.9402060351367 3424.6769141946825
1479.7276359561693 3346.583572750335
1480.514874201328 3196.790377409753
1481.3019208223468 3158.880961124762
1482.0887758709323 3146.8478385362328
1482.8754393987747 3352.8912903208193
1483.6619114575406 3078.9400693713587
1484.4481920988783 3291.179981811458
1485.2342813744108 3355.1406630529696
1486.0201793357446 3303.166852501917
1486.8058860344572 3258.345741672766
1487.591401522117 3261.6011403488924
1488.3767258502594 3224.569480531196
1489.1618590704056 3292.053209877352
1489.9468012340494 3163.5279521077127
1490.7315523926754 3371.409371706155
1491.5161125977356 3405.752284816726
1492.3004819006637 3206.047006957551
1493.084660352877 3253.8920937530465
1493.8686480057622 3225.428616864067
1494.6524449106964 3468.915821123087
1495.4360511190262 3418.988454959713
1496.219466682087 3220.8908290277545
1497.0026916511779 3434.8859938248197
1497.7857260775945 3284.99020520848
1498.5685700125996 3305.419489964946
1499.3512235074395 3240.2832461001517
1500.133686613337 3119.3915686104583
1500.9159593814966 3171.020858116167
1501.698041863101 3480.0792736521607
1502.4799341093094 3142.186214235458
1503.2616361712662 3082.6304088194765
1504.043148100087 3241.357396740749
1504.8244699468742 3374.0703663270638
1505.6056017626997 3152.5971176035446
1506.3865435986281 3039.966243208177
1507.1672955056893 3218.0365389635936
1507.9478575348967 3051.0988112976534
1508.7282297372512 3313.6588147919124
1509.5084121637192 3166.9429204877756
1510.2884048652577 3235.4066452000993
1511.0682078927948 3119.9784956856415
1511.8478212972423 3097.4661366655955
1512.6272451294917 3067.883880669743
1513.4064794404076 3251.7681094519075
1514.1855242808433 3034.451362428122
1514.9643797016215 3257.5734252078896
1515.743045753552 3291.671027258122
1516.5215224874191 3204.169990325707
1517.2998099539836 2945.078366647479
1518.077908203999 3146.393491001336
1518.8558172881785 3187.896999187512
1519.633537257234 3241.875707999688
1520.4110681618404 3111.8110937287006
1521.1884100526604 3274.229959848729
1521.9655629803365 3192.4721715767
1522.7425269954856 3369.9546811989
1523.5193021487103 3292.389472570314
1524.2958884905856 3106.2028892890203
1525.0722860716687 3118.320265592301
1525.848494942502 3236.550141169653
1526.624515153595 3132.622958590276
1527.4003467554485 3249.097617513604
1528.175989798534 3362.6388413164977
1528.9514443333064 3210.5076677591637
1529.726710410203 3364.7431900981583
1530.5017880796331 3038.599575122368
1531.276677391992 3195.9179447342995
1532.0513783976457 3329.317587778395
1532.825891146953 3143.0572192251702
1533.6002156902414 3353.019070353447
1534.3743520778207 3261.6224269598524
1535.1483003599806 3227.639496566464
1535.9220605869923 3100.895959113671
1536.6956328091019 3281.200467571348
1537.4690170765407 3282.2786805220326
1538.242213439511 3335.0155323568824
1539.015221948208 3258.920635070924
1539.78804265279 3115.0897439553983
1540.560675603405 3056.1666652743047
1541.3331208501804 3273.2292848236407
1542.1053784432224 3387.110598668307
1542.8774484326168 3349.59713447861
1543.649330868422 3286.341816733448
1544.4210258006842 3243.545857970566
1545.1925332794308 3251.333431266126
1545.9638533546604 3212.4695654521074
1546.7349860763552 3191.9094156047395
1547.5059314944829 3408.0639069398667
1548.27668965898 3331.086314404404
1549.0472606197673 3374.4171659631006
1549.817644426752 3188.1953415789294
1550.5878411298072 3372.1412344307273
1551.3578507787988 3338.2083634118762
1552.1276734235635 3260.1289475137573
1552.8973091139233 3212.1260102792103
1553.6667578996767 3400.4455180438113
1554.436019830604 3352.4784681944643
1555.20509495646 3390.2430852910998
1555.9739833269869 3214.9021652543915
1556.7426849919011 3136.4916630829657
1557.511200000903 3531.2588021709416
1558.2795284036674 3379.0104357963464
1559.0476702498509 3363.9824669688655
1559.8156255890954 3435.8189744110778
1560.5833944710157 3505.959221021454
1561.3509769452048 3277.9167532625715
1562.1183730612447 3349.2008718235447
1562.8855828686865 3317.202484667073
1563.6526064170703 3521.665492847815
1564.4194437559127 3602.4456407838225
1565.1860949347047 3264.8707957539527
1565.9525600029283 3539.238944897124
1566.7188390100328 3549.979654910251
1567.4849320054564 3444.7056310403627
1568.250839038612 3392.196696470123
1569.0165601588997 3353.484275211583
1569.7820954156887 3407.559150335236
1570.5474448583373 3237.997851236695
1571.31260853618 3318.1175910847896
1572.0775864985299 3223.3532582386215
1572.8423787946813 3396.9315334847183
1573.6069854739108 3219.833328936675
1574.371406585471 3431.4931346573785
1575.1356421785986 3385.7155370420755
1575.899692302506 3378.3356396095396
1576.6635570063845 3349.9599772297784
1577.4272363394157 3221.42598536652
1578.190730350747 3210.132499224981
1578.9540390895163 3187.814423463985
1579.7171626048384 3096.4035536526812
1580.480100945806 3223.2542928074654
1581.2428541614918 3222.289453206831
1582.0054223009538 3221.536743691201
1582.767805413223 3315.0433536539385
1583.5300035473156 3187.466089459008
1584.292016752228 3202.6366314301094
1585.0538450769309 3148.958413914129
1585.8154885703807 3107.5934722600905
1586.5769472815136 3165.7444929820367
1587.3382212592405 3218.7788068534246
1588.099310552463 3351.3042408876236
1588.8602152100484 3087.0228247365035
1589.6209352808564 3308.3649953783897
1590.3814708137234 3238.267274084059
1591.14182185746 2784.718306449092
1591.9019884608679 3232.642906185602
1592.6619706727215 3029.3017642024083
1593.4217685417734 3200.541409848834
1594.1813821167616 3476.7756835236823
1594.9408114464022 3048.8269842031223
1595.7000565793933 3182.0357806993457
1596.459117564409 3189.9307063385513
1597.2179944501113 3078.9142110028815
1597.9766872851324 3281.303076181758
1598.735196118092 3303.44862593891
1599.4935209975883 3380.7728375101055
1600.2516619721973 3408.038472853617
1601.0096190904787 3198.0233054541245
1601.7673924009723 3337.608539053896
1602.524981952196 3137.8528416115764
1603.2823877926476 3091.949142955115
1604.0396099708087 3220.1956483730546
1604.7966485351371 3137.3058574642478
1605.5535035340745 3176.7866131932838
1606.3101750160404 3304.899908344215
1607.0666630294363 3154.7849926148515
1607.822967622642 3019.7639188571425
1608.5790888440224 3144.4111817681005
1609.3350267419137 3347.9390833445404
1610.0907813646445 3247.1576812270755
1610.8463527605145 3271.2103693590116
1611.601740977805 3251.617993314539
1612.356946064785 3302.211114925668
1613.1119680696902 3030.6684020266625
1613.8668070407512 3102.0084404361423
1614.6214630261748 3257.2238271863857
1615.375936074137 3218.130917309915
1616.1302262328118 3335.9059510534507
1616.8843335503425 3134.3237693385654
1617.638258074854 3190.2000318184505
1618.391999854457 3166.8238680106397
1619.1455589372363 3273.0489757231344
1619.8989353712623 3304.2785950794837
1620.65212920458 2933.4006809356733
1621.4051404852235 3027.0717897856894
1622.1579692611976 3091.0253235041546
1622.9106155804966 2962.9505463548107
1623.663079491087 2979.850318418956
1624.4153610409248 3121.75162542658
1625.1674602779385 3091.9535867705395
1625.9193772500403 2997.062701936896
1626.6711120051277 3249.455343632427
1627.4226645910676 3124.059029928344
1628.174035055721 2979.1231064377553
1628.9252234469168 3188.2682555899983
1629.676229812474 2928.1047297989767
1630.4270542001905 3284.5252774646915
1631.1776966578382 3116.5835515490407
1631.9281572331747 3153.1407853223136
1632.678435973945 3159.361222415035
1633.4285329278573 3124.2342193801856
1634.1784481426203 3038.7524906242174
1634.9281816659113 3163.6887732293994
1635.677733545388 3296.968547699915
1636.4271038286934 3012.8126967689345
1637.176292563452 3095.021582583876
1637.9252997972635 3174.0898279655858
1638.674125577716 3304.792517413714
1639.4227699523672 3353.113754830726
1640.171232968767 3003.480152180419
1640.9195146744423 3340.6852477845105
1641.6676151168977 3300.0939960264777
1642.4155343436178 3205.6198299589137
1643.1632724020765 3225.59444610198
1643.9108293397167 3175.0134711147102
1644.658205203974 3070.9478237594385
1645.4054000422566 3562.0617389997487
1646.1524139019566 3160.893742125641
1646.8992468304423 3284.272801401643
1647.6458988750728 3235.1341052185303
1648.3923700831765 3315.8409282554544
1649.1386605020743 3249.6596624484996
1649.8847701790564 3383.4271492470716
1650.6306991614038 3305.3340862628697
1651.3764474963682 3248.8944804305083
1652.1220152311944 3116.434687192502
1652.867402413096 3379.8222914991334
1653.6126090892776 3087.292518804196
1654.3576353069184 3372.8911045606596
1655.1024811131829 3287.8544649849273
1655.8471465552066 3330.12692785971
1656.5916316801213 3353.1441400245
1657.3359365350298 3272.499768370779
1658.0800611670165 3152.8041336962465
1658.824005623148 3260.96777563653
1659.5677699504722 3095.838388469899
1660.3113541960192 3202.37085461173
1661.054758406799 3222.858143434475
1661.7979826297997 3085.8699647648364
1662.5410269119966 2979.3778629878834
1663.283891300338 3292.47808034155
1664.0265758417645 3043.1252708044294
1664.7690805831826 3072.7317475359346
1665.5114055714948 3223.1382539331635
1666.2535508535748 3198.084084598363
1666.9955164762814 2759.6765117913556
1667.7373024864555 3010.9427082358106
1668.478908930916 3060.116093829197
1669.220335856462 2714.2844103145103
1669.9615833098778 2910.7753614035532
1670.7026513379296 2808.7936471338185
1671.44353998736 2804.896220263274
1672.1842493048916 2907.9101958595325
1672.9247793372379 2701.306308105999
1673.6651301310812 2860.4690236673846
1674.4053017330934 2766.765040900932
1675.1452941899242 2920.301175961518
1675.885107548207 2612.8980567991566
1676.6247418545518 2627.0593198925926
1677.3641971555535 2684.166202489182
1678.1034734977893 2790.710025629719
1678.8425709278108 2788.0964479721642
1679.5814894921605 2928.272549268619
1680.320229237359 2595.2930762042197
1681.0587902098978 2858.262719960574
1681.7971724562685 2680.0862957531685
1682.5353760229264 2716.3358480692523
1683.2734009563173 2616.3552772661374
1684.0112473028657 2573.2451942511225
1684.7489151089794 2596.5438782799456
1685.4864044210462 2661.8385122664436
1686.2237152854377 2531.452242274213
1686.960847748498 2646.2434458093207
1687.6978018565642 2502.8893616328055
1688.434577655944 2531.8775600210215
1689.1711751929379 2606.701544733996
1689.9075945138156 2534.3358180551527
1690.6438356648396 2541.027803198074
1691.3798986922448 2280.0266364348377
1692.1157836422499 2494.5135615362024
1692.851490561059 2452.0318954579834
1693.587019494853 2493.8544088964713
1694.3223704897991 2383.8225239032504
1695.0575435920364 2254.5241637431886
1695.792538847696 2570.4111544452103
1696.527356302886 2418.9661392454327
1697.2619960036936 2329.475773810023
1697.9964579961907 2388.3818365878733
1698.730742326432 2023.0374469494552
1699.4648490404488 2070.231171015958
1700.1987781842563 2264.7420907033647
1700.9325298038548 2411.1523803325035
1701.6661039452174 2408.919378266877
1702.3995006543082 2331.183935928455
1703.1327199770658 2445.8175234135942
1703.865761959416 2105.8966421211944
1704.598626647261 2412.6867655501
1705.3313140864866 2176.2245906108687
1706.0638243229587 2287.113637067102
1706.7961574025303 2334.0969875976834
1707.528313371029 2237.989754082048
1708.260292274268 2094.3671876703966
1708.9920941580403 2237.8758587362454
1709.7237190681226 2319.3066404936576
1710.4551670502697 2290.4193113301476
1711.18643815022 1966.678374830562
1711.9175324136959 2298.953872744931
1712.6484498863938 2096.4324633098654
1713.379190614005 2080.7061689104808
1714.109754642188 2248.4563053098445
1714.8401420165883 2135.079091065077
1715.570352782839 2327.250789439892
1716.3003869865497 2363.5730458010594
1717.0302446733076 2125.8878453731018
1717.7599258886876 2119.6097141172927
1718.4894306782444 2350.571340283059
1719.2187590875183 2018.0111589709984
1719.9479111620203 2247.7145859708444
1720.6768869472544 2078.3007999011843
1721.4056864887025 2203.6291537085813
1722.1343098318284 2243.756353473812
1722.8627570220742 2172.2023506610867
1723.591028104871 2060.71345313286
1724.3191231256242 2036.8780018520113
1725.0470421297232 2097.8543394512344
1725.7747851625427 2182.0954745579343
1726.5023522694337 2125.47543780189
1727.2297434957363 2178.6227053407447
1727.9569588867635 1921.1934943315634
1728.6839984878152 2165.7179069008316
1729.4108623441734 1831.1463099200369
1730.1375505011038 2037.6712420967556
1730.8640630038426 2032.4445655875807
1731.5903998976264 1985.9067646390972
1732.316561227657 2134.8499391572213
1733.0425470391274 2022.0909676865601
1733.7683573772065 2096.6011489697503
1734.4939922870508 2013.2826340445092
1735.2194518137949 2088.676260504249
1735.9447360025606 1997.364900313051
1736.669844898439 2012.425960846115
1737.3947785465189 2035.754830360443
1738.1195369918605 1869.5485028476382
1738.8441202795093 1952.0750918914462
1739.5685284544943 2003.2156516920436
1740.292761561821 2123.9527921524177
1741.0168196464838 2165.0935864112153
1741.7407027534518 1987.8379173059923
1742.464410927687 1975.238439401927
1743.187944214118 1928.1521583593774
1743.9113026576688 1814.3077635909551
1744.634486303241 1968.5807505532212
1745.3574951957125 1908.6812606512638
1746.0803293799509 1952.7136326110788
1746.8029889008048 1892.9248954386069
1747.5254738031017 2119.9709442522753
1748.2477841316504 1838.7874543576631
1748.969919931249 1955.7732942422476
1749.6918812466665 1899.72114937603
1750.4136681226646 2123.0800277320022
1751.1352806039777 1988.0612561424477
1751.856718735331 1962.998191643685
1752.5779825614281 1969.799984212718
1753.2990721269507 2013.2332603642583
1754.0199874765676 2046.6662837265571
1754.7407286549314 1716.952762601485
1755.4612957066693 1888.8745214061632
1756.1816886763954 1871.9851615277246
1756.9019076087097 2003.3642355960746
1757.6219525481865 2109.68854255946
1758.3418235393856 1938.042099583598
1759.061520626854 2044.038329686088
1759.7810438551096 1929.833640811578
1760.5003932686614 1955.7861870392674
1761.2195689119999 2045.2913555489802
1761.938570829594 1819.5365876431817
1762.657399065898 1938.2928468885639
1763.376053665348 1862.5073046894206
1764.0945346723602 1911.7580899281643
1764.812842131334 2000.561293748618
1765.5309760866512 1842.4147817673202
1766.2489365826787 1845.6544864015807
1766.9667236637597 1883.6973590194655
1767.684337374223 1688.1743841427888
1768.401777758383 1694.668881634282
1769.1190448605284 1796.1948963707782
1769.836138724937 1788.6820725280468
1770.5530593958665 1969.9389215764247
1771.2698069175603 2051.5705038796145
1771.9863813342326 1977.559993338919
1772.702782690094 1921.5923582073697
1773.4190110293293 1972.908355191415
1774.1350663961111 2013.7885005075545
1774.8509488345844 1857.483384386668
1775.5666583888924 1924.3655800955944
1776.2821951031437 2032.7973146706868
1776.9975590214362 1808.70024331625
1777.7127501878585 2142.8268483714614
1778.4277686464684 1911.3810237135717
1779.1426144413108 2036.308906990355
1779.8572876164162 1929.774191481508
1780.571788215797 1854.4804841174387
1781.2861162834415 1860.2940971111063
1782.0002718633277 1865.3634705188033
1782.7142549994132 1768.1765949438698
1783.4280657356376 1987.4750462805143
1784.141704115922 1800.4944270937133
1784.855170184177 1859.3024005066195
1785.5684639842839 1947.9751809813915
1786.2815855601148 1722.1786721808428
1786.9945349555237 1938.6299610761707
1787.707312214343 1791.9048239697327
1788.4199173803918 1906.0127126806863
1789.132350497468 1756.060131931715
1789.8446116093583 1845.496672766966
1790.556700759822 1912.493368853956
1791.2686179926077 1607.042838832429
1791.9803633514493 1852.42800327307
1792.6919368800554 1763.9786685611223
1793.4033386221236 2036.154740381598
1794.1145686213295 1788.252872558684
1794.8256269213307 2028.2342725682272
1795.536513565774 1985.3160848585553
1796.247228598284 1617.627714273462
1796.9577720624693 1716.1545151399891
1797.6681440019165 1778.711433323766
1798.3783444602013 1811.7345477180868
1799.0883734808776 1864.5024551378683
1799.7982311074884 1862.0614621585682
1800.5079173835475 1827.3428178029274
1801.2174323525633 1912.940563766398
1801.9267760580187 1873.8542215617388
1802.635948543386 1836.2765833257138
1803.3449498521113 1849.8572461903248
1804.0537800276325 1885.7569357200591
1804.7624391133668 1780.1131934101886
1805.47092715271 1644.531678239362
1806.1792441890484 1674.6192021241836
1806.8873902657433 1903.891108912782
1807.5953654261448 1845.4601693872678
1808.3031697135812 1713.0346631265045
1809.0108031713662 1759.155929167647
1809.71826584279 1893.4885043792722
1810.425557771141 1669.1317112612542
1811.1326789996747 1756.772074278085
1811.839629571632 1844.4174990500771
1812.5464095302468 1743.603395813912
1813.2530189187182 1942.9435033612237
1813.959457780249 1746.8058735987956
1814.6657261580076 1912.0107564781665
1815.371824095153 1767.4719636175669
1816.0777516348262 1861.8447134216872
1816.78350882015 1654.5429498027631
1817.4890956942272 1682.1484274565923
1818.1945123001533 1678.0332496914482
1818.8997586809928 1771.919954769374
1819.6048348798067 1836.5920488597162
1820.3097409396287 1721.063176733814
1821.0144769034796 2012.9793220690203
1821.7190428143622 1747.0542492437792
1822.423438715261 1979.4384253926194
1823.1276646491478 1754.2213761731298
1823.8317206589727 1826.9712950209755
1824.5356067876692 1864.403041446545
1825.2393230781581 1774.067388703005
1825.942869573335 1647.5220377194335
1826.646246316086 1797.5304066540775
1827.3494533492758 1712.9961172469812
1828.052490715756 1821.9153491422228
1828.7553584583547 1785.3773512163177
1829.458056619891 1811.9914953445605
1830.1605852431585 1810.907035219756
1830.8629443709433 1604.4017053728885
1831.5651340460063 1861.219378625457
1832.2671543110919 1822.491329411445
1832.9690052089318 1694.4318694944545
1833.6706867822395 1827.9738104330015
1834.3721990737104 1884.1697216996454
1835.0735421260233 1879.8408356789867
1835.774715981841 1900.3665479325075
1836.4757206838058 1926.4424547209408
1837.1765562745459 1630.6988048964238
1837.8772227966747 1597.9468651647924
1838.5777202927839 1776.7611271229507
1839.2780488054523 1673.3518891293184
1839.9782083772352 1700.6362180398123
1840.6781990506806 1897.1393679274909
1841.378020868313 1793.3568864884098
1842.0776738726418 1711.0649546823915
1842.777158106157 1625.2414984576155
1843.4764736113375 1680.25960922317
1844.1756204306403 1894.750855319579
1844.8745986065078 1745.823210434513
1845.5734081813607 1606.4742504850253
1846.2720491976124 1633.6829363311651
1846.970521697649 1712.3358329010862
1847.6688257238511 1704.9770237817938
1848.3669613185684 1704.3784284811838
1849.0649285241452 1665.7815925756518
1849.7627273829057 1748.9395751094173
1850.460357937156 1858.8986101006226
1851.1578202291857 1525.4370512154326
1851.8551143012664 1723.8351591971114
1852.5522401956569 1783.8921313177063
1853.2491979545957 1824.5184918371592
1853.9459876203055 1545.1173310591637
1854.6426092349902 1569.9352484197912
1855.3390628408451 1647.5816754080734
1856.0353484800362 1826.4261876587657
1856.7314661947203 1794.978644720271
1857.4274160270397 1514.6910905972359
1858.123198019115 1679.3273162257035
1858.8188122130487 1746.4308454552277
1859.5142586509319 1720.0883016028606
1860.209537374838 1650.3526381141317
1860.9046484268183 1669.8371494490234
1861.599591848917 1829.094940728688
1862.294367683151 1659.313750965969
1862.988975971528 1673.5612788028307
1863.6834167560355 1651.2689971200944
1864.3776900786452 1764.7484228795397
1865.0717959813119 1610.0459789057372
1865.7657345059724 1728.9083601462462
1866.4595056945564 1800.8718059443995
1867.1531095889586 1807.5171586835781
1867.846546231076 1626.3464008456144
1868.5398156627743 1818.399724371398
1869.2329179259123 1787.5760020834746
1869.9258530623283 1936.3102481270344
1870.618621113843 1690.654382588072
1871.3112221222636 1568.283474929554
1872.0036561293764 1592.3431758438553
1872.695923176956 1753.520489647024
1873.3880233067594 1863.9055558610282
1874.0799565605212 1551.9305025173812
1874.7717229799673 1659.7200464468679
1875.4633226068036 1814.4364792664796
1876.1547554827175 1775.3151845730129
1876.8460216493859 1679.6223240271702
1877.5371211484617 1710.1568006591158
1878.2280540215852 1789.3757028419063
1878.9188203103804 1476.5424674989424
1879.6094200564548 1705.3779579698191
1880.299853301396 1579.9081519884169
1880.9901200867826 1888.9860330628283
1881.6802204541673 1631.1223997967168
1882.3701544450942 1710.5103054009728
1883.059922101087 1629.0390528199218
1883.7495234636517 1811.7062176474278
1884.4389585742792 1617.0474808223094
1885.1282274744517 1652.883242354364
1885.8173302056166 1958.0312494054335
1886.506266809225 1688.99281652342
1887.195037326701 1526.7519478513466
1887.8836417994517 1688.6405823049463
1888.5720802688702 1873.1510475673917
1889.260352776333 1638.3282390798688
1889.9484593632042 1661.0811265713123
1890.63640007082 1569.1960336769027
1891.3241749405151 1683.4785675308144
1892.0117840135954 1677.6888361463248
1892.6992273313572 1602.7252435402545
1893.3865049350788 1636.4207455608862
1894.0736168660223 1860.0081337026961
1894.7605631654333 1717.3567898451304
1895.4473438745408 1528.4485679905442
1896.133959034556 1723.3690097373778
1896.820408686679 1547.5819172923889
1897.506692872088 1723.6650847242356
1898.192811631945 1697.5519702754368
1898.8787650073991 1639.7882756711188
1899.5645530395832 1821.707006193606
1900.2501757696118 1917.0661296126552
1900.9356332385796 1567.945699790532
1901.620925487574 1888.3404588447586
1902.3060525576602 1762.104825846592
1902.9910144898859 1712.9573414100414
1903.6758113252872 1510.1599850322298
1904.3604431048789 1647.3994385115948
1905.0449098696663 1584.5210770863719
1905.7292116606295 1661.989821891045
1906.4133485187394 1718.6196334232159
1907.0973204849488 1351.1623266355464
1907.7811276001976 1569.5003202979728
1908.4647699053967 1650.8279679862965
1909.1482474414588 1613.957552986003
1909.8315602492694 1620.9956999404064
1910.5147083696957 1779.5421657114232
1911.1976918436012 1656.9040987526037
1911.880510711815 1675.6947317361391
1912.5631650151681 1667.7377354725973
1913.2456547944657 1650.5076909798881
1913.927980090495 1661.8184721584653
1914.6101409440362 1689.7583597302935
1915.2921373958416 1601.390389698303
1915.9739694866603 1695.9125728514239
1916.655637257214 1887.7169284981476
1917.3371407482136 1599.4370031564863
1918.0184800003572 1779.414047579085
1918.6996550543154 1703.7683761868484
1919.3806659507554 1714.2097795942198
1920.0615127303208 1799.7583748963448
1920.7421954336423 1809.1644060011506
1921.4227141013343 1745.102246484053
1922.103068773993 1583.3210779945648
1922.783259492202 1663.246218394733
1923.4632862965227 1483.6364289186108
1924.1431492275078 1467.7996996219322
1924.8228483256917 1602.9987899799285
1925.5023836315922 1659.1908214543987
1926.1817551857057 1435.522853581539
1926.8609630285227 1771.1008118783836
1927.5400072005123 1632.3709505811482
1928.218887742125 1549.6295360333072
1928.8976046938005 1440.6034677456387
1929.5761580959588 1611.811496187112
1930.2545479890086 1656.7726948886175
1930.9327744133352 1411.5300162399974
1931.6108374093164 1602.316518765388
1932.2887370173066 1474.220114144448
1932.9664732776473 1730.5682989413642
1933.6440462306673 1617.3329100262906
1934.3214559166754 1534.9738737899393
1934.9987023759659 1652.979188700785
1935.675785648813 1632.9155205098386
1936.3527057754836 1732.7483298970296
1937.029462796223 1441.7590763542062
1937.70605675126 1561.1334152978948
1938.3824876808085 1582.8322792518973
1939.058755625072 1380.8251474369526
1939.7348606242267 1513.9717975489934
1940.4108027184448 1521.4440500184826
1941.0865819478713 1791.716453726495
1941.7621983526478 1493.3765360392047
1942.4376519728921 1375.3568051550014
1943.1129428487038 1571.5473481750878
1943.7880710201734 1513.764989284778
1944.4630365273733 1761.3900286953085
1945.1378394103576 1301.4966129562267
1945.8124797091714 1302.810076306217
1946.4869574638324 1304.08058496295
1947.161272714353 1466.4291746243734
1947.8354255007234 1603.9379208215914
1948.5094158629272 1528.0685050497254
1949.1832438409183 1616.5057556178228
1949.8569094746435 1626.668535397421
1950.530412804037 1677.5480062468985
1951.2037538690092 1684.8639633772787
1951.8769327094578 1392.1812460090243
1952.5499493652678 1566.3264680814589
1953.222803876306 1576.3515471242067
1953.895496282421 1585.3466891851326
1954.5680266234522 1344.953571924319
1955.2403949392155 1621.656293321766
1955.9126012695142 1347.697182410504
1956.5846456541403 1573.9611621709337
1957.2565281328643 1491.9835607947578
1957.9282487454457 1624.904272277143
1958.5998075316202 1835.3248673227579
1959.27120453112 1663.523670111433
1959.9424397836501 1451.3548089436601
1960.613513328908 1690.697334499384
1961.2844252065697 1644.970309795023
1961.9551754563017 1637.4087535531103
1962.6257641177453 1363.541559587265
1963.29619123054 1449.0164902304496
1963.966456834296 1406.6522172334166
1964.6365609686181 1283.4726767809914
1965.306503673086 1327.5234108596069
1965.976284987275 1371.5874855385093
1966.645904950734 1389.0413056664208
1967.315363603002 1393.6421264732749
1967.9846609836077 1539.2829558574708
1968.6537971320486 1666.2106312345136
1969.3227720878222 1478.1687018259204
1969.9915858904042 1303.8058779201206
1970.660238579252 1631.2908243517672
1971.3287301938108 1572.6302846894341
1971.997060773514 1339.0258224015902
1972.665230357772 1455.625527474954
1973.3332389859843 1395.2906166074256
1974.0010866975335 1459.8632705361988
1974.6687735317864 1543.4636933387542
1975.3362995280932 1641.1080378763832
1976.003664725793 1486.4649335335523
1976.6708691642052 1507.478569762143
1977.3379128826364 1528.4014546317235
1978.004795920373 1616.9558226987583
1978.6715183166925 1761.3386101233814
1979.3380801108524 1365.6155287112051
1980.0044813420973 1526.0156922707422
1980.6707220496555 1413.2387362073327
1981.3368022727373 1309.4021745104665
1982.0027220505417 1317.468252880908
1982.66848142225 1325.6504706196044
1983.3340804270283 1443.090678335883
1983.999519104027 1527.7364043042369
1984.6647974923835 1713.9223135017696
1985.329915631215 1552.917298063529
1985.99487355963 1539.3473676624697
1986.6596713167146 1605.1888281095175
1987.3243089415428 1524.0180123903365
1987.9887864731754 1629.171458803369
1988.6531039506553 1657.2927550892455
1989.3172614130071 1685.4707005011733
1989.9812588992481 1532.2944959370195
1990.645096448372 1438.5621586028994
1991.3087740993633 1534.035158957658
1991.9722918911848 1356.0590476908194
1992.635649862792 1448.624829441873
1993.2988480531185 1548.5024938979336
1993.9618865010852 1442.8021326159487
1994.6247652455968 1336.9518738064628
1995.287484325545 1304.7924799448374
1995.9500437798033 1323.6119399841712
1996.6124436472292 1342.5278686464587
1997.2746839666706 1551.6409356734944
1997.936764776954 1554.54655610716
1998.598686116895 1538.9973097877223
1999.2604480252903 1442.8455308125942
1999.9220505409212 1346.4141196714666
2000.5834937025593 1422.9322856675585
2001.2447775489582 1509.8070272205919
2001.9059021188514 1467.9634073436293
2002.5668674509616 1423.8539119618836
2003.2276735839987 1411.5389415778775
2003.8883205566508 1668.6158466456523
2004.5488084075987 1400.0661401744223
2005.2091371755014 1344.1582590835217
2005.8693068990033 1497.2432563515235
2006.5293176167397 1566.7968126667463
2007.1891693673224 1359.8687369438053
2007.848862189354 1294.8118586978114
2008.5083961214223 1521.586918447297
2009.1677712020955 1392.3184200548662
2009.8269874699254 1285.7401582162843
2010.4860449634598 1311.3608218940828
2011.1449437212177 1337.1259500934525
2011.8036837817108 1595.0836455142494
2012.4622651834325 1653.9218735961506
2013.1206879648653 1621.794711758328
2013.7789521644736 1476.7427171259371
2014.4370578207036 1331.2578113079119
2015.0950049719922 1382.77635195617
2015.7527936567585 1594.7319898339347
2016.4104239134067 1524.1838436160322
2017.067895780323 1802.4420766459684
2017.725209295886 1739.8261097405666
2018.3823644984514 1676.9934178486067
2019.0393614263648 1451.9763244672934
2019.6962001179545 1208.2477978060592
2020.3528806115355 1466.5533592738025
2021.0094029454067 1257.3816579403401
2021.6657671578487 1334.9377523763328
2022.321973287133 1409.5475573210726
2022.9780213715148 1451.2335738476834
2023.6339114492293 1513.5059376076401
2024.2896435585026 1576.0617242886638
2024.9452177375442 1340.820210684034
2025.600634024544 1652.4342626619691
2026.2558924576842 1561.3157147515053
2026.9109930751292 1558.5969582789007
2027.565935915025 1602.996708488648
2028.2207210155066 1647.529242830801
2028.8753484146964 1622.0496646799238
2029.529818150695 1332.8906042864746
2030.1841302615903 1538.9734874388128
2030.8382847854573 1243.0869723820892
2031.4922817603601 1405.633826013493
2032.1461212243357 1541.0695571256956
2032.7998032154192 1206.2167990031928
2033.4533277716218 1407.2518089298476
2034.1066949309443 1395.3735337268008
2034.7599047313688 1609.876415475545
2035.4129572108704 1628.7402629667633
2036.0658524074006 1737.8989674055078
2036.7185903589016 1430.6203694550557
2037.3711711032956 1516.7176131000138
2038.023594678496 1516.9618694935994
2038.675861122394 1392.477203556568
2039.3279704728757 1535.611564281273
2039.9799227678031 1262.733196316252
2040.6317180450278 1401.8379041709936
2041.2833563423865 1474.710318032843
2041.9348376977014 1335.3843875446905
2042.5861621487784 1411.6264046044473
2043.2373297334088 1456.7446154178322
2043.8883404893695 1465.0166377284363
2044.5391944544208 1498.8521126328085
2045.1898916663158 1429.7552081677989
2045.8404321627804 1562.8999186801307
2046.4908159815368 1387.1097850867638
2047.1410431602853 1206.4934775858997
2047.7911137367173 1399.9494618387582
2048.441027748504 1325.5178088386094
2049.090785233302 1250.9646771387986
2049.7403862287592 1266.115609262159
2050.389830772503 1188.6476823792923
2051.0391189021466 1111.1404057706063
2051.688250655294 1426.4817918486945
2052.337226069527 1292.3647726233771
2052.986045182417 1608.395154146602
2053.634708031521 1294.2309240922514
2054.283214654375 1559.1024268573015
2054.931565088511 1325.7717850214008
2055.579759371436 1395.8162629695773
2056.2277975406523 1396.9673334213599
2056.8756796336384 1554.0813637308236
2057.5234056878617 1229.081107110595
2058.1709757407752 1216.0672558237159
2058.8183898298194 1273.0975782654614
2059.465647992416 1427.4449085896538
2060.1127502659747 1469.5656181852933
2060.759696687888 1355.2680818298759
2061.4064872955405 1551.4816780523063
2062.053122126292 1617.4598846108959
2062.699601217497 1299.2314453279419
2063.345924606485 1448.1487698519888
2063.992092330587 1472.458178924839
2064.638104427102 1450.3207043307561
2065.283960933324 1556.4911215236675
2065.92966188653 1596.8959224811674
2066.5752073239855 1536.2216134230798
2067.2205972829397 1236.7871041836127
2067.86583180062 1373.8043486557249
2068.5109109142522 1323.2283765821583
2069.15583466104 1381.8964442400713
2069.8006030781708 1440.6205171474012
2070.445216202821 1411.6620429977913
2071.089674072153 1669.9127630563733
2071.7339767233116 1408.381233398774
2072.3781241934303 1444.4005656907393
2073.0221165196253 1537.557587761948
2073.6659537390024 1328.2155984088154
2074.3096358886505 1226.6840875662838
2074.953163005637 1426.3640898596873
2075.596535127028 1306.5515547732668
2076.2397522898664 1334.864147773604
2076.882814531182 1480.0650423468783
2077.5257218879924 1635.7661190930896
2078.1684743973 1267.4630298971729
2078.8110720960885 1090.3500357444595
2079.453515021336 1248.3365913570196
2080.095803209997 1406.4730943940726
2080.7379366990135 1419.8762420894866
2081.37991552532 1282.568994508495
2082.0217397258275 1401.7484832122987
2082.6634093374414 1242.4155700902509
2083.3049243970418 1346.7918566489493
2083.9462849415067 1426.020237874274
2084.587491007689 1455.8612388404495
2085.2285426324324 1540.1209167449429
2085.869439852564 1480.1700308735876
2086.510182704902 1468.1565622320813
2087.1507712262483 1456.1275985436819
2087.791205453381 1358.9012651265934
2088.4314854230743 1460.9051581475012
2089.0716111720867 1221.8995459741093
2089.7115827371617 1286.7875783706722
2090.351400155023 1265.2319956754034
2090.991063462385 1243.7023475042784
2091.6305726959527 1341.5704290012566
2092.2699278924047 1246.7685363349055
2092.9091290884153 1494.3279942197387
2093.548176320641 1372.7011296207595
2094.187069625721 1543.7892566480764
2094.8258090402887 1271.5113396110232
2095.464394600951 1303.3844789688487
2096.102826344313 1422.162292267879
2096.741104306955 1538.863001850747
2097.379228525453 1190.1254631342676
2098.017199036358 1280.925944355655
2098.6550158762147 1325.3583703118277
2099.2926790815527 1369.874466236376
2099.9301886888825 1572.1521998970518
2100.5675447347076 1431.9345057909427
2101.2047472555114 1621.659671070241
2101.841796287761 1410.0924265548426
2102.47869186792 1294.1636885336166
2103.1154340324265 1261.12494597235
2103.752022817709 1372.4623954218885
2104.388458260184 1484.0531148049743
2105.024740396251 1591.7365514574676
2105.660869262292 1577.4239741360082
2106.296844894685 1563.1060155259872
2106.93266732978 1373.6495151757213
2107.5683366039284 1064.0847699496787
2108.2038527534532 1163.652390683096
2108.8392158146726 1313.2839531266386
2109.4744258238843 1463.3155381035183
2110.1094828173755 1336.4702752476778
2110.744386831422 1641.7372312785815
2111.3791379022787 1409.9140623136802
2112.01373606619 1336.9065831608953
2112.648181359389 1338.6749580366163
2113.28247381809 1415.4944432961947
2113.916613478492 1418.502536886682
2114.550600376786 1478.498080478959
2115.1844345491445 1576.2267836073147
2115.818116031729 1486.7226081114975
2116.451644860679 1396.9368387058196
2117.085021072133 1177.6663169785024
2117.718244702204 1264.1976402843268
2118.3513157869984 1336.1680656491767
2118.984234362604 1283.5171246893638
2119.617000465092 1395.8854721926596
2120.249614130529 1565.9453627569405
2120.8820753949585 1431.1720422531162
2121.5143842944162 1317.0763072921977
2122.14654086492 1213.9196150027765
2122.7785451424734 1460.8485569091958
2123.4103971630702 1198.015543292457
2124.042096962681 1413.7539945430594
2124.6736445772767 1292.2949418651763
2125.305040042802 1210.088802029931
2125.936283395191 1442.9543493028716
2126.567374670365 1406.46498694878
2127.198313904233 1270.5870739840154
2127.8291011326855 1287.502419425749
2128.4597363916037 1304.300155058963
2129.0902197168507 1269.3861289699262
2129.720551144279 1142.2214595126613
2130.3507307097225 1472.9893147594057
2130.980758449008 1475.1807747433836
2131.6106343979427 1269.1030023242272
2132.2403585923203 1594.0912154116504
2132.8699310679276 1512.5247567501224
2133.499351860526 1357.1862365311322
2134.1286210058715 1541.4732869905451
2134.7577385397053 1351.0443050052922
2135.3867044977487 1329.2921498188912
2136.0155189157176 1445.2370731197973
2136.644181829308 1442.474457325726
2137.2726932742025 1495.5579992710282
2137.901053286074 1548.8041871811865
2138.5292619005777 1373.1387985682657
2139.1573191533535 1340.4251797205657
2139.7852250800315 1624.5455528578054
2140.4129797162295 1396.986994983356
2141.0405830975433 1045.5743041907176
2141.6680352595613 1084.3968553150103
2142.2953362378576 1123.306129277209
2142.9224860679915 1270.9512036866734
2143.549484785508 1152.0570159554993
2144.1763324259373 1263.3057357872874
2144.803029024799 1374.7316865579805
2145.429574617594 1316.3597620124985
2146.0559692398165 1210.8360873161128
2146.682212926942 1105.046600226007
2147.308305714432 1250.681181549196
2147.9342476377333 1410.4175812380277
2148.5600387322847 1198.728199581503
2149.185679033506 1386.6292523033865
2149.8111685768017 1350.6032605300807
2150.4365073975678 1340.1498411347247
2151.061695531187 1370.6636003830827
2151.686733013021 1356.6537463367342
2152.311619878423 1245.5189957269863
2152.9363561627342 1251.9395748143575
2153.560941901278 1122.497904917168
2154.1853771293663 1219.7228749176163
2154.809661882293 1486.4026179577188
2155.433796195348 1461.704645115503
2156.0577801037944 1295.4267673301304
2156.681613642895 1481.1396821148483
2157.3052968478896 1441.1870212928052
2157.928829754006 1401.1858615144718
2158.552212396462 1404.3207246421985
2159.1754448104566 1247.8719042299867
2159.7985270311783 1119.7300789680241
2160.4214590938027 1089.5380367138664
2161.0442410334927 1215.54696518735
2161.6668728853874 1339.2765902971962
2162.289354684628 1199.5823565137177
2162.911686466332 1291.2470296727147
2163.533868265602 1447.8044571083763
2164.1559001175337 1583.8458449097868
2164.7777820572046 1487.8545885695326
2165.399514119681 1156.6864459398407
2166.021096340013 1149.787328813533
2166.6425287532384 1232.6165243014207
2167.263811394385 1315.653395230865
2167.8849442984574 1428.9060135094874
2168.505927500455 1241.325936811668
2169.126761035366 1287.1395329778572
2169.7474449381552 1203.7920396433415
2170.367979243778 1074.5097123537541
2170.9883639871823 1431.1478913124163
2171.608599203293 1381.9414982759376
2172.2286849270276 1634.8362252538734
2172.8486211932886 1631.748884576035
2173.4684080369625 1300.5005206109656
2174.0880454929265 1201.874111124676
2174.7075335960417 1198.0865657660672
2175.3268723811543 1465.4197415552976
2175.9460618831 1262.0122241723802
2176.565102136701 1245.073851022596
2177.1839931767627 1260.6488174220765
2177.802735038078 1276.2830519215909
2178.421327755432 1235.3789066434047
2179.0397713635866 1271.6553277575717
2179.658065897298 1081.0846577693628
2180.276211391305 924.7273098153725
2180.8942078803357 1204.0964493615134
2181.5120553991 1244.3074743710417
2182.129753982299 1167.921162961488
2182.7473036646206 1288.7021803086607
2183.3647044807367 1200.1354083030096
2183.9819564653044 1154.4646858978517
2184.599059652968 1499.4044538187684
2185.216014078367 1450.0008250742994
2185.832819776113 1413.9478978076588
2186.4494767808137 1377.7284887814162
2187.065985127063 1352.1370756807853
2187.682344849436 1478.1016667255492
2188.298555982501 1313.3053102789204
2188.9146185608097 1509.1421439529402
2189.530532618901 1283.5307888200362
2190.1462981912937 1317.1920898984738
2190.761915312507 1318.2995955809686
2191.377384017036 1240.4877833324338
2191.9927043393654 1388.8411148068697
2192.6078763139667 1065.4954079652111
2193.2228999753006 1038.5659965590933
2193.837775357808 1011.6003620616655
2194.452502495922 1072.8440287061817
2195.0670814240602 1267.0802421703436
2195.6815121766285 1194.3151662574894
2196.2957947880186 1465.915660094219
2196.9099292926057 1312.1394538696916
2197.523915724758 1452.402677396913
2198.137754118825 1356.1889839933042
2198.7514445091456 1253.6178295474024
2199.3649869300443 1525.5216629287138
2199.9783814158327 1387.1049746011477
2200.5916280008096 1367.3600827459945
2201.2047267192593 1347.5971690045894
2201.8176776054515 1270.2525571254123
2202.430480693649 1244.1014059818497
2203.0431360180955 1305.489412728658
2203.6556436130195 1340.6186542001635
2204.268003512645 1233.697364623267
2204.8802157511727 1520.197898102726
2205.492280362796 1666.3847317265634
2206.1041973816937 1185.8253036891651
2206.715966842032 1456.7675400795345
2207.3275887779655 1141.5148376198238
2207.93906322363 1287.8363503483106
2208.550390213153 1209.1250979209342
2209.1615697806465 1193.4404959097606
2209.7726019602105 949.0861174801328
2210.3834867859277 986.4356892623533
2210.9942242918787 1393.640161038873
2211.6048145121167 1158.3698381155052
2212.2152574806914 1673.2679725868995
2212.825553231638 1247.005061924664
2213.435701798975 1278.7397641495168
2214.045703216707 1310.648677747271
2214.655557518832 1035.413124744743
2215.2652647393297 1176.6900074414075
2215.874824912169 1213.3917151204287
2216.4842380713 1250.3170543433293
2217.09350425067 1408.3453266446702
2217.7026234842033 1412.2707785213918
2218.311595805819 1416.1865020348923
2218.9204212494133 1310.8045021795344
2219.52909984888 1438.0963020177203
2220.137631638092 1451.792864581956
2220.7460166509154 1465.4257447958903
2221.354254921198 1365.025104613417
2221.9623464827764 1369.1685580262988
2222.5702913694713 1325.905560107851
2223.178089615096 1223.6137124009879
2223.7857412534486 1260.7334663178317
2224.39324631831 1086.156506437023
2225.000604843457 1114.530826264006
2225.607816862641 1405.5445382610944
2226.214882409611 1529.4303972095563
2226.8218015180973 1494.4221910949616
2227.4285742218217 1224.959238386355
2228.0352005544864 1393.5521801612704
2228.6416805497847 1122.1146670104322
2229.248014241399 1154.5745595070143
2229.8542016629945 1056.623651201441
2230.460242848223 1422.652881451528
2231.0661378307304 1504.732664622284
2231.671886644139 1267.5289707397146
2232.277489322065 1124.4922818135578
2232.8829458981127 1116.4892914452419
2233.48825640587 1293.228928723011
2234.0934208789095 1406.15851121576
2234.6984393507955 1468.2791532454814
2235.3033118550793 1599.0316074630023
2235.9080384252975 1347.8443528471985
2236.5126190949723 1045.2363030440338
2237.1170538976166 997.8586341644693
2237.721342866729 891.9339788910768
2238.32548603579 1191.1948022048173
2238.9294834382763 1244.8815827363721
2239.533335107646 1350.6703066138286
2240.1370410773434 1119.2294199332493
2240.740601380803 1255.1626520387997
2241.3440160514474 1150.3753329622532
2241.9472851226783 1083.6705399396633
2242.550408627896 1289.120975118236
2243.1533866004793 1151.0279846510807
2243.756219073799 1348.8168493674711
2244.3589060812064 1072.622991171025
2244.961447656049 1241.929908689188
2245.5638438316564 1328.0603751243873
2246.166094641343 1127.3670964247283
2246.7682001184166 1220.28044524211
2247.3701602961664 1240.7578517859686
2247.971975207871 1332.501508743802
2248.5736448867974 1280.3249594447188
2249.175169366197 1166.298822843965
2249.7765486793123 1051.9999753440798
2250.3777828593684 1209.212188606611
2250.9788719395783 1430.6687628501627
2251.579815953146 1292.9567863115442
2252.1806149332606 1053.5307468952558
2252.781268913097 1199.0138337195551
2253.381777925817 1007.0023685098131
2253.9821420045737 1311.0931597995261
2254.5823611825035 1437.5687153308654
2255.1824354927303 1252.8846267456731
2255.782364968365 1161.6114786835958
2256.38214964251 1070.2481981172048
2256.9817895482483 1141.5454856847036
2257.5812847186553 1343.5965382874826
2258.180635186791 1334.9212281470611
2258.779840985704 1326.2762502849903
2259.37890214843 1366.5642818208598
2259.97781870799 1196.0538452352625
2260.5765906973957 1411.977993728182
2261.175218149645 1139.3455521629144
2261.773701097718 1077.6653414550678
2262.3720395745895 1015.8498701781397
2262.970233613216 1078.7112181311672
2263.568283246548 1049.2711847439507
2264.1661885075137 1115.2023817657462
2264.763949429038 1328.2748218277488
2265.3615660440246 1125.8711768340142
2265.959038385374 1198.0223890287366
2266.5563664859637 1108.479426730666
2267.153550378669 1288.7760279178947
2267.7505900963424 1217.564430768561
2268.3474856718312 1153.1694549779843
2268.9442371379664 988.0908182389842
2269.5408445275643 1062.3765924809895
2270.1373078734377 1266.7322937308495
2270.7336272083758 1159.4771764051034
2271.32980256516 1306.1753808251829
2271.925833976562 1241.6132019241081
2272.5217214753357 1245.9380768812175
2273.117465094223 1128.9083657405654
2273.7130648659586 1237.6372161027487
2274.308520823257 1237.3074694758047
2274.903832998827 1508.0908412733372
2275.4990014253563 1258.2153081069905
2276.094026135528 1572.7194273036266
2276.6889071620117 1470.6581128242951
2277.2836445374614 1368.3475058577956
2277.878238294519 1197.7024836372232
2278.472688465812 1161.4602582681816
2279.066995083962 1125.1242330375594
2279.6611581815705 1226.7542805680039
2280.255177791232 1393.7439434433365
2280.8490539455233 1561.0503654653608
2281.442786677013 1434.9057724966601
2282.0363760182554 1534.2613555544144
2282.6298220017943 1461.7993503544037
2283.223124660155 1389.2799513749676
2283.816284025859 1087.9961026959347
2284.4093001314086 985.3274610691903
2285.002173009292 882.4402856121017
2285.5949026919952 1284.4903485127968
2286.1874892119777 1027.2113756161216
2286.7799326016993 1262.2866256592256
2287.3722328936 1010.5768422137326
2287.964390120109 1145.2922588091578
2288.556404313642 1105.395047377168
2289.1482755066027 1133.1243480391772
2289.7400037313873 1160.8503974960179
2290.3315890203703 1157.026790698681
2290.9230314059205 1079.7491152296504
2291.5143309203904 1002.3797237007672
2292.1054875961236 1250.1145704859462
2292.6965014654506 1309.8875230207902
2293.287372560684 1117.7642970081242
2293.878100914131 1224.4838303509673
2294.468686558086 1331.4706984942677
2295.059129524827 1223.1865222388321
2295.649429846617 1361.4693807432238
2296.239587555716 1488.8542954782827
2296.8296026843636 1217.5056580274218
2297.419475264791 1451.8697965912381
2298.0092053292137 1310.8965701244297
2298.598792909839 1505.5930002537955
2299.1882380388597 1583.6142427932796
2299.777540748455 1661.6441513041186
2300.3667010707904 1366.0840719358903
2300.9557190380256 1280.2506113765141
2301.544594682302 1566.6741397981855
2302.1333280357503 1463.9143233234329
2302.721919130485 1361.0698779953932
2303.3103679986198 1379.5852650721486
2303.898674672242 1452.963319555798
2304.486839183437 1404.2385024189484
2305.0748615642697 1355.5946853995242
2305.6627418468015 1142.4029522147744
2306.2504800630704 1206.6715391685225
2306.8380762451143 1277.5900877367167
2307.425530424949 1279.8691070673128
2308.012842634582 1282.143387762661
2308.6000129060103 1238.1632877687516
2309.187041271214 1284.2521469673634
2309.773927762164 1330.4696351579094
2310.3606724108213 1190.3759326378838
2310.9472752491274 1074.4310902939799
2311.5337363090184 1212.8809101565569
2312.120055622414 1248.7136764266418
2312.706233221221 1063.713590484002
2313.2922691373424 1055.199993896077
2313.8781634026564 1093.4074083463024
2314.463916049037 1131.691387283612
2315.049527108342 1159.361013044596
2315.6349966124235 1373.1193894062424
2316.2203245931123 1331.8589991056908
2316.8055110822315 1047.88767909465
2317.3905561115935 1253.9178208612082
2317.9754597129977 1109.7707035508743
2318.560221918229 1289.839277896536
2319.1448427590603 1380.8311021973202
2319.729322267256 1387.447569883666
2320.313660474563 1394.1510310351753
2320.8978574127195 1713.7510316558764
2321.481913113452 1189.580286659289
2322.0658276084705 1001.0369133948941
2322.6496009294806 1149.4811360546403
2323.233233108165 1412.1264799762898
2323.8167241762058 1278.3984344856565
2324.4000741652617 1328.8017661114827
2324.983283106987 1369.166662849082
2325.5663510330232 1409.5032630080018
2326.1492779749933 1458.1865433903215
2326.7320639645204 1149.4712122457408
2327.3147090332004 961.504251883002
2327.897213212629 1037.3222745382382
2328.4795765343843 1113.1657284661424
2329.0617990300307 1034.4111459316707
2329.643880731124 1154.2961708044227
2330.22582166921 1274.3962396805798
2330.807621875816 1500.6153289596637
2331.3892813824623 1050.9702814015372
2331.9708002206517 968.7939223537151
2332.5521784218818 1176.9416372735634
2333.133416017634 1385.5617691043424
2333.7145130393765 1259.3849715931497
2334.295469518571 1253.9283259088431
2334.876285486658 1168.3132511579834
2335.456960975076 1082.5271636921163
2336.037496015242 1451.2629372947654
2336.6178906385667 1208.2058223383337
2337.198144876451 1267.8706372918527
2337.778258760278 1120.1250889545772
2338.3582323214214 1254.5351616547428
2338.938065591243 1389.2261397797051
2339.517758601087 1346.028522349528
2340.0973113822965 1126.9232264949146
2340.676723966193 955.6095752934656
2341.255996384094 1217.3185560629602
2341.835128667295 1457.0832449562201
2342.4141208470883 1290.73392036559
2342.992972954751 1182.93736969901
2343.5716850215467 1056.7055461029918
2344.1502570787306 1233.022588685926
2344.7286891575386 1089.130631860532
2345.3069812892045 1296.9658501996942
2345.885133504944 1395.4348695707185
2346.4631458359618 1438.2334254954817
2347.04101831345 1165.636493159363
2347.6187509685915 1129.750971873486
2348.196343832553 1215.9145815637755
2348.7737969364935 996.7130468483592
2349.351110311558 1151.04488030267
2349.9282839888765 880.8931910150783
2350.5053179995757 1049.4214811737972
2351.0822123747585 899.6837538983345
2351.658967145526 975.7395905873889
2352.2355823429643 1051.980348122665
2352.812057998144 1298.643078664693
2353.3883941421263 1136.5465799534736
2353.9645908059647 1073.5276460028122
2354.540648020693 1010.4195689455728
2355.116565817336 993.8991557368848
2355.6923442269126 1014.4020225160536
2356.2679832804224 1034.9434540556563
2356.8434830088518 1057.2698427318019
2357.41884344318 1240.6551422476152
2357.994064614377 1201.1357721243205
