#exp_cfg={"servo_angle": 0.0, "laser_lim": 100.0, "servo_angle_to": 18.0, "laser_wup": 0.0, "bt_dev": "EnSpectr-25AE3", "laser_wdn_max": 0.0, "frames": 10.0, "servo_used": 0, "servo_calib_use": 0, "laser_wdn_min": 0.0, "servo_pix_from": 90.0, "cooler_tout": 300.0, "servo_angle_from": 0.0, "servo_calib": "[-1.9174921013161362e-09, 3.9322238269163779e-05, -0.27385609119055809, 653.59552119713567]", "laser_autoctl": 0, "servo_pix_to": 3682.0, "laser_pw": 100.0, "cooler_on": 0, "laser_volt": 4.0, "cooler_autoctl": 0, "cooler_curr": 70.0, "cooler_startup": 10.0, "laser_fixed_pw": 0, "gain": 1.3, "offset": 2.53059635486, "servo_calib_degree": 3.0, "laser_curr": 55.0, "shutter": 8200.0, "servo_calib_step": 1.0, "laser_fixed_curr": 0, "exp": 2000.0, "ccd_volt": 4.7, "bt_addr": "00:06:66:62:5A:E3", "servo_delay": 500.0, "laser_autooff": 1}
#proc_cfg={"flat_auto_wnd": 200.0, "flat_auto_fr": 200.0, "flat_auto_shift": 5.0, "yconv": 1, "flatten": 1, "flatten_strength": 100.0, "xfrom": 300.0, "auto_max_frame": 2000.0, "auto_signal": 48000.0, "flat_auto_tol": 0.1, "autoclip": 1, "xrel_range": 0.0, "flat_auto_to": 4000.0, "intensity_adj": 1.0, "xrel": 7852.0, "rmhot": 1, "flat_auto_slit": 4.999999999999997, "auto_ini_exp": 300.0, "auto_off": 0, "xto": 2860.0, "flat_auto_ref": "", "flat_auto_rank": 1, "autobackg": 0, "xrel_adj": 0.0, "auto_black_lvl": 1, "base_wnd": 100.0, "sub_baseline": 0, "xconv": 2, "auto_max_exp": 1000.0, "auto_total_exp": 10000.0, "auto_exp": 0, "rmripple": 0, "black_lvl": 8241.175, "shutter_clip_adj": 0.0, "auto_bckg": 0, "flat_auto_thr": 0.9, "subbackg": 1}
316.8218498245369 9012.45455839538
317.89969571804795 8858.267870429234
318.977263876126 8741.006371770145
320.05455438786703 8702.411670122843
321.1315673423287 8735.160226331824
322.2083028285215 8700.002894898766
323.2847609354267 8630.81123077364
324.3609417519747 8642.057336916481
325.43684536705587 8578.285894534372
326.5124718695279 8556.252378648709
327.58782134820103 8623.263514910603
328.66289389184385 8554.900361309661
329.7376895891921 8419.214211195498
330.8122085289342 8488.42350484662
331.88645079971866 8469.758894032675
332.9604164901575 8409.357852899078
334.03410568881554 8421.245315320619
335.1075184842266 8490.440716292751
336.18065496487543 8311.322570563147
337.2535152192122 8294.053055972247
338.32609933564163 8375.834308889021
339.39840740253203 8309.39230870029
340.4704395082099 8179.617563047805
341.5421957409617 8276.783007022535
342.6136761890357 8301.116555438835
343.6848809406365 8228.38284003021
344.75581008392874 8140.62176553615
345.82646370703696 8152.450908627131
346.8968418980512 8169.75763978531
347.96694474501055 8166.353970910454
349.0367723359268 8154.32971558253
350.106324758759 8120.668084602871
351.1756021014353 8100.086530057398
352.2446044518383 8098.9079140851
353.31333189781435 8119.245810263461
354.38178452716966 8107.687279651432
355.449962427665 8108.871559861391
356.51786568702846 8091.304013127749
357.58549439294256 8180.3219845317535
358.6528486330535 8176.8065094584545
359.71992849496564 8102.565807117857
360.7867340662433 8067.916690127146
361.8532654344144 8077.221928529715
362.9195226869597 8097.8745553304425
363.9855059113288 7841.539853086872
365.05121519492604 7990.092439239886
366.11665062511565 8050.687417580048
367.1818122892273 8034.878628907531
368.2467002745434 7903.6635927569805
369.31131466831175 7965.022967323917
370.375655557742 7993.628345995754
371.4397230299983 8000.874767118567
372.5035171722102 7874.789921311391
373.5670380714637 7905.586756342568
374.6302858148101 8031.37660962968
375.6932604892554 7984.666603260807
376.7559621817709 7984.546472966048
377.81839097928605 7868.584922302864
378.8805469686886 7919.678298697354
379.94243023683157 7907.617672512407
381.0040408705263 7893.103436341671
382.0653789565458 7862.719758100905
383.1264445816196 7947.284935261084
384.1872378324406 7862.095349474305
385.2477587956637 7891.656078623897
386.3080075579037 7842.605747233318
387.3679842057336 7866.631208870023
388.4276888256918 7765.092874426428
389.48712150426945 7836.596884451006
390.54628232792857 7769.807816456223
391.6051713830857 7817.823853335312
392.66378875611736 7869.911265932431
393.7221345333637 7817.95091496986
394.7802088011249 7805.480649126625
395.838011645661 7801.301056485972
396.89554315319765 7756.986652986423
397.9528034099112 7741.179381415974
399.00979250194723 7720.66813199076
400.06651051541485 7710.935701988991
401.1229575363741 7686.929609385676
402.17913365085224 7651.465628236423
403.23503894483656 7699.473983055801
404.2906735042761 7621.473138892691
405.3460374150818 7562.500708381791
406.401130763119 7605.573338630631
407.455953634224 7609.436635488632
408.5105061141876 7573.113384479004
409.56478828876243 7438.582383868756
410.6188002436629 7508.460222376964
411.6725420645689 7481.41525853082
412.72601383711117 7504.958710031092
413.77921564689314 7586.022057089965
414.8321475794728 7521.309590357712
415.88480972036814 7467.93647585664
416.93720215506437 7543.684909455367
417.9893249690049 7493.125406192938
419.04117824759123 7372.749309303627
420.09276207619223 7361.4703695925145
421.144076540133 7399.868483248732
422.1951217247042 7403.225043187122
423.24589771515275 7333.552324793139
424.2964045966928 7328.567556903191
425.34664245449494 7333.811105296059
426.3966113736933 7317.070013591363
427.4463114393875 7296.483186416013
428.49574273662984 7243.3343909532905
429.5449053504417 7226.268019912759
430.5937993658026 7295.415824729442
431.6424248676558 7153.589575362968
432.6907819409007 7195.824701170092
433.73887067040596 7172.696720973072
434.7866911409965 7229.779601243358
435.8342434374608 7116.873332352302
436.88152764455117 7110.154679572882
437.9285438469724 7097.517413254151
438.9752921294057 6997.136988084446
440.02177257648145 7072.336926284484
441.06798527279716 7027.033766609937
442.1139303029122 7012.089517770978
443.1596077513459 7002.657753623466
444.2050177025794 7052.544915357376
445.25016024105753 7064.6270235739385
446.2950354511886 7028.887044454003
447.33964341733736 7006.670076794893
448.383984223834 6935.079383216539
449.4280579549686 6963.547469075811
450.471864694995 6966.955182375272
451.5154045281306 7020.687661990701
452.5586775385509 6894.832574434593
453.60168381039693 7029.266046618186
454.64442342776783 7011.401746037763
455.6868964747264 6988.451364661172
456.7291030353008 6995.354606068962
457.77104319347563 6987.427805977485
458.8127170332027 6986.693356967774
459.854124638392 6964.0245081732255
460.895266092919 7026.038479209999
461.93614148061897 7047.00192367283
462.97675088529104 7079.713512252061
464.01709439069236 7056.772644114954
465.0571720805492 7062.836756011838
466.0969840385442 7015.634580980693
467.1365303483253 7115.6835973656025
468.17581109350067 7100.354175187586
469.2148263576437 6996.973818153751
470.2535762242878 7108.766849350332
471.29206077693016 7135.356247330195
472.33028009902773 7148.54880683539
473.3682342740012 7161.634139508105
474.40592338523857 7166.527465208678
475.4433475160804 7203.777031075797
476.4805067498364 7219.844458332953
477.51740116978 7266.494297126841
478.5540308591426 7305.540163862158
479.59039590112116 7332.610185533258
480.6264963788726 7371.621202504891
481.6623323755193 7457.56789818873
482.6979039741436 7473.786104382792
483.7332112577915 7529.368689062141
484.76825430947247 7650.287143990002
485.80303321215797 7782.4117461945525
486.837548048783 7793.526350046876
487.8717989022425 8001.416345862583
488.90578585539697 7987.11178442295
489.9395089910686 8091.865144291607
490.97296839203955 8071.606521892159
492.00616414106116 8008.59290141697
493.0390963208429 8005.085990778362
494.0717650140559 8021.359617630844
495.10417030333883 8011.9055247118495
496.1363122712901 8035.607070633852
497.16819100046814 7900.344897005688
498.1998065734024 7851.461305918972
499.2311590725767 7706.691462415596
500.26224858044407 7699.534841280665
501.2930751794156 7537.014024407569
502.3236389518679 7514.837411034784
503.35393998014115 7388.060336085187
504.38397834653733 7367.088615498164
505.4137541333221 7296.527617986944
506.4432674227228 7119.010912596874
507.4725182969323 7138.632040954876
508.5015068381035 7067.2607926907485
509.53023312835467 7056.340687974151
510.55869724976765 6989.782790025859
511.58689928438434 6896.009226805507
512.6148393142121 6895.328140610707
513.6425174212218 6957.1185125897
514.6699336873462 6976.099834369816
515.6970881944835 6962.844508839745
516.7239810244901 6976.754755046328
517.7506122591931 6994.208047352198
518.7769819803761 7055.868653201867
519.8030902697901 7057.30204484537
520.8289372091476 7142.523270636862
521.8545228801249 7174.796510874131
522.8798473643619 7146.27786036024
523.9049107434621 7162.982426279901
524.9297130989908 7186.165900545411
525.9542545124805 7133.975803139369
526.9785350654201 7157.552157072874
528.0025548392696 7118.991674815232
529.0263139154504 7146.829827682833
530.0498123753423 7081.992122287134
531.073050300296 7071.10249242806
532.0960277716204 7059.798286460956
533.1187448705896 7035.273611969547
534.1412016784416 6989.768535172983
535.1633982763833 7035.1168161861515
536.1853347455726 7009.856839236729
537.2070111671401 6820.38004969115
538.2284276221817 6859.507182542288
539.2495841917516 6813.501639895109
540.2704809568677 6798.015757930087
541.2911179985167 6747.451801912059
542.3114953976419 6690.186055579584
543.3316132351592 6639.44384119427
544.3514715919409 6599.619647506765
545.3710705488247 6585.43050733343
546.3904101866156 6486.736844038302
547.4094905860784 6558.383063145395
548.4283118279418 6428.947703486863
549.4468739929034 6471.454818258176
550.4651771616191 6389.195375131506
551.4832214147063 6355.649622441522
552.501006832761 6381.880264193655
553.5185334963226 6300.402161394569
554.5358014859103 6414.968458859545
555.5528108820035 6353.398899459952
556.5695617650363 6310.0708361927145
557.5860542154242 6312.035079469414
558.6022883135283 6305.135599443662
559.6182641396881 6349.65744160783
560.6339817741991 6307.636594989207
561.6494412973225 6373.8559316175315
562.6646427892883 6340.880021362829
563.6795863302796 6272.337462412328
564.694272000459 6278.567808974202
565.7086998799423 6301.2294003330735
566.7228700488104 6298.412901390911
567.7367825871115 6303.3490720082345
568.7504375748576 6331.086285001571
569.7638350920224 6292.150952304282
570.7769752185486 6322.070142500283
571.7898580343353 6272.3057840067
572.802483619258 6290.754404316745
573.8148520531431 6309.909522669253
574.8269634157932 6298.219362857088
575.8388177869692 6278.798967321919
576.8504152463938 6263.410358517156
577.8617558737587 6333.6561469748485
578.8728397487175 6301.919152906644
579.883666950891 6351.189252799678
580.8942375598654 6399.312353418379
581.9045516551851 6501.489128585231
582.9146093163617 6630.400321980899
583.924410622878 6578.885287107044
584.9339556541727 6624.507523209851
585.9432444896538 6721.692842412987
586.9522772086875 6742.6095326977575
587.9610538906127 6773.017748317999
588.9695746147318 6652.8621450118735
589.9778394603054 6736.070867988041
590.985848506567 6734.803625716272
591.9936018327098 6712.724825915403
593.0010995178891 6544.670920965165
594.0083416412344 6583.6624155916525
595.0153282818283 6507.999725118676
596.0220595187293 6499.810573745339
597.0285354309508 6415.665605250486
598.0347560974806 6391.5862230052235
599.0407215972609 6287.174075730299
600.0464320092051 6251.446171018666
601.0518874121954 6327.053469359043
602.0570878850685 6233.418775968161
603.062033506636 6250.666915972373
604.0667243556636 6251.463766571707
605.0711605108936 6209.824725172025
606.0753420510264 6349.389928476175
607.0792690547278 6298.115794626516
608.082941600629 6236.537427952269
609.0863597673306 6162.562710740135
610.0895236333909 6213.70043730533
611.0924332773357 6206.603919097011
612.0950887776617 6297.9840717109455
613.0974902128219 6351.764844506593
614.0996376612384 6423.022485461653
615.1015312013005 6445.711648348008
616.1031709113595 6465.164423922407
617.1045568697336 6499.722503314487
618.1056891547069 6585.103015189901
619.1065678445229 6675.437519239713
620.1071930173985 6822.275471660304
621.1075647515099 6840.989609897561
622.1076831250048 6895.7359435032895
623.1075482159849 7057.047032977991
624.1071601025305 7136.926975766963
625.1065188626781 7236.328092189018
626.105624574433 7331.3206060340935
627.1044773157682 7469.628641995878
628.1030771646128 7497.796488576767
629.1014241988742 7605.522495093457
630.0995184964158 7724.809470853013
631.0973601350688 7830.02788895549
632.0949491926294 7968.219815328918
633.0922857468631 7841.541688482803
634.089369875499 7940.297261639906
635.0862016562278 7920.404682094467
636.0827811667077 7891.99878016479
637.0791084845641 7932.652479221089
638.0751836873878 7827.348138016658
639.0710068527369 7821.839400818976
640.0665780581294 7664.6854970786135
641.0618973810506 7554.773173716599
642.0569648989604 7538.411044951374
643.0517806892676 7374.663115761034
644.0463448293649 7324.740444788715
645.040657396592 7207.833052813092
646.0347184682723 7126.544616946312
647.0285281216875 6977.9031727159
648.0220864340772 6890.761523033546
649.0153934826558 6779.306028265839
650.0084493446047 6689.450878565394
651.0012540970674 6590.123454927498
651.9938078171526 6494.1960892559855
652.9861105819346 6456.98689360116
653.9781624684565 6440.289304599105
654.9699635537254 6352.90283031648
655.9615139147136 6351.304195515457
656.9528136283589 6216.324793076887
657.9438627715699 6197.630772783124
658.9346614212154 6168.611358660989
659.925209654135 6034.777057265168
660.9155075471263 6080.167965806488
661.9055551769616 5998.84238520009
662.895352620375 6136.3152684048555
663.8848999540678 6113.259532851427
664.8741972547068 5881.872409626192
665.863244598926 5884.203673443353
666.8520420633213 5982.822338568369
667.8405897244611 5877.451227708308
668.8288876588758 5838.734011646354
669.8169359430613 5876.528284330068
670.8047346534822 5849.958301006479
671.7922838665672 5780.061544004206
672.7795836587156 5846.873409744198
673.766634106285 5820.0086115318645
674.7534352856092 5796.798243925502
675.7399872729766 5801.423166398931
676.7262901446538 5794.890509661776
677.712343976862 5781.967383925859
678.6981488457986 5824.708332238577
679.6837048276229 5766.421416340418
680.6690119984596 5814.155354386477
681.6540704344043 5747.378581819919
682.6388802115107 5782.860899072864
683.6234414058108 5741.580729717813
684.6077540932874 5655.525480704004
685.591818349907 5657.9864105252145
686.575634251587 5608.436267747167
687.5592018742263 5648.590366622409
688.5425212936734 5610.25451788014
689.5255925857564 5643.260641962701
690.5084158262707 5564.338454892531
691.4909910909646 5619.170960406513
692.4733184555644 5542.6857088272245
693.4553979957618 5581.584004765418
694.4372297872123 5496.172438703425
695.4188139055404 5444.952243048765
696.4001504263324 5406.395043453065
697.3812394251509 5498.15273644306
698.3620809775111 5462.561839798185
699.3426751589104 5461.810523353121
700.3230220448004 5405.288085955559
701.3031217106054 5402.248006591208
702.2829742317172 5527.194836368485
703.2625796834873 5395.746853407745
704.2419381412474 5327.324216189791
705.22104968028 5414.604614429016
706.1999143758458 5403.3327030675555
707.178532303169 5396.011284130322
708.1569035374378 5380.076895602308
709.1350281538107 5438.533783129808
710.1129062274158 5331.960957938648
711.0905378333373 5408.821397480385
712.0679230466376 5396.125055509781
713.0450619423427 5487.321939996109
714.0219545954424 5433.302564011147
714.9986010808989 5370.050102151019
715.9750014736292 5464.086792217097
716.9511558485392 5452.792661079074
717.9270642804786 5490.082769350746
718.9027268442787 5472.588653675507
719.8781436147328 5493.625184190032
720.8533146666014 5483.027366519912
721.828240074612 5522.762903249311
722.8029199134635 5479.865208571318
723.7773542578125 5535.095345192061
724.751543182294 5450.3941087535695
725.7254867615029 5469.795654842133
726.6991850700015 5416.414820343942
727.6726381823228 5391.980224951074
728.6458461729599 5400.244208954815
729.6188091163858 5380.514706282707
730.5915270870246 5384.749397516835
731.5640001592856 5312.510842278405
732.536228407529 5375.1674418714565
733.5082119060917 5354.475783980351
734.4799507292755 5302.72755174734
735.4514449513481 5402.866161769602
736.4226946465496 5396.592987991369
737.3936998890786 5461.852329492051
738.3644607531078 5305.240336489485
739.3349773127793 5412.69373724139
740.3052496421951 5332.297598717534
741.27527781543 5318.269110347215
742.2450619065221 5251.933445838633
743.2146019894826 5306.248604403177
744.183898138288 5268.328642687374
745.1529504268801 5222.449568580309
746.1217589291682 5161.41540571181
747.0903237190341 5085.146287440269
748.058644870318 5196.721268371394
749.0267224568397 5140.576894993488
749.994556552374 5053.583507352725
750.9621472306771 5122.308578020556
751.9294945654583 5144.527499561779
752.8965986304011 5117.856518002418
753.8634594991636 5095.114899259359
754.8300772453586 5098.468484622179
755.7964519425768 5075.940327360748
756.762583664371 5159.890081615429
757.7284724842611 5117.272574305476
758.6941184757416 5077.511986017226
759.6595217122667 5114.140795259346
760.6246822672638 5194.715584362991
761.5896002141235 5064.16757300373
762.5542756262093 5137.804225456033
763.5187085768503 5174.134975877742
764.4828991393406 5219.112501430207
765.4468473869474 5158.9787117774495
766.4105533929032 5159.506539953679
767.3740172304078 5135.828067640263
768.3372389726283 5133.401578381936
769.3002186926988 5035.133854671823
770.2629564637282 5037.904278530732
771.2254523587872 5011.281921513628
772.1877064509154 4934.502071019351
773.1497188131179 4897.8433586077135
774.1114895183728 4850.657847649984
775.0730186396268 4848.145525385734
776.0343062497905 4795.68553570971
776.9953524217381 4816.063621536572
777.9561572283274 4887.200385845937
778.9167207423689 4879.323915395946
779.8770430366476 4834.428025302078
780.8371241839159 4825.253613844302
781.7969642568951 4786.851882530687
782.7565633282757 4953.71244708778
783.7159214707099 4822.238088245598
784.6750387568281 4764.3550880891835
785.6339152592227 4806.790544963068
786.5925510504512 4742.499502972379
787.5509462030477 4763.385646000779
788.5091007895098 4786.901947164423
789.4670148823006 4849.233434111531
790.4246885538596 4777.850080350275
791.3821218765861 4750.028699586586
792.3393149228505 4714.84231778313
793.2962677649975 4854.232219704001
794.2529804753303 4822.755311003344
795.20945312613 4830.791707619745
796.1656857896378 4798.678057265761
797.1216785380675 4787.958598852919
798.0774314435985 4838.322089775318
799.0329445783846 4846.089642771735
799.9882180145414 4836.815901643414
800.9432518241574 4839.712107513035
801.89804607929 4918.147947361667
802.852600851962 4955.836522829064
803.8069162141637 4923.001929825125
804.760992237856 5067.560521313108
805.714828994971 4985.707354927247
806.6684265574077 5046.609727945352
807.6217849970271 5042.578809197381
808.574904385674 4984.367461421991
809.527784795142 4999.355658317456
810.4804262972102 5142.412941833368
811.4328289636178 4928.496229896276
812.3849928660748 4888.685130462896
813.3369180762638 4896.2630639718045
814.2886046658241 4860.644278688065
815.2400527063783 4722.647545206641
816.1912622695108 4769.132002704627
817.1422334267718 4756.560295203377
818.0929662496856 4713.728982329755
819.0434608097457 4669.532345611507
819.9937171784059 4573.141713353152
820.9437354271013 4537.905652624968
821.8935156272255 4586.044397882977
822.8430578501484 4482.750299801709
823.7923621672016 4367.23963749362
824.7414286496896 4383.863745489153
825.6902573688876 4437.065472803044
826.6388483960363 4399.771474471813
827.5872018023492 4340.472006395625
828.5353176590033 4439.035175711887
829.4831960371503 4376.697213424485
830.4308370079016 4328.0698064542585
831.3782406423525 4386.696851435419
832.3254070115545 4271.683491648634
833.2723361865319 4250.84370201743
834.2190282382799 4246.25753157021
835.1654832377644 4368.050055346691
836.1117012559116 4263.204738351026
837.0576823636256 4369.98991093692
838.003426631778 4284.619513797947
838.9489341312074 4237.860992441243
839.8942049327197 4286.621905441419
840.8392391070975 4318.261866142736
841.7840367250865 4270.489854604612
842.7285978573982 4226.254372869249
843.672922574724 4238.043760282626
844.6170109477152 4177.560632103446
845.560863046996 4242.802222864768
846.5044789431595 4202.674956142305
847.4478587067697 4247.0909860633365
848.3910024083561 4291.317937096165
849.333910118421 4285.346385489993
850.2765819074339 4186.712881397883
851.2190178458332 4283.536649077215
852.161218004032 4292.376244198161
853.1031824524016 4279.3718994994
854.0449112612987 4290.055247410033
854.9864045010327 4282.665875638833
855.9276622418947 4201.8131093359425
856.8686845541379 4215.740932757755
857.8094715079915 4225.099605880074
858.7500231736467 4265.661243944676
859.690339621271 4246.096818210632
860.6304209209939 4334.775326596478
861.5702671429244 4203.253483222671
862.5098783571284 4307.569871472069
863.4492546336569 4263.401202998464
864.3883960425155 4230.433475371558
865.3273026536863 4259.9500921501985
866.2659745371238 4217.889225094647
867.2044117627465 4298.106749440794
868.1426144004472 4215.963705759298
869.0805825200823 4344.691941380769
870.0183161914847 4372.220859487721
870.9558154844526 4423.05113179263
871.8930804687552 4380.15466712186
872.8301112141307 4355.865652836298
873.7669077902865 4494.965208762853
874.7034702669062 4525.682309737151
875.6397987136315 4452.503364209657
876.5758932000863 4433.488800756815
877.5117537958522 4530.099177948609
878.4473805704911 4452.420072148127
879.3827735935283 4476.705561106709
880.3179329344603 4527.320965276299
881.2528586627541 4529.346019080955
882.1875508478479 4564.777156441242
883.1220095591489 4513.446385682972
884.0562348660296 4455.454990017984
884.9902268378391 4544.778469787283
885.9239855438955 4560.4099288517455
886.8575110534839 4495.078957896836
887.7908034358588 4539.445891245962
888.7238627602474 4549.3515865740055
889.6566890958475 4454.491689411998
890.5892825118208 4387.535237542158
891.5216430773125 4348.565836413032
892.4537708614189 4349.015583043201
893.3856659332196 4336.123960195238
894.3173283617652 4273.599679616871
895.2487582160684 4276.978911333007
896.179955565116 4226.571876403458
897.110920477864 4165.882141733394
898.0416530232451 4237.591409744949
898.9721532701478 4143.048774180943
899.9024212874428 4177.407102831146
900.8324571439662 4141.5906265389585
901.7622609085302 4122.400896346054
902.6918326499072 4084.5991795687355
903.6211724368477 4137.377769459907
904.5502803380696 4111.779929888349
905.4791564222614 4181.72243687029
906.4078007580792 4061.4269066244187
907.3362134141571 4035.372252432028
908.2643944590909 4115.8248213117295
909.1923439614493 3979.3055307289374
910.1200619897754 3956.8592931192347
911.0475486125779 4069.666708186241
911.9748038983344 3959.7729747171447
912.9018279155007 3991.50298599585
913.8286207324982 3941.4243491872257
914.7551824177117 3942.0563726122155
915.6815130395116 3899.9322414262074
916.6076126662283 3980.613691344954
917.533481366163 3963.98357644686
918.4591192075914 3916.9185434476176
919.3845262587565 3938.440745180801
920.3097025878706 3936.6515251782666
921.2346482631237 3975.143916310501
922.1593633526682 3930.783609419301
923.0838479246304 3886.993623250101
924.0081020471061 3945.411724307437
924.9321257881656 3871.1589989404515
925.8559192158464 3897.651390546717
926.7794823981512 3758.713027742672
927.7028154030686 3812.9730581798076
928.6259182985414 3761.7271029763906
929.5487911524906 3910.891641071076
930.4714340328119 3872.5188562456597
931.3938470073608 3735.3890090361697
932.3160301439748 3878.941541254996
933.2379835104548 3807.201928842057
934.1597071745709 3866.9444819565533
935.0812012040769 3890.035840517887
936.002465666681 3830.328120715282
936.9235006300696 3809.1602637832775
937.8443061619055 3845.1330561640743
938.7648823298077 3733.6302901375943
939.6852292013809 3836.9814046587153
940.6053468441951 3787.236108116398
941.5252353257874 3708.2515132374842
942.4448947136698 3753.617254841515
943.364325075323 3777.400338917011
944.2835264782043 3766.306335091488
945.2024989897309 3755.215442583588
946.1212426773054 3803.624091270206
947.0397576082851 3793.2386339603677
947.9580438500125 3803.949330673748
948.8761014697939 3876.087678435607
949.7939305349064 3875.907077196025
950.7115311125999 3793.9070516832494
951.6289032700952 3816.1448952222577
952.5460470745875 3827.7467756654355
953.4629625932339 3774.0693601381718
954.3796498931715 3945.2751414507534
955.2961090415029 3931.2116630052974
956.2123401053068 3860.043435092205
957.1283431516276 3864.645560332034
958.0441182474842 3803.756271033389
958.9596654598663 3879.6019849603945
959.8749848557309 3807.470962701849
960.7900765020167 3873.096206757109
961.7049404656209 3833.2260169989763
962.6195768134185 3846.295054942333
963.5339856122537 3778.663763809424
964.4481669289453 3830.591655391011
965.3621208302793 3839.892491614972
966.2758473830145 3814.087214696128
967.1893466538822 3868.7839827380485
968.1026187095813 3789.9291339602614
969.0156636167867 3847.9583887168496
969.9284814421426 3840.8627301121437
970.8410722522622 3767.8485209223522
971.753436113735 3827.2031606819537
972.6655730931161 3755.847993079247
973.5774832569368 3803.7753818253195
974.4891666716958 3736.191129918997
975.4006234038698 3695.467546121921
976.3118535198955 3713.135999899928
977.2228570861935 3815.221556017959
978.1336341691494 3751.4391191739596
979.0441848351202 3653.583386344628
979.9545091504333 3794.133038596495
980.864607181391 3851.017037075709
981.7744789942699 3798.036504348545
982.6841246553086 3844.1503134794757
983.5935442307236 3761.9230950253027
984.5027377867027 3879.591879949876
985.4117053894024 3864.603442657556
986.3204471049557 3775.2012286151635
987.2289629994648 3791.5738811292235
988.1372531390007 3877.6222104600515
989.0453175896091 3812.5814233589867
989.9531564173067 3835.6355549144428
990.860769688079 3752.247061740127
991.7681574678918 3841.4383272505247
992.6753198226706 3796.425177384077
993.582256818323 3767.0206150425583
994.4889685207218 3914.6241929575326
995.3954549957143 3979.2764340487665
996.301716309119 3899.0758253085164
997.2077525267232 3939.5470266688963
998.1135637142943 3873.3623374156705
999.0191499375615 3938.4640102767835
999.924511262232 3865.6840950424034
1000.8296477539861 4023.965984923236
1001.7345594784656 3937.248152261682
1002.6392465012996 3915.354358547526
1003.5437088880753 3997.9754302596984
1004.4479467043584 3958.7413403099445
1005.3519600156869 3835.014446408809
1006.2557488875718 3857.7166832995294
1007.1593133854858 3839.1435108967503
1008.0626535748888 3880.2186892034397
1008.9657695212009 3833.7086483814155
1009.8686612898182 3898.2901510186557
1010.7713289461135 3905.5337796149674
1011.6737725554212 3895.8372806289103
1012.5759921830577 3886.5393479991603
1013.4779878943027 3903.098758201093
1014.379759754418 3899.6995972728246
1015.2813078286254 3813.874597413532
1016.18263218213 3794.313695566877
1017.0837328801026 3831.433235762813
1017.9846099876886 3943.0521380477685
1018.8852635700023 3824.273366619688
1019.7856936921362 3796.2787350767076
1020.6859004191447 3817.8807297116155
1021.5858838160675 3824.051535968983
1022.4856439479063 3794.7722715093564
1023.3851808796389 3701.047715969441
1024.2844946762143 3827.097767095195
1025.183585402554 3701.0976747677896
1026.082453123554 3688.5327361898408
1026.9810979040776 3845.96060168423
1027.8795198089647 3695.7952544685745
1028.777718903024 3846.8197487784214
1029.6756952510368 3674.576043286622
1030.5734489177648 3704.944719525738
1031.4709799679313 3766.7549037946133
1032.3682884662358 3808.1083745960905
1033.2653744773506 3704.1669173679593
1034.1622380659192 3767.3163166198
1035.058879296559 3723.623841117728
1035.9552982338591 3798.018373180212
1036.8514949423825 3770.277642123298
1037.7474694866614 3742.917085643734
1038.6432219312028 3787.2518966876914
1039.5387523404825 3769.98749390033
1040.4340607789582 3788.0832728882865
1041.3291473110476 3791.1547320152326
1042.2240120011465 3834.5231237728817
1043.1186549136273 3859.4169104034504
1044.0130761128294 3752.896413853084
1044.9072756630649 3903.667728959652
1045.8012536286205 3931.9428729670813
1046.6950100737577 3868.345789533555
1047.588545062701 3935.9496244122433
1048.481858659663 3889.8675421064013
1049.3749509288118 3951.934338713179
1050.2678219343034 3903.114739137987
1051.1604717402515 3857.98840312612
1052.0529004107575 3877.8910019196783
1052.9451080098825 3976.029712953926
1053.8370946016694 3900.6645407399155
1054.7288602501267 3935.022928991304
1055.6204050192446 3918.1655427234573
1056.511728972977 4021.6456273010444
1057.402832175254 3880.466852126934
1058.2937146899785 3856.0944275626803
1059.1843765810263 3947.987480725318
1060.0748179122456 3948.3473496715096
1060.9650387474576 3957.076825543557
1061.855039150456 3940.2454325053513
1062.7448191850071 3898.2129125497713
1063.6343789148505 3750.8826295153763
1064.5237184037014 3866.0651502951514
1065.412837715241 3781.4395997467727
1066.3017369131267 3749.193448750438
1067.190416060992 3841.8234147818193
1068.0788752224398 3709.520615639398
1068.9671144610438 3778.1531366313625
1069.8551338403558 3728.512194424794
1070.7429334239023 3874.7067898179366
1071.6305132751695 3720.517007239282
1072.517873457633 3835.301488155389
1073.4050140347335 3780.768238459076
1074.2919350698776 3790.072473227197
1075.1786366264623 3628.6365861888976
1076.0651187678395 3811.1042414884273
1076.95138155735 3703.013142604662
1077.8374250582929 3640.4126490680246
1078.7232493339507 3666.5827220472484
1079.608854447577 3660.5716720199607
1080.4942404623907 3567.7722574944273
1081.3794074415982 3624.7564498260595
1082.2643554483657 3667.117797146259
1083.149084545841 3681.147914216388
1084.033594797138 3591.7030236700475
1084.9178862653516 3597.596712840905
1085.8019590135427 3655.157983289349
1086.6858131047484 3609.3557283335663
1087.5694486019802 3648.1095421307755
1088.4528655682225 3641.7350729462873
1089.3360640664287 3711.829256635352
1090.2190441595321 3609.491404909503
1091.1018059104317 3683.0763273812945
1091.98434938201 3643.0396297322354
1092.866674637111 3672.6324815463495
1093.748781738559 3665.669678456988
1094.6306707491512 3620.9658828576894
1095.5123417316554 3611.459018191655
1096.3937947488157 3567.4007612576365
1097.2750298633455 3598.599215578391
1098.156047137938 3563.6710546494883
1099.0368466352556 3643.750977912062
1099.9174284179317 3590.2451272752405
1100.7977925485757 3592.7309526968843
1101.6779390897755 3497.964385056078
1102.5578681040806 3535.445631813253
1103.4375796540226 3561.035370963041
1104.3170738021054 3582.6423284338357
1105.1963506108077 3527.6124594980197
1106.0754101425773 3494.787185238284
1106.9542524598382 3541.85431112513
1107.8328776249855 3537.3426866438267
1108.7112857003904 3490.3173172144816
1109.5894767483987 3428.747805942774
1110.4674508313292 3573.9704867537935
1111.3452080114657 3588.4487514149887
1112.2227483510815 3596.605398465713
1113.1000719124077 3706.084674181754
1113.9771787576592 3581.824153832264
1114.854068949022 3674.3910644290686
1115.7307425486542 3749.86483141774
1116.6071996186893 3661.889041458977
1117.483440221229 3815.0959989693743
1118.3594644183577 3728.621269168035
1119.235272272128 3834.3164749329494
1120.1108638445658 3900.785797168982
1120.9862391976712 3975.1933934696003
1121.8613983934229 3943.220535556897
1122.7363414937627 3948.7589293669566
1123.6110685606182 4009.5209639005798
1124.485579655884 4127.704273584463
1125.359874841426 4066.667697292418
1126.2339541790916 4020.4812026189734
1127.1078177306936 4289.07831822204
1127.9814655580267 4148.287017294794
1128.854897722851 4278.634382978264
1129.7281142869106 4253.497969708249
1130.6011153119125 4296.701680919676
1131.473900859548 4327.018738559165
1132.3464709914697 4250.527772786827
1133.2188257693178 4254.983142981289
1134.0909652546961 4294.660738405921
1134.96288950919 4190.947798971571
1135.8345985943506 4300.607543350989
1136.7060925717087 4084.0747844269063
1137.57737150277 4240.558875020797
1138.4484354490069 4079.925935114089
1139.3192844718778 4125.1813676542315
1140.1899186327992 4013.7927789760934
1141.060337993178 4144.2787530130045
1141.930542614382 4011.8838848563632
1142.8005325577597 4003.5803157893292
1143.670307884635 3766.4835779984924
1144.5398686563003 3885.3299607622744
1145.409214934025 3833.960453183691
1146.2783467790541 3695.5635796889596
1147.1472642526023 3725.7109915313313
1148.0159674158622 3759.111881943701
1148.8844563300026 3755.2092188821125
1149.7527310561618 3551.5265950574767
1150.6207916554504 3555.430821877645
1151.4886381889592 3525.648957911737
1152.3562707177498 3559.5741500321324
1153.2236893028585 3511.0593952077775
1154.090894005296 3416.889774060021
1154.9578848860474 3408.2353305222014
1155.8246620060709 3361.2460706362945
1156.6912254262988 3457.4002615265913
1157.5575752076438 3467.7566828471545
1158.42371141098 3549.238363876818
1159.2896340971656 3444.013974498336
1160.1553433270346 3468.7460022645223
1161.0208391613887 3374.3228468486254
1161.8861216610057 3392.598799784886
1162.75119088664 3387.6344663558875
1163.6160468990201 3358.0888844515166
1164.4806897588442 3371.010899203331
1165.3451195267917 3425.1892587842567
1166.2093362635114 3397.7025320132693
1167.0733400296285 3415.639615640047
1167.9371308857444 3335.653251416739
1168.8007088924278 3338.771449198169
1169.6640741102328 3344.3121076686184
1170.5272265996773 3278.6551173289017
1171.390166421259 3155.446402769639
1172.252893635452 3401.934699590992
1173.1154083026995 3444.7287303956173
1173.977710483421 3357.289049012516
1174.8398002380145 3211.9776908336594
1175.7016776268483 3401.926359415588
1176.563342710264 3417.899867744084
1177.4247955485826 3281.410075434971
1178.2860362020947 3402.879037026852
1179.147064731069 3332.0598323741624
1180.0078811957483 3417.9425026127633
1180.8684856563486 3337.1185514607264
1181.7288781730604 3378.000561912528
1182.589058806052 3363.060209930348
1183.4490276154593 3454.122405103207
1184.3087846614017 3401.224859969101
1185.1683300039676 3402.473364344822
1186.027663703222 3557.7600171093427
1186.8867858192025 3494.7321230401967
1187.7456964119228 3495.0437605606335
1188.6043955413716 3563.6135706794676
1189.4628832675116 3635.1212667346103
1190.3211596502842 3566.8019182991507
1191.179224749596 3642.8001118952498
1192.0370786253388 3659.810629316076
1192.8947213373758 3711.5556243897868
1193.7521529455407 3792.0261182483932
1194.6093735096438 3683.289593160122
1195.466383089477 3745.620553375366
1196.3231817447977 3777.3280926470206
1197.1797695353398 3714.7498895015087
1198.0361465208189 3698.099901798276
1198.8923127609214 3736.6864041513763
1199.7482683153048 3819.5020688200175
1200.6040132436028 3799.1378740352397
1201.459547605431 3715.211192071666
1202.3148714603722 3799.8847865017988
1203.1699848679855 3697.7451730753505
1204.0248878878065 3717.8452274885763
1204.8795805793507 3657.103769672519
1205.7340630020935 3756.719864225032
1206.5883352155033 3840.1391871894252
1207.4423972790064 3691.7455994210372
1208.2962492520237 3738.3895935082714
1209.1498911939307 3721.269969250787
1210.0033231640937 3724.909807287274
1210.8565452218427 3665.3982076010698
1211.7095574264913 3617.5073277438946
1212.5623598373222 3577.609917546961
1213.4149525135963 3560.8598090624428
1214.2673355145507 3604.4715583400953
1215.1195088993936 3535.9933404382696
1215.9714727273113 3421.537074089021
1216.8232270574663 3665.6163790456785
1217.6747719489904 3413.848890096182
1218.5261074609934 3440.0437097440363
1219.3772336525653 3489.6287043554503
1220.2281505827668 3553.2015460791276
1221.0788583106296 3531.5801802827145
1221.9293568951707 3501.2716212898936
1222.7796463953746 3375.992597458478
1223.629726870202 3367.912771437407
1224.4795983785934 3465.513807658123
1225.3292609794553 3436.0081250026124
1226.1787147316809 3371.975582149216
1227.0279596941327 3397.516681358384
1227.8769959256424 3394.558163866934
1228.7258234850306 3492.846386217066
1229.5744424310833 3386.398593842047
1230.422852822563 3382.3667793809254
1231.2710547182105 3438.431814713981
1232.119048176739 3396.5446131898525
1232.9668332568417 3283.774136443329
1233.8144100171812 3462.3145475841934
1234.6617785163999 3402.5493068546953
1235.508938813111 3311.0325077514854
1236.3558909659114 3391.228329605134
1237.2026350333617 3360.280111136091
1238.049171074008 3355.531774344261
1238.8954991463652 3318.6053547492447
1239.741619308932 3279.713696305491
1240.587531620169 3438.1312129692474
1241.4332361385277 3399.7795329798805
1242.2787329224248 3366.70347923644
1243.1240220302534 3354.9495987539367
1243.9691035203869 3287.1381729519862
1244.813977451171 3373.0432638044563
1245.6586438809263 3332.371037483329
1246.5031028679496 3234.285861805368
1247.3473544705157 3384.660437191037
1248.1913987468706 3366.807306615461
1249.0352357552383 3266.3449958804804
1249.8788655538228 3314.5233542772935
1250.7222882007918 3371.268185110668
1251.565503754302 3358.3654500718185
1252.4085122724755 3279.0964712220402
1253.2513138134182 3395.4999552837353
1254.0939084352049 3343.3060011486077
1254.9362961958905 3322.792135417989
1255.7784771535007 3359.2327521693187
1256.6204513660432 3313.3584487824323
1257.4622188915 3396.5875060592066
1258.3037797878242 3373.2470934755265
1259.1451341129468 3370.050055393359
1259.9862819247755 3360.6911225389513
1260.8272232811978 3338.116782912977
1261.6679582400666 3441.6891773382767
1262.5084868592203 3266.1013995810185
1263.34880919647 3335.956466972822
1264.1889253095997 3374.295658651793
1265.0288352563712 3429.835878825436
1265.8685390945266 3377.566616351315
1266.7080368817751 3422.634354520304
1267.5473286758115 3439.596409410579
1268.386414534294 3377.8118751925967
1269.2252945148703 3199.8062024121364
1270.0639686751547 3286.818773012202
1270.9024370727402 3368.3952934623208
1271.7406997651997 3235.540501448788
1272.5787568100714 3265.627830133013
1273.4166082648808 3295.8156786917216
1274.2542541871244 3244.221679329539
1275.091694634275 3363.8935419675827
1275.9289296637817 3215.934237966892
1276.7659593330663 3284.725632053839
1277.6027836995308 3212.7749737188055
1278.4394028205552 3255.676846404007
1279.2758167534867 3269.47243813329
1280.112025555658 3382.122486161365
1280.9480292843746 3195.0220870296534
1281.7838279969128 3215.4426770821674
1282.6194217505326 3284.9993847639353
1283.4548106024686 3247.6249354337942
1284.289994609926 3216.531792298863
1285.1249738300921 3342.892764096402
1285.959748320127 3242.135624474794
1286.7943181371702 3268.7327422067156
1287.6286833383328 3226.4854840423077
1288.4628439807038 3299.1944897690373
1289.2968001213521 3213.305821884681
1290.1305518173194 3342.5065768068757
1290.9640991256183 3306.479893654117
1291.7974421032523 3337.1572721092443
1292.630580807183 3291.1180672943274
1293.463515294361 3289.2567345739044
1294.29624562171 3349.943796958185
1295.12877184613 3183.870579042891
1295.961094024493 3226.787590301314
1296.79321221365 3271.752399276167
1297.6251264704333 3380.1027581404087
1298.4568368516466 3462.905481541933
1299.2883434140658 3400.2100465806916
1300.1196462144526 3305.669367704527
1300.9507453095375 3295.3643755188364
1301.7816407560313 3300.4669472736846
1302.6123326106172 3396.1113686559984
1303.4428209299622 3287.350165107083
1304.2731057707024 3417.5516477028204
1305.1031871894502 3247.7293223261277
1305.933065242798 3418.519968324757
1306.7627399873181 3408.6882807034262
1307.5922114795467 3600.8339290220465
1308.4214797760123 3705.147392124962
1309.2505449332057 3374.1637890488173
1310.0794070076026 3432.6471900910983
1310.9080660556538 3467.5445509074816
1311.736522133786 3436.6046118703316
1312.5647752983987 3411.5585843373156
1313.3928256058734 3393.4481086856676
1314.2206731125661 3410.0014616812696
1315.048317874809 3394.3195059015925
1315.8757599489109 3421.9772320614406
1316.7029993911547 3529.38423951779
1317.5300362578055 3621.832097960834
1318.356870605101 3348.2016400427465
1319.183502489257 3420.526448529484
1320.0099319664623 3484.428300606219
1320.836159092889 3527.264807227847
1321.66218392468 3459.79131961987
1322.4880065179532 3490.2128236290873
1323.3136269288134 3491.3363277329872
1324.1390452133292 3555.556219398396
1324.9642614275563 3524.823703277901
1325.7892756275214 3579.5657456139984
1326.6140878692295 3458.5477815783634
1327.4386982086617 3616.727716701509
1328.2631067017755 3554.510057450848
1329.0873134045069 3543.6231242432286
1329.911318372764 3555.5356936479934
1330.735121662441 3412.7550996118216
1331.558723329399 3504.6393601271543
1332.3821234294774 3498.1371464946774
1333.2053220185007 3582.7988437026966
1334.0283191522612 3506.965446537318
1334.851114886529 3588.112765244851
1335.6737092770582 3470.134736916863
1336.4961023795695 3515.5046391687843
1337.3182942497697 3566.6934271217942
1338.1402849433325 3459.036166188397
1338.962074515921 3459.9895428824975
1339.7836630231632 3380.1110954568335
1340.6050505206676 3648.8258856894863
1341.426237064028 3585.065739603847
1342.2472227088037 3465.9477718014036
1343.0680075105338 3436.5973397186704
1343.888591524741 3400.98462135281
1344.7089748069138 3586.910038874265
1345.5291574125276 3470.5082486400925
1346.3491393970307 3284.9484112789955
1347.168920815846 3499.730207650157
1347.9885017243778 3439.5515526160234
1348.8078821780036 3410.947144932211
1349.6270622320844 3476.913027528966
1350.4460419419447 3330.565022124077
1351.2648213629054 3511.607051699741
1352.0834005502438 3291.0147745068543
1352.90177955923 3375.8111951693863
1353.7199584451064 3550.5709682292277
1354.5379372630887 3473.873099268892
1355.355716068374 3419.6420610463347
1356.1732949161305 3428.7541718524344
1356.9906738615155 3379.8643475049735
1357.8078529596478 3413.301755789461
1358.6248322656375 3444.2912564628045
1359.441611834567 3357.7962405663175
1360.2581917214866 3517.752036489179
1361.0745719814367 3296.5493679398196
1361.890752669433 3328.2608829452583
1362.7067338404577 3270.3489464700406
1363.5225155494845 3447.622024297331
1364.3380978514506 3430.729817229186
1365.1534808012839 3247.68673648942
1365.9686644538815 3218.7473589937
1366.783648864117 3428.530186123492
1367.5984340868417 3442.977263666939
1368.413020176893 3431.878051620287
1369.2274071890715 3292.6993332972097
1370.0415951781652 3440.047157557704
1370.8555841989346 3215.340610951914
1371.6693743061223 3277.443066928966
1372.48296555444 3284.6889503023135
1373.2963579985844 3496.3599764801666
1374.1095516932255 3288.376790816886
1374.9225466930166 3241.1564420063096
1375.7353430525782 3377.4048830179336
1376.5479408265164 3292.8835168736528
1377.36034006941 3356.2220851730854
1378.1725408358216 3374.776990831523
1378.9845431802805 3227.618969240379
1379.796347157304 3421.608497051424
1380.6079528213813 3400.6329456505455
1381.4193602269788 3283.7482147653127
1382.230569428546 3278.190885122988
1383.0415804805016 3560.597142169013
1383.852393437246 3467.181782708999
1384.6630083531563 3409.6327747861496
1385.4734252825892 3354.674460306829
1386.2836442798798 3349.6068945592788
1387.0936653993322 3317.5840397686675
1387.9034886952395 3316.6739754216665
1388.713114221864 3504.117179423555
1389.5225420334482 3315.7156139092704
1390.331772184214 3238.619422451198
1391.1408047283585 3247.6667216670894
1391.9496397200564 3251.2711808754384
1392.758277213461 3392.976631745946
1393.5667172627054 3317.186189356572
1394.3749599218918 3308.7782441422705
1395.1830052451114 3145.2463211614827
1395.9908532864265 3232.322619147041
1396.7985040998774 3335.647266307113
1397.6059577394808 3223.788012148068
1398.4132142592352 3396.456452311052
1399.2202737131156 3205.6133276275086
1400.027136155073 3290.3677817323733
1400.8338016390353 3367.292972504502
1401.6402702189134 3318.84567891831
1402.446541948586 3233.8023026738547
1403.2526168819204 3142.4692899841657
1404.058495072757 3280.039411198804
1404.8641765749107 3217.9437574332383
1405.6696614421799 3270.715131089314
1406.4749497283356 3368.82626912214
1407.280041487129 3220.5025116504403
1408.084936772295 3055.9519256197236
1408.8896356375335 3197.066545483568
1409.6941381365323 3267.273351728478
1410.498444322955 3126.810269156598
1411.3025542504402 3151.097916823362
1412.106467972606 3174.407968741315
1412.9101855430508 3196.7450089617428
1413.7137070153458 3007.56433124504
1414.5170324430437 3138.23326251221
1415.320161879672 3168.879730183106
1416.1230953787435 3282.73736371946
1416.925832993742 3022.568664484385
1417.7283747781275 2941.842153407576
1418.5307207853439 3043.8506233078224
1419.3328710688093 3094.5488628098446
1420.134825681922 2959.3404242363736
1420.9365846780584 3074.5072946617147
1421.7381481105713 3136.799519246268
1422.539516032788 3084.4648025880565
1423.3406884980232 3011.605369841772
1424.1416655595604 2903.630346289804
1424.942447270665 3005.4852808312216
1425.7430336845828 3018.3097139832903
1426.5434248545298 2889.841088209522
1427.3436208337116 2927.0375575969697
1428.143621675301 3075.608210438725
1428.9434274324558 3153.3243346920326
1429.7430381583108 2935.1453805210595
1430.5424539059713 3007.845075659615
1431.3416747285337 3240.8796513146244
1432.1407006790632 2996.3076062074642
1432.9395318106053 3011.930200792638
1433.7381681761835 2993.733177797798
1434.5366098288014 3022.8212050175234
1435.3348568214424 2924.206563575818
1436.1329092070573 2969.4862504448733
1436.9307670385879 3012.527235088265
1437.7284303689503 3117.945799577049
1438.5258992510335 3146.4794528277926
1439.3231737377118 3087.1873095355268
1440.1202538818306 3102.3260659081693
1440.9171397362225 2969.730049331567
1441.7138313536925 2945.709442086235
1442.5103287870243 2950.772434656824
1443.3066320889775 2897.0619411486437
1444.1027413122956 3140.8886522471175
1444.8986565096966 3008.185366069879
1445.694377733882 3133.327311453383
1446.4899050375207 2916.9308865223843
1447.2852384732687 2850.2779678081656
1448.0803780937622 3026.8471436326904
1448.8753239516063 2990.919389680855
1449.6700760993954 2819.6289281847535
1450.464634589689 2892.06761331521
1451.2589994750397 3041.751499718973
1452.0531708079689 2858.3601598253153
1452.8471486409799 2867.36825988937
1453.6409330265524 3028.2067651700277
1454.4345240171442 2969.6807497484433
1455.2279216651987 2961.363286847887
1456.0211260231263 3098.859606337842
1456.8141371433194 2951.7073365670103
1457.6069550781594 2946.9217814051276
1458.3995798799897 2862.145094036568
1459.1920116011424 2936.8538752555023
1459.98425029393 2854.285356105139
1460.7762960106338 2890.1230382304216
1461.5681488035225 2954.4648004021424
1462.3598087248392 2922.210085461813
1463.1512758268036 2977.802652597061
1463.942550161617 2815.4504968478573
1464.7336317814625 2861.654969962733
1465.524520738496 2861.233542374354
1466.3152170848552 2814.096072520856
1467.1057208726506 2925.835944387775
1467.8960321539817 2701.433864394672
1468.6861509809169 2709.5314984513234
1469.4760774055085 2838.6990539877283
1470.265811479785 2931.534937585752
1471.055353255755 2588.9033564769134
1471.844702785409 2854.4593012249993
1472.6338601207044 2747.7893230210257
1473.4228253135934 3242.5981013594646
1474.2115984159936 2715.2998557999445
1475.0001794798063 2577.684121385082
1475.7885685569145 2716.957372417026
1476.576765699172 2845.966419544169
1477.3647709584238 2768.576145376032
1478.1525843864802 2879.5609161509465
1478.9402060351367 2844.968252086048
1479.7276359561693 2868.5686774049695
1480.514874201328 2766.314162098702
1481.3019208223468 2717.5515110853994
1482.0887758709323 2710.0277216327745
1482.8754393987747 2720.788228282529
1483.6619114575406 2662.9859707275355
1484.4481920988783 2858.4433654057602
1485.2342813744108 2864.1471760001878
1486.0201793357446 2814.852339212285
1486.8058860344572 2796.4084002488335
1487.591401522117 2845.6343009706543
1488.3767258502594 2787.5566302397133
1489.1618590704056 2817.3320694623976
1489.9468012340494 2720.5790648626853
1490.7315523926754 2959.684402461259
1491.5161125977356 2882.474186626457
1492.3004819006637 2826.5422088294613
1493.084660352877 2811.5912743346144
1493.8686480057622 2917.6043816062797
1494.6524449106964 3032.057623830533
1495.4360511190262 2988.4439176136716
1496.219466682087 2846.834795770672
1497.0026916511779 3021.7719326546703
1497.7857260775945 2772.98107250051
1498.5685700125996 2872.6862347911415
1499.3512235074395 2823.4626793534103
1500.133686613337 2905.9740939002977
1500.9159593814966 2789.0644735691703
1501.698041863101 3025.316631191132
1502.4799341093094 2739.3235551552557
1503.2616361712662 2813.395702964444
1504.043148100087 2901.5873516183674
1504.8244699468742 2964.229696607291
1505.6056017626997 2930.2339543119174
1506.3865435986281 2707.0932543695735
1507.1672955056893 2922.2278512038283
1507.9478575348967 2866.1048080047767
1508.7282297372512 2835.253479838432
1509.5084121637192 2847.8203161002903
1510.2884048652577 2820.8720618086945
1511.0682078927948 2771.171144675314
1511.8478212972423 2816.9573583488054
1512.6272451294917 2871.587580022793
1513.4064794404076 2908.35971054017
1514.1855242808433 2797.850151525799
1514.9643797016215 2876.178029668374
1515.743045753552 2819.5044780437247
1516.5215224874191 2918.001893368803
1517.2998099539836 2699.5663950169474
1518.077908203999 2816.09373875808
1518.8558172881785 2873.2437647403694
1519.633537257234 2958.722319235466
1520.4110681618404 2871.780852347612
1521.1884100526604 2997.980167139518
1521.9655629803365 2909.8913194185434
1522.7425269954856 3062.6810633372697
1523.5193021487103 2921.207454703488
1524.2958884905856 2753.1173759491035
1525.0722860716687 2881.464957373342
1525.848494942502 2987.8649792563215
1526.624515153595 2862.885517685593
1527.4003467554485 3029.554653735648
1528.175989798534 3008.290551457984
1528.9514443333064 2855.3014186324463
1529.726710410203 3045.62361924404
1530.5017880796331 2855.425682953153
1531.276677391992 2886.860534497105
1532.0513783976457 3027.469021506426
1532.825891146953 2914.480358169726
1533.6002156902414 3039.078840808588
1534.3743520778207 2995.0861399139785
1535.1483003599806 2951.056452063038
1535.9220605869923 2861.886607516484
1536.6956328091019 3077.3249338020855
1537.4690170765407 2958.6895556975396
1538.242213439511 2976.457962166115
1539.015221948208 3080.6402399902286
1539.78804265279 3026.088288825692
1540.560675603405 2917.366539498614
1541.3331208501804 3126.230996079839
1542.1053784432224 3200.1612048688994
1542.8774484326168 3074.6819242480738
1543.649330868422 3074.8287557147896
1544.4210258006842 3088.0349874483954
1545.1925332794308 3039.5426701034294
1545.9638533546604 3039.8766242108113
1546.7349860763552 3007.3009649005144
1547.5059314944829 3159.474519933066
1548.27668965898 3051.5778615565728
1549.0472606197673 3183.027282815579
1549.817644426752 2965.8734636093986
1550.5878411298072 3078.00528884508
1551.3578507787988 3126.7806420898505
1552.1276734235635 3096.9573227883834
1552.8973091139233 3107.3776363410607
1553.6667578996767 3070.5427288036735
1554.436019830604 3230.4991732795684
1555.20509495646 3211.312711948787
1555.9739833269869 3075.640833503977
1556.7426849919011 3066.706621416197
1557.511200000903 3344.9386863204695
1558.2795284036674 3266.6855786727733
1559.0476702498509 3168.550425448734
1559.8156255890954 3288.471052038386
1560.5833944710157 3251.2551551477804
1561.3509769452048 3295.501973201723
1562.1183730612447 3175.471803066613
1562.8855828686865 3237.477333850072
1563.6526064170703 3403.653081158239
1564.4194437559127 3356.813480818415
1565.1860949347047 3070.668099500459
1565.9525600029283 3354.411134925004
1566.7188390100328 3255.6002620259287
1567.4849320054564 3126.3456293423956
1568.250839038612 3207.4568570196047
1569.0165601588997 3095.471530428439
1569.7820954156887 3400.298270152873
1570.5474448583373 3219.16948146594
1571.31260853618 3181.000977631036
1572.0775864985299 3108.009508264981
1572.8423787946813 3166.2771787203174
1573.6069854739108 3050.201003321301
1574.371406585471 3269.4530898615158
1575.1356421785986 3326.7833696810094
1575.899692302506 3246.3340713617445
1576.6635570063845 3241.7363474382632
1577.4272363394157 3192.726862130381
1578.190730350747 3111.3560737122125
1578.9540390895163 2955.7822496640306
1579.7171626048384 3074.742708759558
1580.480100945806 3081.126095918245
1581.2428541614918 3140.6160820286386
1582.0054223009538 3034.094909816803
1582.767805413223 3203.8372632128935
1583.5300035473156 3035.011050099249
1584.292016752228 3219.4328193578067
1585.0538450769309 3123.2377765472056
1585.8154885703807 3216.714387976828
1586.5769472815136 3079.076260367163
1587.3382212592405 3214.64145372407
1588.099310552463 3288.139370104749
1588.8602152100484 2926.6915611590293
1589.6209352808564 3279.2657647595524
1590.3814708137234 3167.0934055523567
1591.14182185746 2747.0325525085104
1591.9019884608679 3283.7595244991157
1592.6619706727215 2998.15117960801
1593.4217685417734 3158.171130017442
1594.1813821167616 3295.940827686255
1594.9408114464022 3087.5392372614133
1595.7000565793933 3209.5510506864653
1596.459117564409 3198.3100533026654
1597.2179944501113 3095.8898729035336
1597.9766872851324 3199.0969115993626
1598.735196118092 3216.5527730355443
1599.4935209975883 3250.7654001616816
1600.2516619721973 3226.891153695351
1601.0096190904787 3129.4906809478543
1601.7673924009723 3196.6465313061576
1602.524981952196 3062.554673438109
1603.2823877926476 3156.2539037121533
1604.0396099708087 3205.344342998039
1604.7966485351371 3144.4247441631114
1605.5535035340745 3249.2324787034486
1606.3101750160404 3320.032081234338
1607.0666630294363 3244.007611337128
1607.822967622642 3092.344766033345
1608.5790888440224 3184.9607894165392
1609.3350267419137 3260.1542888394124
1610.0907813646445 3249.623982761478
1610.8463527605145 3307.132461137486
1611.601740977805 3245.384833050492
1612.356946064785 3206.256506164965
1613.1119680696902 3164.4112962873696
1613.8668070407512 3177.5068370088525
1614.6214630261748 3248.301647721485
1615.375936074137 3106.6277093546846
1616.1302262328118 3312.222963740106
1616.8843335503425 3206.5685233862214
1617.638258074854 3178.5823755183123
1618.391999854457 3221.6542886800166
1619.1455589372363 3310.437265945818
1619.8989353712623 3285.263882127616
1620.65212920458 2980.893754832522
1621.4051404852235 3203.659380453984
1622.1579692611976 3150.0121098055192
1622.9106155804966 3088.636942656245
1623.663079491087 3198.6472768679955
1624.4153610409248 3332.6705345397118
1625.1674602779385 3089.7168328382013
1625.9193772500403 3029.295996388546
1626.6711120051277 3222.182041833513
1627.4226645910676 3122.493276459182
1628.174035055721 3046.6649155514724
1628.9252234469168 3120.2641817246204
1629.676229812474 3093.391392143866
1630.4270542001905 3304.671836178479
1631.1776966578382 3254.2071961252054
1631.9281572331747 3097.216867870936
1632.678435973945 3129.914303339104
1633.4285329278573 3134.227074366498
1634.1784481426203 3112.755271561865
1634.9281816659113 3174.3780619716
1635.677733545388 3324.7132028776896
1636.4271038286934 3049.4492498058053
1637.176292563452 3146.710560084277
1637.9252997972635 3171.1423123792165
1638.674125577716 3314.1558681862457
1639.4227699523672 3415.210039013126
1640.171232968767 3045.7615720543645
1640.9195146744423 3313.026308772123
1641.6676151168977 3327.3515361861655
1642.4155343436178 3272.0884911875546
1643.1632724020765 3230.195803366977
1643.9108293397167 3242.9670911387034
1644.658205203974 3027.3244483742533
1645.4054000422566 3410.870590338169
1646.1524139019566 3190.335298227973
1646.8992468304423 3143.3026361208927
1647.6458988750728 3104.4638843322105
1648.3923700831765 3212.048271127508
1649.1386605020743 3232.1730531360577
1649.8847701790564 3326.532696290504
1650.6306991614038 3282.293922682909
1651.3764474963682 3149.7024927384127
1652.1220152311944 3091.2812009558547
1652.867402413096 3240.252963282227
1653.6126090892776 3041.9702457912945
1654.3576353069184 3361.560732620144
1655.1024811131829 3206.2925223070793
1655.8471465552066 3246.3952881505934
1656.5916316801213 3291.6181599983393
1657.3359365350298 3211.602467427498
1658.0800611670165 3124.6540967882443
1658.824005623148 3124.409506194204
1659.5677699504722 2992.004935057429
1660.3113541960192 3129.2431598280864
1661.054758406799 3094.1737209952826
1661.7979826297997 3020.9805863770566
1662.5410269119966 2978.4540658120814
1663.283891300338 3157.655260832701
1664.0265758417645 3001.276124589593
1664.7690805831826 3054.85162745329
1665.5114055714948 3097.7537208812714
1666.2535508535748 3163.1780373602583
1666.9955164762814 2829.5983540910756
1667.7373024864555 2889.4608140519563
1668.478908930916 3113.829576401483
1669.220335856462 2735.3676961416195
1669.9615833098778 2920.502226090861
1670.7026513379296 2777.9946914777465
1671.44353998736 2918.520488445235
1672.1842493048916 2811.5643098709816
1672.9247793372379 2805.8296183329307
1673.6651301310812 2873.796127850826
1674.4053017330934 2649.475546374865
1675.1452941899242 2729.2972591278467
1675.885107548207 2629.125848932644
1676.6247418545518 2680.53669600447
1677.3641971555535 2715.4784884628125
1678.1034734977893 2667.8093800601323
1678.8425709278108 2757.714956611149
1679.5814894921605 2739.7762319483672
1680.320229237359 2513.8081366926126
1681.0587902098978 2746.4993945089436
1681.7971724562685 2677.7010765552423
1682.5353760229264 2688.010661589883
1683.2734009563173 2566.383900811051
1684.0112473028657 2527.571354508755
1684.7489151089794 2628.802164229524
1685.4864044210462 2624.7732236204
1686.2237152854377 2471.951910266161
1686.960847748498 2613.4638104516844
1687.6978018565642 2480.218918145352
1688.434577655944 2428.752824686021
1689.1711751929379 2597.046087217504
1689.9075945138156 2404.8875924587737
1690.6438356648396 2479.7637463901997
1691.3798986922448 2268.8901426962702
1692.1157836422499 2433.142486351778
1692.851490561059 2322.864959788526
1693.587019494853 2386.46594715705
1694.3223704897991 2261.7774486185003
1695.0575435920364 2180.5806612053993
1695.792538847696 2463.569312958061
1696.527356302886 2418.0072467483747
1697.2619960036936 2229.840798467231
1697.9964579961907 2233.1205632625324
1698.730742326432 2052.07516798953
1699.4648490404488 2091.9638400009426
1700.1987781842563 2228.623043372249
1700.9325298038548 2350.0948931937646
1701.6661039452174 2384.4910291683946
1702.3995006543082 2321.415636857933
1703.1327199770658 2243.6667768165344
1703.865761959416 2180.615192294153
1704.598626647261 2266.1221111890195
1705.3313140864866 2109.7584819400727
1706.0638243229587 2226.4830279685234
1706.7961574025303 2290.3695310035937
1707.528313371029 2188.3212129275316
1708.260292274268 2028.4104988661609
1708.9920941580403 2245.0355094566903
1709.7237190681226 2163.0252360072686
1710.4551670502697 2200.6433847693274
1711.18643815022 1822.7965255424358
1711.9175324136959 2311.3173251301805
1712.6484498863938 2087.305050048019
1713.379190614005 1964.0141585016645
1714.109754642188 2303.1552567781573
1714.8401420165883 2065.0148437525945
1715.570352782839 1897.2577472137073
1716.3003869865497 2159.430214841896
1717.0302446733076 2050.4221788228697
1717.7599258886876 1996.360336394811
1718.4894306782444 2183.9326220522776
1719.2187590875183 1975.206841965623
1719.9479111620203 2019.495311102463
1720.6768869472544 2027.9424044392158
1721.4056864887025 2162.961600731756
1722.1343098318284 2167.8309808748427
1722.8627570220742 2028.7046081849644
1723.591028104871 1964.3872983222554
1724.3191231256242 1890.8835877115212
1725.0470421297232 1938.9644308113457
1725.7747851625427 2096.081409407795
1726.5023522694337 2116.205187597166
1727.2297434957363 2019.4352190259742
1727.9569588867635 1832.7745018624494
1728.6839984878152 2017.6825668595816
1729.4108623441734 1827.138083809015
1730.1375505011038 1995.156843497062
1730.8640630038426 1961.9417836075095
1731.5903998976264 1894.9206992847019
1732.316561227657 2117.958506792879
1733.0425470391274 1895.2839605534803
1733.7683573772065 1974.9538917514321
1734.4939922870508 1855.7812543953194
1735.2194518137949 2000.2060647468202
1735.9447360025606 2061.091349072086
1736.669844898439 1970.2622066948647
1737.3947785465189 1912.6691103182698
1738.1195369918605 1767.7371528534081
1738.8441202795093 1790.5645719794215
1739.5685284544943 1998.38735890804
1740.292761561821 1988.239862617814
1741.0168196464838 2138.049063146218
1741.7407027534518 1934.7222597719633
1742.464410927687 1938.9599189577486
1743.187944214118 1916.40332034709
1743.9113026576688 1784.8914850498725
1744.634486303241 1930.6901813644406
1745.3574951957125 1888.4467015574337
1746.0803293799509 1865.4976832633286
1746.8029889008048 1743.9928466598217
1747.5254738031017 1930.019928171468
1748.2477841316504 1866.336458252453
1748.969919931249 1894.4863446572665
1749.6918812466665 1694.5013743581846
1750.4136681226646 2002.050141942484
1751.1352806039777 1969.2173032028907
1751.856718735331 1866.5455384030897
1752.5779825614281 1874.0188483478796
1753.2990721269507 1874.5756104072473
1754.0199874765676 2020.7326319286717
1754.7407286549314 1804.7780528582505
1755.4612957066693 1844.1590645668032
1756.1816886763954 1798.3299255883908
1756.9019076087097 2009.3731558306222
1757.6219525481865 1962.3838619251521
1758.3418235393856 1891.6163637065572
1759.061520626854 1926.3201260727008
1759.7810438551096 1907.6499562985948
1760.5003932686614 1839.5266524239319
1761.2195689119999 2050.535943716248
1761.938570829594 1787.9065450863186
1762.657399065898 1849.3366669723794
1763.376053665348 1786.0647732311372
1764.0945346723602 1830.545710131411
1764.812842131334 1945.2469146818862
1765.5309760866512 1768.9445555606267
1766.2489365826787 1832.799132511988
1766.9667236637597 1868.463311596491
1767.684337374223 1801.6306782594943
1768.401777758383 1680.9846675422607
1769.1190448605284 1746.8885551901155
1769.836138724937 1757.5405472949828
1770.5530593958665 1911.0053120314776
1771.2698069175603 1785.3486638710492
1771.9863813342326 1972.542570727202
1772.702782690094 1877.5807319906635
1773.4190110293293 1898.5857831713106
1774.1350663961111 1970.4892574617047
1774.8509488345844 1776.6473511475465
1775.5666583888924 1781.9844856969241
1776.2821951031437 1967.0250548578601
1776.9975590214362 1864.4225236902998
1777.7127501878585 2072.162772177733
1778.4277686464684 1944.7621282071032
1779.1426144413108 1995.1880487495273
1779.8572876164162 1942.3566239955835
1780.571788215797 1820.5117804446168
1781.2861162834415 1949.2406642272988
1782.0002718633277 1849.8288297148385
1782.7142549994132 1833.9497851075662
1783.4280657356376 1969.4922656762424
1784.141704115922 1763.1353777412144
1784.855170184177 1775.086820110247
1785.5684639842839 1736.038955489404
1786.2815855601148 1652.3920305645947
1786.9945349555237 1867.9844567036903
1787.707312214343 1731.732692369529
1788.4199173803918 1832.0149295911222
1789.132350497468 1776.895602896609
1789.8446116093583 1726.70246602072
1790.556700759822 1908.175425368178
1791.2686179926077 1706.8727468269876
1791.9803633514493 1803.2967086611939
1792.6919368800554 1793.8982096627574
1793.4033386221236 1919.9677830878707
1794.1145686213295 1877.9004899987115
1794.8256269213307 1978.888617237743
1795.536513565774 1928.5474292761469
1796.247228598284 1638.6884400263257
1796.9577720624693 1734.7749147393383
1797.6681440019165 1730.8032991640928
1798.3783444602013 1774.4698079570903
1799.0883734808776 1822.2630369351039
1799.7982311074884 1898.0565108877952
1800.5079173835475 1704.217761628198
1801.2174323525633 1835.933977762752
1801.9267760580187 1758.8029583438808
1802.635948543386 1747.5927710628243
1803.3449498521113 1732.1738267229757
1804.0537800276325 1765.518210523999
1804.7624391133668 1726.865040037541
1805.47092715271 1575.5089853208142
1806.1792441890484 1713.3240456881304
1806.8873902657433 1855.516097893838
1807.5953654261448 1782.1080869867433
1808.3031697135812 1549.1146088257537
1809.0108031713662 1752.2452563598933
1809.71826584279 1761.7824855525832
1810.425557771141 1820.3837650217424
1811.1326789996747 2043.8926880062627
1811.839629571632 1836.6560268585254
1812.5464095302468 1678.3016545730334
1813.2530189187182 1889.2914835845302
1813.959457780249 1749.0488457847955
1814.6657261580076 1875.8474525960878
1815.371824095153 1759.6933328703133
1816.0777516348262 1779.6891441271316
1816.78350882015 1671.0026841758008
1817.4890956942272 1640.8998226187239
1818.1945123001533 1834.2765575726316
1818.8997586809928 1655.2608816602963
1819.6048348798067 1807.8429317627736
1820.3097409396287 1710.74140841256
1821.0144769034796 1848.3239040841559
1821.7190428143622 1663.7188385194647
1822.423438715261 1911.1801187917977
1823.1276646491478 1762.3563783663692
1823.8317206589727 1801.5091950759993
1824.5356067876692 1872.5424756349244
1825.2393230781581 1640.1824475079563
1825.942869573335 1655.6650835053556
1826.646246316086 1738.4149451396413
1827.3494533492758 1779.1676351536437
1828.052490715756 1810.7176353446903
1828.7553584583547 1700.1365204457695
1829.458056619891 1741.8746623413585
1830.1605852431585 1700.3562541587173
1830.8629443709433 1591.505431822483
1831.5651340460063 1801.1341785628822
1832.2671543110919 1820.5419717799628
1832.9690052089318 1767.545887755679
1833.6706867822395 1726.4372919345158
1834.3721990737104 1958.2253615344896
1835.0735421260233 1772.2296682363692
1835.774715981841 1895.0254687544916
1836.4757206838058 1783.0076314513985
1837.1765562745459 1543.892940444829
1837.8772227966747 1542.4330861057097
1838.5777202927839 1802.89936158536
1839.2780488054523 1823.3452615892197
1839.9782083772352 1724.3334325777978
1840.6781990506806 1769.0223973830884
1841.378020868313 1701.9150380496571
1842.0776738726418 1746.137476266089
1842.777158106157 1859.863071046459
1843.4764736113375 1552.0025308428758
1844.1756204306403 1850.3358698177121
1844.8745986065078 1753.346444135232
1845.5734081813607 1690.2079319371928
1846.2720491976124 1653.3247919845903
1846.970521697649 1725.044237421417
1847.6688257238511 1706.4360241507754
1848.3669613185684 1744.7094816386677
1849.0649285241452 1664.648774782773
1849.7627273829057 1702.9630755541803
1850.460357937156 1835.3607481217755
1851.1578202291857 1583.7391519518214
1851.8551143012664 1815.6991270027265
1852.5522401956569 1824.0878185189108
1853.2491979545957 1830.2766170916007
1853.9459876203055 1678.3449437393278
1854.6426092349902 1698.9142179575724
1855.3390628408451 1656.7959763792526
1856.0353484800362 1757.9999113202273
1856.7314661947203 1772.2608113440315
1857.4274160270397 1529.1100338798037
1858.123198019115 1716.2409541306392
1858.8188122130487 1721.0630287270778
1859.5142586509319 1695.5666500222305
1860.209537374838 1647.4814232434633
1860.9046484268183 1736.3595579676585
1861.599591848917 1740.277059322279
1862.294367683151 1683.3672847250632
1862.988975971528 1598.5227032824828
1863.6834167560355 1799.767931232811
1864.3776900786452 1788.8537371165785
1865.0717959813119 1617.614850356897
1865.7657345059724 1737.3545526520033
1866.4595056945564 1716.8376655325683
1867.1531095889586 1681.5039606340495
1867.846546231076 1754.5380653668612
1868.5398156627743 1801.5080241900982
1869.2329179259123 1665.6212117846233
1869.9258530623283 1865.9437699357663
1870.618621113843 1671.9655488075175
1871.3112221222636 1618.0328143168338
1872.0036561293764 1725.5690751741447
1872.695923176956 1885.9684188619042
1873.3880233067594 1853.9549038550454
1874.0799565605212 1687.2182615109377
1874.7717229799673 1809.2071724455159
1875.4633226068036 1781.539899513015
1876.1547554827175 1784.7454435367922
1876.8460216493859 1753.5252647432712
1877.5371211484617 1666.5743163012335
1878.2280540215852 1809.4431577396947
1878.9188203103804 1618.7858234619139
1879.6094200564548 1720.1615915665054
1880.299853301396 1660.3110254639778
1880.9901200867826 1798.2077881085115
1881.6802204541673 1753.3788861451164
1882.3701544450942 1846.1848728066404
1883.059922101087 1675.0002733672086
1883.7495234636517 1828.3350290139729
1884.4389585742792 1611.4265489816203
1885.1282274744517 1637.4570746275394
1885.8173302056166 1516.3931104158485
1886.506266809225 1656.593687284114
1887.195037326701 1596.1142530845054
1887.8836417994517 1733.0344071373681
1888.5720802688702 1874.6598506188334
1889.260352776333 1569.151148973991
1889.9484593632042 1695.7242942717046
1890.63640007082 1714.991910163945
1891.3241749405151 1597.0960264890925
1892.0117840135954 1683.6918024875383
1892.6992273313572 1601.5461085166296
1893.3865049350788 1680.1972483353343
1894.0736168660223 1871.4250921914977
1894.7605631654333 1552.27395474367
1895.4473438745408 1537.1790193480965
1896.133959034556 1774.4906637088523
1896.820408686679 1717.8497674493028
1897.506692872088 1819.0919331484329
1898.192811631945 1688.2353099808836
1898.8787650073991 1751.597157891114
1899.5645530395832 1770.771119507272
1900.2501757696118 1742.093114418724
1900.9356332385796 1554.0755851007327
1901.620925487574 1789.243379436469
1902.3060525576602 1747.3034175192886
1902.9910144898859 1778.9756800917712
1903.6758113252872 1655.345820438512
1904.3604431048789 1734.490893634566
1905.0449098696663 1589.7033448413627
1905.7292116606295 1638.900295345152
1906.4133485187394 1782.2574154126846
1907.0973204849488 1747.1749317569509
1907.7811276001976 1711.9793763425157
1908.4647699053967 1679.8571640104728
1909.1482474414588 1596.2475784166609
1909.8315602492694 1480.2715191662764
1910.5147083696957 1786.6047523912923
1911.1976918436012 1745.8063823531265
1911.880510711815 1627.5564666872942
1912.5631650151681 1642.5858376812691
1913.2456547944657 1600.4556535894108
1913.927980090495 1627.4085932781031
1914.6101409440362 1621.1782569954723
1915.2921373958416 1555.849118884002
1915.9739694866603 1574.5531615584798
1916.655637257214 1827.3095243371797
1917.3371407482136 1596.3709527670444
1918.0184800003572 1755.9671875690142
1918.6996550543154 1704.405667132783
1919.3806659507554 1937.4721531472956
1920.0615127303208 1824.5294175111183
1920.7421954336423 1831.1636780068754
1921.4227141013343 1729.0148755350353
1922.103068773993 1689.9488737270967
1922.783259492202 1823.8848265261872
1923.4632862965227 1682.528875220082
1924.1431492275078 1609.0730923480755
1924.8228483256917 1624.1429964029921
1925.5023836315922 1780.1443400926041
1926.1817551857057 1453.898572814235
1926.8609630285227 1826.8563918936743
1927.5400072005123 1548.8708758252612
1928.218887742125 1568.988208150873
1928.8976046938005 1435.627391073078
1929.5761580959588 1714.6594156100462
1930.2545479890086 1680.8850736987883
1930.9327744133352 1627.3827463366183
1931.6108374093164 1807.134062616674
1932.2887370173066 1831.8833407190293
1932.9664732776473 1779.3142111765314
1933.6440462306673 1726.55953059177
1934.3214559166754 1531.8429618706477
1934.9987023759659 1578.881345131735
1935.675785648813 1625.989363465913
1936.3527057754836 1486.4065102191241
1937.029462796223 1632.2416468847096
1937.70605675126 1566.5375213840216
1938.3824876808085 1543.5349484005787
1939.058755625072 1473.8522899129853
1939.7348606242267 1670.9820182094784
1940.4108027184448 1602.276730687203
1941.0865819478713 1819.1297154685103
1941.7621983526478 1465.333871264926
1942.4376519728921 1450.721281899872
1943.1129428487038 1531.9350542022487
1943.7880710201734 1656.4903740940874
1944.4630365273733 1714.9649573579695
1945.1378394103576 1448.3719005325415
1945.8124797091714 1435.8714712948095
1946.4869574638324 1423.2960079877873
1947.161272714353 1538.4843910584248
1947.8354255007234 1708.8915648729442
1948.5094158629272 1607.9876476881182
1949.1832438409183 1643.2903176218138
1949.8569094746435 1688.3342808427321
1950.530412804037 1756.7130569460855
1951.2037538690092 1806.7789543945394
1951.8769327094578 1590.8995854737886
1952.5499493652678 1589.3428193300194
1953.222803876306 1599.386604047405
1953.895496282421 1536.3824440656563
1954.5680266234522 1479.0471960621394
1955.2403949392155 1629.1481699773617
1955.9126012695142 1464.413902034062
1956.5846456541403 1459.4879328856407
1957.2565281328643 1454.5741235087962
1957.9282487454457 1603.1029033203279
1958.5998075316202 1837.9526966146761
1959.27120453112 1690.6170887092035
1959.9424397836501 1581.298561448189
1960.613513328908 1671.7688752109668
1961.2844252065697 1692.7279078618958
1961.9551754563017 1739.1946169428215
1962.6257641177453 1451.6486443318495
1963.29619123054 1594.2007662826268
1963.966456834296 1465.3651922097242
1964.6365609686181 1474.1111845141345
1965.306503673086 1726.063566892431
1965.976284987275 1639.290915838253
1966.645904950734 1555.3393221672045
1967.315363603002 1361.7723025442815
1967.9846609836077 1661.3278665001767
1968.6537971320486 1627.4055924665
1969.3227720878222 1487.7343393001613
1969.9915858904042 1389.4298718914847
1970.660238579252 1684.3374180116011
1971.3287301938108 1646.4554414384863
1971.997060773514 1352.5619493913402
1972.665230357772 1541.4069944450323
1973.3332389859843 1333.5844089797815
1974.0010866975335 1463.5178841207896
1974.6687735317864 1664.1707872868003
1975.3362995280932 1639.8049802238045
1976.003664725793 1490.1289304870318
1976.6708691642052 1233.7136002782115
1977.3379128826364 1474.3576369203397
1978.004795920373 1599.718416491571
1978.6715183166925 1536.3769161762739
1979.3380801108524 1472.9583916660138
1980.0044813420973 1642.3993237033187
1980.6707220496555 1505.7454914066384
1981.3368022727373 1406.9706145733887
1982.0027220505417 1548.0626820056914
1982.66848142225 1434.3913276199578
1983.3340804270283 1592.9953528073631
1983.999519104027 1738.940448714899
1984.6647974923835 1671.4630992804323
1985.329915631215 1721.3550855273247
1985.99487355963 1709.9600433321139
1986.6596713167146 1673.3087145061713
1987.3243089415428 1614.358637298637
1987.9887864731754 1704.4677108636267
1988.6531039506553 1554.5633069141927
1989.3172614130071 1758.8755246729402
1989.9812588992481 1608.7955115446932
1990.645096448372 1493.8866087073973
1991.3087740993633 1531.6936036407674
1991.9722918911848 1469.253999027866
1992.635649862792 1486.8566559541912
1993.2988480531185 1699.481487052982
1993.9618865010852 1751.98309331698
1994.6247652455968 1630.6819301759479
1995.287484325545 1321.7899229651962
1995.9500437798033 1327.372201177308
1996.6124436472292 1333.0204231888388
1997.2746839666706 1649.4490002533742
1997.936764776954 1636.0988462255204
1998.598686116895 1792.7858558383523
1999.2604480252903 1792.8496968588952
1999.9220505409212 1447.7674708805266
2000.5834937025593 1272.503976385236
2001.2447775489582 1572.265387114559
2001.9059021188514 1451.159089391143
2002.5668674509616 1662.730923712549
2003.2276735839987 1583.5315565809933
2003.8883205566508 1522.7023090038742
2004.5488084075987 1465.87183191048
2005.2091371755014 1567.172208703581
2005.8693068990033 1470.0171242279926
2006.5293176167397 1533.3353969302664
2007.1891693673224 1526.4189714465933
2007.848862189354 1263.362351913535
2008.5083961214223 1397.6658677938885
2009.1677712020955 1509.4930891810295
2009.8269874699254 1548.8093616408003
2010.4860449634598 1648.778235277899
2011.1449437212177 1647.85638043572
2011.8036837817108 1647.0205515669945
2012.4622651834325 1653.5947529724174
2013.1206879648653 1825.8950077799502
2013.7789521644736 1767.7733761400473
2014.4370578207036 1396.1250832155397
2015.0950049719922 1466.6986600647056
2015.7527936567585 1708.3118186403117
2016.4104239134067 1593.566952574818
2017.067895780323 1840.1912853374608
2017.725209295886 1842.7724415764333
2018.3823644984514 1845.3159308118265
2019.0393614263648 1475.0119766522855
2019.6962001179545 1278.1129185968916
2020.3528806115355 1297.412469390236
2021.0094029454067 1316.771345028171
2021.6657671578487 1549.262008520353
2022.321973287133 1475.5198372469026
2022.9780213715148 1453.0409219331946
2023.6339114492293 1433.7948036682585
2024.2896435585026 1562.8338715413533
2024.9452177375442 1500.822782976235
2025.600634024544 1699.525405421294
2026.2558924576842 1538.3035839281017
2026.9109930751292 1683.7254701532177
2027.565935915025 1472.0997569210342
2028.2207210155066 1718.8217837652203
2028.8753484146964 1535.8239180110722
2029.529818150695 1384.8205231524153
2030.1841302615903 1524.4535834334768
2030.8382847854573 1421.8899590181113
2031.4922817603601 1321.0633472791208
2032.1461212243357 1572.4906181918245
2032.7998032154192 1413.1241010594792
2033.4533277716218 1476.0638976757834
2034.1066949309443 1459.8546236957704
2034.7599047313688 1645.8209751277693
2035.4129572108704 1813.2803865115195
2036.0658524074006 1653.8537107831169
2036.7185903589016 1581.2736219588214
2037.3711711032956 1679.6268730888926
2038.023594678496 1439.3334987157473
2038.675861122394 1372.2393156278936
2039.3279704728757 1371.5262688003895
2039.9799227678031 1370.9378008032204
2040.6317180450278 1524.5957625712522
2041.2833563423865 1398.851019387799
2041.9348376977014 1608.5627819784008
2042.5861621487784 1553.7770722211117
2043.2373297334088 1631.3839971533193
2043.8883404893695 1501.48863418369
2044.5391944544208 1498.5030878301277
2045.1898916663158 1582.5540080242774
2045.8404321627804 1584.925396238481
2046.4908159815368 1545.7345773986933
2047.1410431602853 1554.5365995148402
2047.7911137367173 1316.6558314281153
2048.441027748504 1317.3174289933197
2049.090785233302 1317.930555315231
2049.7403862287592 1457.7025844890516
2050.389830772503 1380.8835115028683
2051.0391189021466 1304.0311220655922
2051.688250655294 1413.765420477309
2052.337226069527 1532.714813833088
2052.986045182417 1655.3160589670963
2053.634708031521 1327.6708549529899
2054.283214654375 1584.6788088597057
2054.931565088511 1279.1582132182546
2055.579759371436 1374.0066338606775
2056.2277975406523 1375.139718836651
2056.8756796336384 1357.488374623499
2057.5234056878617 1339.6389898461991
2058.1709757407752 1361.7773628849957
2058.8183898298194 1353.161710884358
2059.465647992416 1423.6922012406828
2060.1127502659747 1494.1386361840546
2060.759696687888 1535.087566558453
2061.4064872955405 1749.4542533881443
2062.053122126292 1603.5040508132283
2062.699601217497 1328.3536161410843
2063.345924606485 1614.4959293489846
2063.992092330587 1522.0175138183513
2064.638104427102 1510.1123882974439
2065.283960933324 1457.3655700663114
2065.92966188653 1529.5304250400832
2066.5752073239855 1490.4161890213652
2067.2205972829397 1302.3635343973922
2067.86583180062 1404.15484828714
2068.5109109142522 1450.303242712442
2069.15583466104 1534.6421024867473
2069.8006030781708 1619.0610130213406
2070.445216202821 1514.987387246671
2071.089674072153 1672.976169575632
2071.7339767233116 1539.1696728363625
2072.3781241934303 1523.9081995150468
2073.0221165196253 1652.489161346047
2073.6659537390024 1527.7191773830543
2074.3096358886505 1544.5678133323254
2074.953163005637 1307.6671583337884
2075.596535127028 1390.856736640478
2076.2397522898664 1364.2718002572526
2076.882814531182 1436.1757297037552
2077.5257218879924 1597.5800932750876
2078.1684743973 1303.8093961956945
2078.8110720960885 1251.8222680116162
2079.453515021336 1594.8016745263121
2080.095803209997 1596.861175135427
2080.7379366990135 1357.4333041150046
2081.37991552532 1277.6083857292863
2082.0217397258275 1440.5181072091907
2082.6634093374414 1327.2631116296627
2083.3049243970418 1528.4618659691641
2083.9462849415067 1430.2712076617934
2084.587491007689 1538.5609635309206
2085.2285426324324 1560.5413730529835
2085.869439852564 1557.2261112279066
2086.510182704902 1594.4301696670677
2087.1507712262483 1631.7049873386698
2087.791205453381 1389.8182962545268
2088.4314854230743 1443.1511024061253
2089.0716111720867 1472.1829821776141
2089.7115827371617 1344.492684688626
2090.351400155023 1386.3356783115366
2090.991063462385 1428.3235039772296
2091.6305726959527 1427.3837718719424
2092.2699278924047 1451.5760606241424
2092.9091290884153 1475.8749981958422
2093.548176320641 1304.5771852624525
2094.187069625721 1383.1971639939181
2094.8258090402887 1461.9892411423014
2095.464394600951 1655.822806774555
2096.102826344313 1431.1828142330683
2096.741104306955 1325.2870251148775
2097.379228525453 1219.1582915642355
2098.017199036358 1390.0489438661925
2098.6550158762147 1604.9123395944748
2099.2926790815527 1362.4262900364477
2099.9301886888825 1359.1704616972495
2100.5675447347076 1553.3562849514774
2101.2047472555114 1791.74158638915
2101.841796287761 1457.1201939320658
2102.47869186792 1395.8077316694776
2103.1154340324265 1443.62884440373
2103.752022817709 1534.3612455531302
2104.388458260184 1470.5901229355024
2105.024740396251 1497.242086459361
2105.660869262292 1440.4803143776032
2106.296844894685 1517.3562071074698
2106.93266732978 1538.2573198935256
2107.5683366039284 1378.507456120833
2108.2038527534532 1293.9041612416634
2108.8392158146726 1635.0805179317097
2109.4744258238843 1488.1696761942544
2110.1094828173755 1389.023871242172
2110.744386831422 1407.0850417199176
2111.3791379022787 1425.2162733193302
2112.01373606619 1677.0961704636363
2112.648181359389 1510.0150737699616
2113.28247381809 1409.0617536212494
2113.916613478492 1437.5219886366049
2114.550600376786 1547.30954183951
2115.1844345491445 1513.867387436266
2115.818116031729 1472.9594743109562
2116.451644860679 1363.6728130674996
2117.085021072133 1365.0292487493448
2117.718244702204 1287.0013983951505
2118.3513157869984 1272.2756598591654
2118.984234362604 1257.4647830513236
2119.617000465092 1478.6935334538693
2120.249614130529 1455.3711324410797
2120.8820753949585 1479.8018713857534
2121.5143842944162 1402.536042082165
2122.14654086492 1371.8733869498642
2122.7785451424734 1458.0073354728188
2123.4103971630702 1256.670950089951
2124.042096962681 1235.4184106277573
2124.6736445772767 1214.2239270685743
2125.305040042802 1394.920605656314
2125.936283395191 1588.4707931619819
2126.567374670365 1378.8402070004572
2127.198313904233 1272.6788941667942
2127.8291011326855 1454.02456969726
2128.4597363916037 1317.5760673515274
2129.0902197168507 1278.943823256367
2129.720551144279 1319.7603750945927
2130.3507307097225 1455.1683852856154
2130.980758449008 1527.1204694622306
2131.6106343979427 1531.7593272772583
2132.2403585923203 1536.3241188437694
2132.8699310679276 1537.0939243644114
2133.499351860526 1516.61191967471
2134.1286210058715 1639.767192395787
2134.7577385397053 1556.8723429151528
2135.3867044977487 1473.9605276008035
2136.0155189157176 1473.6256584846503
2136.644181829308 1454.604640750503
2137.2726932742025 1223.8733166426664
2137.901053286074 1297.5937914364647
2138.5292619005777 1371.4914085562723
2139.1573191533535 1449.3268739726996
2139.7852250800315 1606.5491842623896
2140.4129797162295 1672.2154575648178
2141.0405830975433 1235.3995788446196
2141.6680352595613 1716.987956885765
2142.2953362378576 1312.2329677335933
2142.9224860679915 1299.6139327459591
2143.549484785508 1298.3562432149415
2144.1763324259373 1609.7496121032025
2144.803029024799 1411.0797190539547
2145.429574617594 1337.5223376662398
2146.0559692398165 1549.3212540206366
2146.682212926942 1285.0136004208605
2147.308305714432 1373.5726823022833
2147.9342476377333 1560.091629111743
2148.5600387322847 1569.9108234832331
2149.185679033506 1472.8160911603977
2149.8111685768017 1453.411562967836
2150.4365073975678 1264.5193583066532
2151.061695531187 1588.4989293313017
2151.686733013021 1454.6183265365444
2152.311619878423 1505.9878360166583
2152.9363561627342 1314.2645319194432
2153.560941901278 1279.7084776449362
2154.1853771293663 1523.2908643572202
2154.809661882293 1624.6297180624872
2155.433796195348 1451.0276505087168
2156.0577801037944 1322.013216982057
2156.681613642895 1530.8806469167737
2157.3052968478896 1424.7075846927926
2157.928829754006 1332.5901578946462
2158.552212396462 1470.852188853879
2159.1754448104566 1287.3910673476935
2159.7985270311783 1250.757181850718
2160.4214590938027 1318.647255528772
2161.0442410334927 1118.3645014764452
2161.6668728853874 1439.609329071269
2162.289354684628 1426.6854009749288
2162.911686466332 1527.6144562592217
2163.533868265602 1376.1750438402125
2164.1559001175337 1535.4847580945689
2164.7777820572046 1509.501121653015
2165.399514119681 1308.1688810246949
2166.021096340013 1412.4682616321616
2166.6425287532384 1151.5960420540237
2167.263811394385 1290.5212921691477
2167.8849442984574 1158.8694793930922
2168.505927500455 1256.5654293394896
2169.126761035366 1512.5684458593114
2169.7474449381552 1425.5819003675322
2170.367979243778 1220.6842598549842
2170.9883639871823 1361.2778620490526
2171.608599203293 1388.0933033786619
2172.2286849270276 1570.0308704646197
2172.8486211932886 1664.2358205340759
2173.4684080369625 1304.0416504479888
2174.0880454929265 1310.9629866061484
2174.7075335960417 1407.702179773788
2175.3268723811543 1536.4258086805235
2175.9460618831 1550.2853469945471
2176.565102136701 1269.8526769980856
2177.1839931767627 1335.9126719114015
2177.802735038078 1402.1664388787008
2178.421327755432 1245.6127162822206
2179.0397713635866 1340.5533201616277
2179.658065897298 1123.3770899830256
2180.276211391305 1438.7895020041024
2180.8942078803357 1409.7126416517885
2181.5120553991 1467.5695864638544
2182.129753982299 1250.6377378641134
2182.7473036646206 1503.0663776191184
2183.3647044807367 1496.7254227709495
2183.9819564653044 1199.7922256486486
2184.599059652968 1497.636288189265
2185.216014078367 1593.9049767255685
2185.832819776113 1513.4610646841647
2186.4494767808137 1432.7396054519693
2187.065985127063 1481.6492042385485
2187.682344849436 1491.2264237341685
2188.298555982501 1636.2923093414504
2188.9146185608097 1511.4323214420774
2189.530532618901 1446.0943774834202
2190.1462981912937 1361.6252337979126
2190.761915312507 1388.619110902528
2191.377384017036 1550.5246243505496
2191.9927043393654 1404.7705363272871
2192.6078763139667 1123.7327129940393
2193.2228999753006 1178.1169009290895
2193.837775357808 1232.6316236033488
2194.452502495922 1231.1535230568786
2195.0670814240602 1396.7847399330512
2195.6815121766285 1361.1730615433198
2196.2957947880186 1483.3302714588683
2196.9099292926057 1330.9456410684784
2197.523915724758 1509.7388863116705
2198.137754118825 1448.0071087344754
2198.7514445091456 1588.8175941686875
2199.3649869300443 1327.0693027749955
2199.9783814158327 1432.2653270486326
2200.5916280008096 1777.0666730427365
2201.2047267192593 1622.7777574080833
2201.8176776054515 1387.691982269035
2202.430480693649 1296.4307271179446
2203.0431360180955 1291.151969098451
2203.6556436130195 1390.3001996017922
2204.268003512645 1153.8032626910965
2204.8802157511727 1375.9780217503496
2205.492280362796 1572.2836224527846
2206.1041973816937 1470.9938887484175
2206.715966842032 1599.3421784162406
2207.3275887779655 1531.4095503769638
2207.93906322363 1463.1388557348332
2208.550390213153 1379.0043589865136
2209.1615697806465 1418.4434819671278
2209.7726019602105 1146.0778961361596
2210.3834867859277 1330.3298910178894
2210.9942242918787 1414.3788539114753
2211.6048145121167 1290.717123735562
2212.2152574806914 1364.0349081851505
2212.825553231638 1437.4313592919862
2213.435701798975 1771.970484848504
2214.045703216707 1465.89897671099
2214.655557518832 1278.5971067619978
2215.2652647393297 1232.9549287309628
2215.874824912169 1279.649289038189
2216.4842380713 1326.597050769531
2217.09350425067 1272.7565246791953
2217.7026234842033 1443.8741652066597
2218.311595805819 1265.9930065710962
2218.9204212494133 1448.8637726637214
2219.52909984888 1566.306304092486
2220.137631638092 1529.3374933148639
2220.7460166509154 1492.1951911359422
2221.354254921198 1485.020418103265
2221.9623464827764 1565.340704017095
2222.5702913694713 1325.456648420382
2223.178089615096 1292.1813726949035
2223.7857412534486 1345.1961321905803
2224.39324631831 1280.1773346342864
2225.000604843457 1210.6825396876552
2225.607816862641 1301.9144898484917
2226.214882409611 1393.222272245603
2226.8218015180973 1404.3630201253245
2227.4285742218217 1439.9959878049754
2228.0352005544864 1475.5843600292787
2228.6416805497847 1325.8146763201485
2229.248014241399 1246.8354970962278
2229.8542016629945 1167.7756762378065
2230.460242848223 1400.4465896602674
2231.0661378307304 1466.552068443042
2231.671886644139 1316.4406342011052
2232.277489322065 1227.1893724733716
2232.8829458981127 1339.1874728687678
2233.48825640587 1451.3367118395263
2234.0934208789095 1589.115600116827
2234.6984393507955 1607.6600674083554
2235.3033118550793 1579.626768562044
2235.9080384252975 1472.8372240426468
2236.5126190949723 1151.3474954707283
2237.1170538976166 1277.9128463700356
2237.721342866729 1267.990159540337
2238.32548603579 1258.053171401049
2238.9294834382763 1508.0458879104212
2239.533335107646 1466.737810580169
2240.1370410773434 1425.348934444809
2240.740601380803 1407.3786490952593
2241.3440160514474 1364.4178697706036
2241.9472851226783 1372.876034273968
2242.550408627896 1259.22911460786
2243.1533866004793 1571.0648283781186
2243.756219073799 1450.0702453684855
2244.3589060812064 1269.8668510502223
2244.961447656049 1272.47976003997
2245.5638438316564 1455.45292223739
2246.166094641343 1289.6480391925595
2246.7682001184166 1341.2533322211327
2247.3701602961664 1335.1673687341392
2247.971975207871 1348.360205708946
2248.5736448867974 1282.8313960677617
2249.175169366197 1428.2328876620925
2249.7765486793123 1305.9791065909576
2250.3777828593684 1649.543381979293
2250.9788719395783 1600.0949659507125
2251.579815953146 1529.6073976469688
2252.1806149332606 1244.072825144814
2252.781268913097 1389.6727115440453
2253.381777925817 1157.4364204079316
2253.9821420045737 1201.49279802324
2254.5823611825035 1619.6021628301628
2255.1824354927303 1351.2106230650954
2255.782364968365 1313.9278774439288
2256.38214964251 1276.634470915892
2256.9817895482483 1270.0818573070533
2257.5812847186553 1454.2180689188333
2258.180635186791 1273.6027446087921
2258.779840985704 1455.1257924576605
2259.37890214843 1375.1241214165163
2259.97781870799 1459.1969889248535
2260.5765906973957 1373.0600204627162
2261.175218149645 1224.8907852599148
2261.773701097718 1180.6552580219459
2262.3720395745895 1136.3119781094204
2262.970233613216 892.1493989364975
2263.568283246548 1351.6179952829948
2264.1661885075137 1266.2509380595952
2264.763949429038 1523.403093670167
2265.3615660440246 1290.7877853679051
2265.959038385374 1215.7687599688802
2266.5563664859637 1411.145973422804
2267.153550378669 1213.0271714097412
2267.7505900963424 1192.7375310474206
2268.3474856718312 1327.877674089989
2268.9442371379664 1356.6235337222163
2269.5408445275643 1164.1686025543745
2270.1373078734377 1275.4229329595519
2270.7336272083758 1328.7906723989556
2271.32980256516 1233.7270540897885
2271.925833976562 1314.7112631176337
2272.5217214753357 1296.0939893049303
2273.117465094223 1277.4135733766755
2273.7130648659586 1209.4828912333305
2274.308520823257 1246.060188670635
2274.903832998827 1519.932974411528
2275.4990014253563 1217.6432611773762
2276.094026135528 1624.7125437975333
2276.6889071620117 1591.4428619802295
2277.2836445374614 1558.041443287093
2277.878238294519 1226.6198804886062
2278.472688465812 1198.143044758485
2279.066995083962 1169.582912700459
2279.6611581815705 1437.190717286804
2280.255177791232 1549.2402923673112
2280.8490539455233 1661.528420705202
2281.442786677013 1666.0569664815976
2282.0363760182554 1606.9092531583156
2282.6298220017943 1312.5626425698206
2283.223124660155 1413.740478016039
2283.816284025859 1327.89768237037
2284.4093001314086 1637.2962162869587
2285.002173009292 1550.0400008020192
2285.5949026919952 1462.5763198500513
2286.1874892119777 1329.3957907902154
2286.7799326016993 1552.2475226448455
2287.3722328936 1484.7267661411906
2287.964390120109 1416.964864500238
2288.556404313642 1232.4485557607084
2289.1482755066027 1307.564822689506
2289.7400037313873 1237.642386257006
2290.3315890203703 1385.4133033579105
2290.9230314059205 1309.1069421022253
2291.5143309203904 1232.7175722759334
2292.1054875961236 1194.2352403969778
2292.6965014654506 1336.318899127694
2293.287372560684 1351.9200624186028
2293.878100914131 1374.766802076641
2294.468686558086 1397.7065991428117
2295.059129524827 1268.8174238730667
2295.649429846617 1564.7940843147449
2296.239587555716 1657.3267669486904
2296.8296026843636 1432.4241289521508
2297.419475264791 1401.8569550007396
2298.0092053292137 1371.1458560836545
2298.598792909839 1359.4936794932485
2299.1882380388597 1294.8928644781497
2299.777540748455 1497.7030064340101
2300.3667010707904 1686.2600262958645
2300.9557190380256 1225.2022415734357
2301.544594682302 1574.1985097062839
2302.1333280357503 1567.8056648374038
2302.721919130485 1561.4339871011198
2303.3103679986198 1342.1009043588683
2303.898674672242 1290.7519522770397
2304.486839183437 1239.4780072598444
2305.0748615642697 1498.5486731062667
2305.6627418468015 1120.9223882298036
2306.2504800630704 997.7857113121241
2306.8380762451143 1380.5856810439725
2307.425530424949 1526.2702199475239
2308.012842634582 1672.27725203842
2308.6000129060103 1396.6863233833126
2309.187041271214 1742.6960466793848
2309.773927762164 1427.5508165130288
2310.3606724108213 1207.7796847309994
2310.9472752491274 1254.8955687566731
2311.5337363090184 1271.1375554879326
2312.120055622414 1196.7179907835493
2312.706233221221 1122.115557807691
2313.2922691373424 995.7016246750347
2313.8781634026564 1127.345691557351
2314.463916049037 1259.2941081103108
2315.049527108342 1163.7805630056703
2315.6349966124235 1402.2405515167015
2316.2203245931123 1555.5181797259302
2316.8055110822315 1318.0075444045797
2317.3905561115935 1218.7081719058665
2317.9754597129977 1191.9491414535332
2318.560221918229 1378.7330471289756
2319.1448427590603 1458.2231215056486
2319.729322267256 1456.6332404213756
2320.313660474563 1455.1139821091954
2320.8978574127195 1636.6946290796018
2321.481913113452 1378.9926239696222
2322.0658276084705 1214.070081526745
2322.6496009294806 1329.400830587902
2323.233233108165 1533.7425267929684
2323.8167241762058 1502.3904275528926
2324.4000741652617 1403.7775602063145
2324.983283106987 1632.3952536284264
2325.5663510330232 1546.9003964172691
2326.1492779749933 1540.1674410015412
2326.7320639645204 1545.0233018702604
2327.3147090332004 1634.0300877121322
2327.897213212629 1722.9973622339264
2328.4795765343843 1421.756720907961
2329.0617990300307 1260.3716689247105
2329.643880731124 1435.3651742997486
2330.22582166921 1405.876529016815
2330.807621875816 1493.3112616841122
2331.3892813824623 1228.4274609728652
2331.9708002206517 1472.1722880950774
2332.5521784218818 1345.394593474244
2333.133416017634 1551.6379228704534
2333.7145130393765 1301.3999263042388
2334.295469518571 1399.9147164337262
2334.876285486658 1367.3315759674683
2335.456960975076 1211.7602468182158
2336.037496015242 1413.1224139868862
2336.6178906385667 1329.1761467951906
2337.198144876451 1223.645082122804
2337.778258760278 1117.8736889863492
2338.3582323214214 1110.59850424723
2338.938065591243 1359.4600784617148
2339.517758601087 1269.7550071364674
2340.0973113822965 1179.8016003680991
2340.676723966193 1122.3884576241278
2341.255996384094 1251.3128242508885
2341.835128667295 1307.8964150863699
2342.4141208470883 1298.844262526064
2342.992972954751 1211.8396645113853
2343.5716850215467 1299.7521560198306
2344.1502570787306 1071.9530475002643
2344.7286891575386 1137.2252161821245
2345.3069812892045 1331.1937525801318
2345.885133504944 1159.998733923851
2346.4631458359618 1309.7109016221339
2347.04101831345 1196.4544236119134
2347.6187509685915 1205.91763172491
2348.196343832553 1265.959846353748
2348.7737969364935 1045.0431562785063
2349.351110311558 1316.4311657406959
2349.9282839888765 1163.4912422497023
2350.5053179995757 1106.5930889502447
2351.0822123747585 1278.089165466226
2351.658967145526 1177.5223627431965
2352.2355823429643 1344.2336385854928
2352.812057998144 1385.8408191662497
2353.3883941421263 1295.851940030028
2353.9645908059647 1207.4987967478396
2354.540648020693 1212.3054475404256
2355.116565817336 1217.1519913617371
2355.6923442269126 1248.4863153205736
2356.2679832804224 1198.6402482498263
2356.8434830088518 1238.8223460353502
2357.41884344318 1197.6260008126721
2357.994064614377 1237.7854716609309
