#exp_cfg={"servo_angle": 0.0, "laser_lim": 100.0, "servo_angle_to": 18.0, "laser_wup": 0.0, "bt_dev": "EnSpectr-25AE3", "laser_wdn_max": 0.0, "frames": 10.0, "servo_used": 0, "servo_calib_use": 0, "laser_wdn_min": 0.0, "servo_pix_from": 90.0, "cooler_tout": 300.0, "servo_angle_from": 0.0, "servo_calib": "[-1.9174921013161362e-09, 3.9322238269163779e-05, -0.27385609119055809, 653.59552119713567]", "laser_autoctl": 0, "servo_pix_to": 3682.0, "laser_pw": 100.0, "cooler_on": 0, "laser_volt": 4.0, "cooler_autoctl": 0, "cooler_curr": 70.0, "cooler_startup": 10.0, "laser_fixed_pw": 0, "gain": 1.3, "offset": 2.53059635486, "servo_calib_degree": 3.0, "laser_curr": 55.0, "shutter": 8200.0, "servo_calib_step": 1.0, "laser_fixed_curr": 0, "exp": 2000.0, "ccd_volt": 4.7, "bt_addr": "00:06:66:62:5A:E3", "servo_delay": 500.0, "laser_autooff": 1}
#proc_cfg={"flat_auto_wnd": 200.0, "flat_auto_fr": 200.0, "flat_auto_shift": 5.0, "yconv": 1, "flatten": 1, "flatten_strength": 100.0, "xfrom": 300.0, "auto_max_frame": 2000.0, "auto_signal": 48000.0, "flat_auto_tol": 0.1, "autoclip": 1, "xrel_range": 0.0, "flat_auto_to": 4000.0, "intensity_adj": 1.0, "xrel": 7852.0, "rmhot": 1, "flat_auto_slit": 4.999999999999997, "auto_ini_exp": 300.0, "auto_off": 0, "xto": 2860.0, "flat_auto_ref": "", "flat_auto_rank": 1, "autobackg": 0, "xrel_adj": 0.0, "auto_black_lvl": 1, "base_wnd": 100.0, "sub_baseline": 0, "xconv": 2, "auto_max_exp": 1000.0, "auto_total_exp": 10000.0, "auto_exp": 0, "rmripple": 0, "black_lvl": 8243.8375, "shutter_clip_adj": 0.0, "auto_bckg": 0, "flat_auto_thr": 0.9, "subbackg": 1}
316.8218498245369 26902.39520634962
317.89969571804795 26707.933235473385
318.977263876126 26540.909133737536
320.05455438786703 26376.53426079551
321.1315673423287 26343.914040374442
322.2083028285215 26369.349126781635
323.2847609354267 26068.73265527652
324.3609417519747 25995.992120676743
325.43684536705587 25915.81990289823
326.5124718695279 25778.87789611823
327.58782134820103 25605.230544474613
328.66289389184385 25643.848263961223
329.7376895891921 25471.200918823673
330.8122085289342 25395.020789320686
331.88645079971866 25270.16330582754
332.9604164901575 25148.456393541666
334.03410568881554 25205.039811297873
335.1075184842266 25270.61038415454
336.18065496487543 24897.51545264362
337.2535152192122 24870.485068364404
338.32609933564163 24769.343267613345
339.39840740253203 24766.13864776054
340.4704395082099 24672.31925370047
341.5421957409617 24600.91412020275
342.6136761890357 24695.237704368104
343.6848809406365 24620.26913441728
344.75581008392874 24469.765029491326
345.82646370703696 24387.813786649225
346.8968418980512 24375.08065860665
347.96694474501055 24431.344138133936
349.0367723359268 24476.54590972955
350.106324758759 24399.21211329287
351.1756021014353 24294.470624816142
352.2446044518383 24368.31886945868
353.31333189781435 24376.330315225874
354.38178452716966 24331.04670068823
355.449962427665 24225.054845795945
356.51786568702846 24179.501904298755
357.58549439294256 24339.41301675417
358.6528486330535 24201.75352949188
359.71992849496564 24125.957388603456
360.7867340662433 24131.92978180025
361.8532654344144 24097.593674790467
362.9195226869597 24383.066650377732
363.9855059113288 24166.918355679732
365.05121519492604 24225.531354185838
366.11665062511565 24316.77558399221
367.1818122892273 24384.84467433191
368.2467002745434 24325.385018369678
369.31131466831175 24473.228206356074
370.375655557742 24442.661009935466
371.4397230299983 24447.664758030027
372.5035171722102 24418.356135376922
373.5670380714637 24422.854363890234
374.6302858148101 24578.289557172226
375.6932604892554 24473.241652114848
376.7559621817709 24589.13349392836
377.81839097928605 24463.130090663508
378.8805469686886 24397.002311758773
379.94243023683157 24335.72254710744
381.0040408705263 24390.686508919498
382.0653789565458 24437.49103543834
383.1264445816196 24341.11295069407
384.1872378324406 24375.616611250367
385.2477587956637 24355.313969311705
386.3080075579037 24238.847455171624
387.3679842057336 24146.92778592089
388.4276888256918 24196.50587816578
389.48712150426945 24278.824543880117
390.54628232792857 24266.932529008373
391.6051713830857 24125.556622528504
392.66378875611736 24219.669072583365
393.7221345333637 24136.617789876418
394.7802088011249 24009.985105417112
395.838011645661 24040.283958427935
396.89554315319765 23928.700526669163
397.9528034099112 23872.78714394809
399.00979250194723 23836.34693385912
400.06651051541485 23794.70398966592
401.1229575363741 23702.101895971784
402.17913365085224 23772.54523849595
403.23503894483656 23755.829456869076
404.2906735042761 23609.41668532624
405.3460374150818 23717.16631974758
406.401130763119 23703.904963806875
407.455953634224 23841.681724386915
408.5105061141876 23832.035682164387
409.56478828876243 23606.291442525086
410.6188002436629 23756.463534376067
411.6725420645689 23682.691673928533
412.72601383711117 23848.840131983197
413.77921564689314 24042.66088854351
414.8321475794728 23870.57675385848
415.88480972036814 23711.13433879659
416.93720215506437 23799.381970192764
417.9893249690049 23699.158095625513
419.04117824759123 23564.936400013088
420.09276207619223 23643.851455178363
421.144076540133 23642.431715456092
422.1951217247042 23585.649134313277
423.24589771515275 23496.34377474801
424.2964045966928 23435.051312617117
425.34664245449494 23549.196387240914
426.3966113736933 23439.75554131449
427.4463114393875 23403.427390543035
428.49574273662984 23216.133719990194
429.5449053504417 23235.581759651857
430.5937993658026 23318.618101397802
431.6424248676558 23119.604820103
432.6907819409007 23326.82636471805
433.73887067040596 23160.821110752317
434.7866911409965 23289.74133424849
435.8342434374608 23152.821100188074
436.88152764455117 23066.016169210634
437.9285438469724 23126.241777146395
438.9752921294057 23071.711341708
440.02177257648145 23043.822042877153
441.06798527279716 22887.129134691153
442.1139303029122 22991.486412205748
443.1596077513459 23066.011648385975
444.2050177025794 23079.05452749449
445.25016024105753 23014.95578872991
446.2950354511886 22891.57820710851
447.33964341733736 22991.96710667497
448.383984223834 22964.086645190393
449.4280579549686 22857.21918929469
450.471864694995 22846.093613301076
451.5154045281306 22804.366639741795
452.5586775385509 22800.104283207096
453.60168381039693 22788.5469280097
454.64442342776783 22924.703151521564
455.6868964747264 22756.074050542426
456.7291030353008 22797.262577023346
457.77104319347563 22863.827603638103
458.8127170332027 22818.422649755266
459.854124638392 22851.139940854846
460.895266092919 22951.451918116647
461.93614148061897 22916.63908913699
462.97675088529104 22982.71176481109
464.01709439069236 23009.611445834096
465.0571720805492 22862.060248798927
466.0969840385442 22964.10911374003
467.1365303483253 22910.60182301113
468.17581109350067 22918.005394945034
469.2148263576437 22992.712847510236
470.2535762242878 23146.21861923836
471.29206077693016 23171.337312391253
472.33028009902773 23277.210090015007
473.3682342740012 23426.51975341251
474.40592338523857 23535.8073659167
475.4433475160804 23609.020224674172
476.4805067498364 23690.059998066048
477.51740116978 23754.492449931542
478.5540308591426 23919.38601262676
479.59039590112116 24000.564872085157
480.6264963788726 24008.06807587887
481.6623323755193 24211.347103297547
482.6979039741436 24196.848798519324
483.7332112577915 24369.462032821717
484.76825430947247 24527.441341087764
485.80303321215797 24839.77326038738
486.837548048783 24967.376914156725
487.8717989022425 25090.1602341838
488.90578585539697 25211.33581033441
489.9395089910686 25423.624661997637
490.97296839203955 25422.57668064001
492.00616414106116 25416.995757104007
493.0390963208429 25458.10124326357
494.0717650140559 25424.348266084857
495.10417030333883 25399.73838887308
496.1363122712901 25240.056699773522
497.16819100046814 25005.527129219707
498.1998065734024 24895.24899494771
499.2311590725767 24840.03648658763
500.26224858044407 24472.04720511895
501.2930751794156 24337.789130663816
502.3236389518679 24256.480030199553
503.35393998014115 24015.486339621744
504.38397834653733 23859.756077087357
505.4137541333221 23775.937872640916
506.4432674227228 23491.03200080679
507.4725182969323 23375.396025666825
508.5015068381035 23179.130405145002
509.53023312835467 23206.128755656748
510.55869724976765 23048.986066326655
511.58689928438434 22730.19603091675
512.6148393142121 22577.998691723016
513.6425174212218 22572.2963545109
514.6699336873462 22567.900690099843
515.6970881944835 22675.42382694165
516.7239810244901 22361.557417743177
517.7506122591931 22253.597608332613
518.7769819803761 22409.668114704058
519.8030902697901 22254.010912693942
520.8289372091476 22326.498243138216
521.8545228801249 22302.095674707416
522.8798473643619 22175.438006833043
523.9049107434621 22251.75652446461
524.9297130989908 22105.965722262332
525.9542545124805 22109.967299222353
526.9785350654201 21988.01202868334
528.0025548392696 22063.833171870137
529.0263139154504 21971.88812581886
530.0498123753423 22088.793024736002
531.073050300296 21845.889162088708
532.0960277716204 21967.294921988265
533.1187448705896 21858.443679316904
534.1412016784416 21874.966116690135
535.1633982763833 21958.80068797891
536.1853347455726 21747.054686642754
537.2070111671401 21758.655189032714
538.2284276221817 21871.75364676242
539.2495841917516 21712.553951068454
540.2704809568677 21623.639458249887
541.2911179985167 21604.181997303433
542.3114953976419 21486.58026262847
543.3316132351592 21585.289151931203
544.3514715919409 21436.19364296617
545.3710705488247 21411.987637473318
546.3904101866156 21492.744470239486
547.4094905860784 21500.951457682353
548.4283118279418 21341.92383079361
549.4468739929034 21443.121719422565
550.4651771616191 21356.463674113063
551.4832214147063 21358.445936664906
552.501006832761 21432.55568680357
553.5185334963226 21380.953156186737
554.5358014859103 21394.424524794955
555.5528108820035 21409.42559731342
556.5695617650363 21360.74017511658
557.5860542154242 21688.322796752997
558.6022883135283 21572.5531279528
559.6182641396881 21501.43380825275
560.6339817741991 21428.637116102873
561.6494412973225 21747.432535631673
562.6646427892883 21625.548663591297
563.6795863302796 21589.307101870007
564.694272000459 21421.260618790933
565.7086998799423 21503.02346987857
566.7228700488104 21494.61152646277
567.7367825871115 21344.935345452664
568.7504375748576 21456.81828067048
569.7638350920224 21473.25367542992
570.7769752185486 21362.793554989523
571.7898580343353 21343.579728615354
572.802483619258 21311.589260875735
573.8148520531431 21497.861405187687
574.8269634157932 21649.567569898114
575.8388177869692 21582.30944934916
576.8504152463938 21604.853153724485
577.8617558737587 21779.6341756694
578.8728397487175 21973.84913561226
579.883666950891 22096.216532447936
580.8942375598654 22104.575011568
581.9045516551851 22349.50278744059
582.9146093163617 22677.435514860405
583.924410622878 22694.046999251572
584.9339556541727 22770.306421046975
585.9432444896538 23049.14107278103
586.9522772086875 22944.068441013045
587.9610538906127 23083.0980650144
588.9695746147318 23038.4167263249
589.9778394603054 23125.467652367348
590.985848506567 23184.102204455485
591.9936018327098 23144.086544825506
593.0010995178891 22772.291278632336
594.0083416412344 22798.6358836742
595.0153282818283 22659.161034549405
596.0220595187293 22508.68849490255
597.0285354309508 22397.298661066678
598.0347560974806 22287.080088599836
599.0407215972609 22238.029986834612
600.0464320092051 22203.421813206434
601.0518874121954 22124.46658697677
602.0570878850685 22056.235881870936
603.062033506636 22186.952565538253
604.0667243556636 22159.990130692964
605.0711605108936 22001.454259802467
606.0753420510264 22256.190913377046
607.0792690547278 22133.763687668175
608.082941600629 22370.65963606154
609.0863597673306 22113.486148639768
610.0895236333909 22442.23239614125
611.0924332773357 22641.329463542857
612.0950887776617 22666.063486561576
613.0974902128219 22920.350949243468
614.0996376612384 22931.85721007286
615.1015312013005 23086.514884884375
616.1031709113595 23268.58664738466
617.1045568697336 23165.866401476433
618.1056891547069 23467.742203539277
619.1065678445229 23726.32369888214
620.1071930173985 24124.585153345957
621.1075647515099 24206.098550811803
622.1076831250048 24313.31931818075
623.1075482159849 24706.62724362766
624.1071601025305 24879.877103832958
625.1065188626781 25167.805802533283
626.105624574433 25612.046731454793
627.1044773157682 25607.447657550852
628.1030771646128 25891.570945212155
629.1014241988742 26159.683135100106
630.0995184964158 26352.84594155133
631.0973601350688 26579.572505564494
632.0949491926294 26782.06710151482
633.0922857468631 26720.07180899441
634.089369875499 26719.69205827127
635.0862016562278 26866.537918570993
636.0827811667077 26669.078053019643
637.0791084845641 26671.603650005643
638.0751836873878 26596.181054806377
639.0710068527369 26446.67447318453
640.0665780581294 26175.827316344825
641.0618973810506 25880.10891426758
642.0569648989604 25768.005795991532
643.0517806892676 25637.369785119245
644.0463448293649 25349.89577022647
645.040657396592 25229.680023586523
646.0347184682723 25070.794486230927
647.0285281216875 24885.067198734985
648.0220864340772 24796.371855380617
649.0153934826558 24598.918910880748
650.0084493446047 24390.455075207858
651.0012540970674 24207.885678442926
651.9938078171526 24102.087561202272
652.9861105819346 24021.987215359186
653.9781624684565 23862.693440334675
654.9699635537254 23691.695900848372
655.9615139147136 23580.062874263538
656.9528136283589 23547.637854402343
657.9438627715699 23586.346702811934
658.9346614212154 23325.618138121383
659.925209654135 23214.336348085715
660.9155075471263 23342.646466170852
661.9055551769616 23152.223763801903
662.895352620375 23235.333406191632
663.8848999540678 23149.237708220135
664.8741972547068 22912.424950454282
665.863244598926 22892.995408986033
666.8520420633213 23016.14158590293
667.8405897244611 22996.5045185829
668.8288876588758 22783.956125174045
669.8169359430613 22899.741188340697
670.8047346534822 22854.702469497985
671.7922838665672 22725.29132906581
672.7795836587156 22823.85845327688
673.766634106285 22713.078654080433
674.7534352856092 22604.91120473905
675.7399872729766 22527.875622675507
676.7262901446538 22605.57725623505
677.712343976862 22410.079719324836
678.6981488457986 22565.97100510385
679.6837048276229 22474.58920472113
680.6690119984596 22514.099865299173
681.6540704344043 22450.86967514955
682.6388802115107 22319.838688126805
683.6234414058108 22454.890911727605
684.6077540932874 22369.91135763775
685.591818349907 22422.528752008406
686.575634251587 22201.650494596797
687.5592018742263 22290.829433383828
688.5425212936734 22216.11545359262
689.5255925857564 22249.619591126997
690.5084158262707 22173.688888012206
691.4909910909646 22069.863693526582
692.4733184555644 21944.257226645663
693.4553979957618 21907.752178379153
694.4372297872123 22019.962044755877
695.4188139055404 21791.042769129468
696.4001504263324 21714.012017152658
697.3812394251509 21733.124891461735
698.3620809775111 21622.752413021524
699.3426751589104 21754.58243588386
700.3230220448004 21651.546486445975
701.3031217106054 21713.189816828777
702.2829742317172 21823.915493094748
703.2625796834873 21632.034766586617
704.2419381412474 21650.664883567028
705.22104968028 21650.252078779766
706.1999143758458 21627.6912518292
707.178532303169 21450.61786023543
708.1569035374378 21560.586400514476
709.1350281538107 21486.223975622688
710.1129062274158 21473.57448945113
711.0905378333373 21522.18147772518
712.0679230466376 21380.037964189025
713.0450619423427 21504.46932789518
714.0219545954424 21527.665778156887
714.9986010808989 21451.288478793755
715.9750014736292 21547.841709942593
716.9511558485392 21907.67839028461
717.9270642804786 21649.17612176081
718.9027268442787 21753.404508089654
719.8781436147328 21824.544011047386
720.8533146666014 21769.125448648178
721.828240074612 21820.311926549566
722.8029199134635 21883.91918314341
723.7773542578125 21769.893918910362
724.751543182294 21707.118216617393
725.7254867615029 21640.067217078642
726.6991850700015 21459.938501989604
727.6726381823228 21613.539255101285
728.6458461729599 21544.946974193568
729.6188091163858 21509.23407004686
730.5915270870246 21597.720576809967
731.5640001592856 21472.67527011923
732.536228407529 21698.807988756296
733.5082119060917 21641.954601006997
734.4799507292755 21726.59568078793
735.4514449513481 21720.591964190062
736.4226946465496 21939.420257188314
737.3936998890786 22011.197959262277
738.3644607531078 21993.619001998348
739.3349773127793 21864.2334937965
740.3052496421951 21956.222424938616
741.27527781543 21868.042661028718
742.2450619065221 21746.397382269148
743.2146019894826 21671.073754731617
744.183898138288 21586.46890659286
745.1529504268801 21517.24097107359
746.1217589291682 21334.421780607736
747.0903237190341 21161.092280690184
748.058644870318 21273.495918817218
749.0267224568397 21093.075012258523
749.994556552374 21144.329357107876
750.9621472306771 21026.16859100066
751.9294945654583 21112.519263584618
752.8965986304011 21049.229770792444
753.8634594991636 21115.748160587802
754.8300772453586 21227.908454921133
755.7964519425768 21057.767071101876
756.762583664371 21095.59118704308
757.7284724842611 21158.074012291883
758.6941184757416 21077.256552879448
759.6595217122667 21056.16191967461
760.6246822672638 20974.93697103775
761.5896002141235 20999.08118805475
762.5542756262093 21056.37578717076
763.5187085768503 21025.710889254733
764.4828991393406 21019.262036612075
765.4468473869474 21045.2194373624
766.4105533929032 20959.577293155082
767.3740172304078 20979.994425378885
768.3372389726283 20840.043929617685
769.3002186926988 20842.10375821084
770.2629564637282 20602.845423694736
771.2254523587872 20732.2376417863
772.1877064509154 20647.14836151565
773.1497188131179 20566.360407304208
774.1114895183728 20303.208559764822
775.0730186396268 20508.127914687233
776.0343062497905 20311.033386741143
776.9953524217381 20374.889703003082
777.9561572283274 20359.920032940794
778.9167207423689 20440.342142215035
779.8770430366476 20442.46737824241
780.8371241839159 20558.144309643423
781.7969642568951 20569.528624139115
782.7565633282757 20911.823551048208
783.7159214707099 20701.541840278904
784.6750387568281 20653.12537534227
785.6339152592227 20525.196110507408
786.5925510504512 20576.148972816623
787.5509462030477 20467.87559127494
788.5091007895098 20586.90758291228
789.4670148823006 20536.865683616907
790.4246885538596 20495.032621593895
791.3821218765861 20437.251763829605
792.3393149228505 20372.07140854949
793.2962677649975 20400.6258360271
794.2529804753303 20533.68527809186
795.20945312613 20509.73967237183
796.1656857896378 20361.708416749603
797.1216785380675 20559.81553399523
798.0774314435985 20659.57552496346
799.0329445783846 20714.06839985598
799.9882180145414 20748.189480526566
800.9432518241574 20782.384336912455
801.89804607929 20846.052370293277
802.852600851962 20883.359471493073
803.8069162141637 20959.34849823369
804.760992237856 21177.95709680052
805.714828994971 21133.481337948262
806.6684265574077 21209.764897069486
807.6217849970271 21077.72170685328
808.574904385674 21210.72032197653
809.527784795142 21191.37427019385
810.4804262972102 21046.79351554074
811.4328289636178 20881.14610049171
812.3849928660748 20771.256803205797
813.3369180762638 20611.109389127414
814.2886046658241 20418.34670511921
815.2400527063783 20290.72336805194
816.1912622695108 20203.1272772833
817.1422334267718 20171.68446983198
818.0929662496856 19902.35254144425
819.0434608097457 19958.582802128025
819.9937171784059 19710.138554915127
820.9437354271013 19713.98973408592
821.8935156272255 19640.120524956696
822.8430578501484 19554.983927105004
823.7923621672016 19428.297617149838
824.7414286496896 19414.916886733146
825.6902573688876 19291.204899845416
826.6388483960363 19412.2172084368
827.5872018023492 19203.576507664322
828.5353176590033 19270.893187456146
829.4831960371503 19166.868838715047
830.4308370079016 19082.94404300105
831.3782406423525 19105.311130950962
832.3254070115545 19086.824391445603
833.2723361865319 18875.44351352263
834.2190282382799 19038.912841636076
835.1654832377644 19038.186069616022
836.1117012559116 19021.41694175155
837.0576823636256 19009.12972678261
838.003426631778 18779.27874612165
838.9489341312074 18745.89246267385
839.8942049327197 18810.73242215714
840.8392391070975 18911.078464254977
841.7840367250865 18810.399847235236
842.7285978573982 18776.430598483137
843.672922574724 18920.56067338903
844.6170109477152 18901.80607445675
845.560863046996 18944.5989827012
846.5044789431595 18910.267319539616
847.4478587067697 19092.632028729477
848.3910024083561 19059.32069952062
849.333910118421 19173.454815238143
850.2765819074339 19108.692597881593
851.2190178458332 19273.202061624128
852.161218004032 19399.87966917366
853.1031824524016 19299.977984903202
854.0449112612987 19221.37487787354
854.9864045010327 19374.880639993564
855.9276622418947 19260.9084541913
856.8686845541379 19412.5770901198
857.8094715079915 19318.351502958234
858.7500231736467 19560.22304616318
859.690339621271 19459.409980363995
860.6304209209939 19675.17857465606
861.5702671429244 19395.940134567027
862.5098783571284 19663.038527520337
863.4492546336569 19617.079081193362
864.3883960425155 19592.166515002456
865.3273026536863 19574.069138344486
866.2659745371238 19785.955203255286
867.2044117627465 19761.274109457972
868.1426144004472 19583.2233410949
869.0805825200823 19655.61160767922
870.0183161914847 19686.538387432807
870.9558154844526 19607.88112143499
871.8930804687552 19685.591659470316
872.8301112141307 19532.3657251857
873.7669077902865 19650.56930258465
874.7034702669062 19676.251955890708
875.6397987136315 19657.21945980446
876.5758932000863 19690.85765304797
877.5117537958522 19844.203034169444
878.4473805704911 19805.295888594
879.3827735935283 19840.802748060432
880.3179329344603 19839.025462974056
881.2528586627541 20052.247602708354
882.1875508478479 20116.891818269
883.1220095591489 19908.14520576818
884.0562348660296 19853.022105104683
884.9902268378391 20101.34217604521
885.9239855438955 19970.6880595795
886.8575110534839 19783.1797251306
887.7908034358588 19903.81603219486
888.7238627602474 19966.390763721553
889.6566890958475 19790.505739233537
890.5892825118208 19554.676361120222
891.5216430773125 19524.081385793095
892.4537708614189 19434.022003620797
893.3856659332196 19347.579949630326
894.3173283617652 19139.476443147803
895.2487582160684 19150.912823687453
896.179955565116 19075.8385771652
897.110920477864 18769.13866051334
898.0416530232451 18814.919672885586
898.9721532701478 18731.129306726718
899.9024212874428 18713.98170515389
900.8324571439662 18646.20352629457
901.7622609085302 18630.393863303732
902.6918326499072 18534.995328244404
903.6211724368477 18661.353080003588
904.5502803380696 18557.93963860865
905.4791564222614 18715.126187159374
906.4078007580792 18626.819456164496
907.3362134141571 18608.16171613869
908.2643944590909 18569.714819681794
909.1923439614493 18552.148052867105
910.1200619897754 18389.550168176705
911.0475486125779 18582.508237236343
911.9748038983344 18388.114211425003
912.9018279155007 18409.702301045407
913.8286207324982 18270.68762062181
914.7551824177117 18304.527710984323
915.6815130395116 18230.281961666482
916.6076126662283 18172.00157602218
917.533481366163 18244.064453929717
918.4591192075914 18140.09025626858
919.3845262587565 18147.933982763323
920.3097025878706 18152.78987247823
921.2346482631237 18053.1056061931
922.1593633526682 18135.258285128966
923.0838479246304 17972.49169938959
924.0081020471061 18204.695237993794
924.9321257881656 18025.824861746845
925.8559192158464 18044.647826712473
926.7794823981512 17999.699293313268
927.7028154030686 18122.372051135168
928.6259182985414 17915.711945393712
929.5487911524906 18189.850126746045
930.4714340328119 18075.809474288093
931.3938470073608 17944.239016573272
932.3160301439748 18042.214863047448
933.2379835104548 18121.365722231436
934.1597071745709 18126.37419088842
935.0812012040769 18144.170508956133
936.002465666681 18205.506367639086
936.9235006300696 18170.75149071601
937.8443061619055 18045.056202577947
938.7648823298077 18019.678488922495
939.6852292013809 18037.503567763422
940.6053468441951 18213.53897504035
941.5252353257874 18026.684553794916
942.4448947136698 18133.08005142978
943.364325075323 18054.011075571183
944.2835264782043 18207.563768570668
945.2024989897309 18105.15954110969
946.1212426773054 18222.594430075107
947.0397576082851 18019.197689142406
947.9580438500125 18256.050390362416
948.8761014697939 18325.01084917786
949.7939305349064 18334.4734332277
950.7115311125999 18238.356163628174
951.6289032700952 18443.918904707
952.5460470745875 18408.258323771395
953.4629625932339 18391.386342956772
954.3796498931715 18393.124945493433
955.2961090415029 18471.41122429727
956.2123401053068 18409.206106558697
957.1283431516276 18401.401752305446
958.0441182474842 18273.857970814504
958.9596654598663 18499.88177394284
959.8749848557309 18395.998565434344
960.7900765020167 18533.486431492558
961.7049404656209 18486.15705813083
962.6195768134185 18626.167990951646
963.5339856122537 18492.376550759953
964.4481669289453 18618.57354370936
965.3621208302793 18351.35092024337
966.2758473830145 18600.932157357744
967.1893466538822 18564.14294794883
968.1026187095813 18661.72014959809
969.0156636167867 18538.350369484397
969.9284814421426 18705.066553341527
970.8410722522622 18650.422377636314
971.753436113735 18552.485781159216
972.6655730931161 18548.30773301876
973.5774832569368 18761.260422349158
974.4891666716958 18583.134054982358
975.4006234038698 18673.402007233006
976.3118535198955 18747.542799148552
977.2228570861935 18757.908304575696
978.1336341691494 18680.46136510498
979.0441848351202 18658.74867514945
979.9545091504333 18572.837130819687
980.864607181391 18834.493523220302
981.7744789942699 18708.75133457126
982.6841246553086 18801.98861274474
983.5935442307236 18585.110030609958
984.5027377867027 18810.242483461017
985.4117053894024 18697.846846667082
986.3204471049557 18840.717296676674
987.2289629994648 18707.9625474966
988.1372531390007 18901.69457021406
989.0453175896091 18741.183619327283
989.9531564173067 18824.337182622985
990.860769688079 18791.314195493636
991.7681574678918 19044.12163442514
992.6753198226706 18908.66357075686
993.582256818323 18940.196919961156
994.4889685207218 18991.5581225032
995.3954549957143 19236.330958160375
996.301716309119 19132.43471858168
997.2077525267232 19157.262016706336
998.1135637142943 18993.18025343088
999.0191499375615 19075.098246217232
999.924511262232 19000.55805244156
1000.8296477539861 19256.661654843552
1001.7345594784656 19127.780929969005
1002.6392465012996 19264.44432403101
1003.5437088880753 18993.83235765157
1004.4479467043584 19019.37588034049
1005.3519600156869 18867.146112981856
1006.2557488875718 19092.302445948382
1007.1593133854858 18837.33079589958
1008.0626535748888 19065.37709197181
1008.9657695212009 18873.249892388805
1009.8686612898182 19156.33843303087
1010.7713289461135 19010.2268316682
1011.6737725554212 19034.710424624926
1012.5759921830577 18910.602600324582
1013.4779878943027 19172.407456106062
1014.379759754418 18929.805551151258
1015.2813078286254 18840.255510879295
1016.18263218213 18769.531724706456
1017.0837328801026 18910.583925383136
1017.9846099876886 18822.493736424825
1018.8852635700023 18901.235242865427
1019.7856936921362 18755.071274185688
1020.6859004191447 18776.30353656008
1021.5858838160675 18779.817505470077
1022.4856439479063 18781.62204182546
1023.3851808796389 18710.260963194738
1024.2844946762143 18912.38116333326
1025.183585402554 18575.851623575385
1026.082453123554 18640.35265851343
1026.9810979040776 18595.76213373395
1027.8795198089647 18661.926307549264
1028.777718903024 18687.811287448167
1029.6756952510368 18697.9717586257
1030.5734489177648 18478.783636340577
1031.4709799679313 18861.784039570237
1032.3682884662358 18747.117475615974
1033.2653744773506 18808.955453398004
1034.1622380659192 18726.634013226965
1035.058879296559 18967.442983398585
1035.9552982338591 18768.15310850491
1036.8514949423825 19027.248661411595
1037.7474694866614 18905.013509297518
1038.6432219312028 19106.9299878349
1039.5387523404825 19204.9919917777
1040.4340607789582 19330.00383857268
1041.3291473110476 19185.85723934634
1042.2240120011465 19440.531037634875
1043.1186549136273 19534.126486670215
1044.0130761128294 19629.222379370087
1044.9072756630649 19764.585329031164
1045.8012536286205 19876.085396844246
1046.6950100737577 19644.85244270568
1047.588545062701 19904.140879264694
1048.481858659663 19741.549914136413
1049.3749509288118 20037.622170333725
1050.2678219343034 19808.32105467798
1051.1604717402515 19725.449142919766
1052.0529004107575 19631.734837326694
1052.9451080098825 19721.262784531613
1053.8370946016694 19645.396789225986
1054.7288602501267 19672.784423751094
1055.6204050192446 19579.648135794447
1056.511728972977 19796.379590163087
1057.402832175254 19384.97409359643
1058.2937146899785 19554.15718872275
1059.1843765810263 19279.71858270774
1060.0748179122456 19624.377897854098
1060.9650387474576 19279.848960187977
1061.855039150456 19525.783691475408
1062.7448191850071 19236.66678071081
1063.6343789148505 19273.44926403715
1064.5237184037014 19133.335425177178
1065.412837715241 19159.200413784525
1066.3017369131267 18978.314558409307
1067.190416060992 19144.782808982705
1068.0788752224398 18864.17525272362
1068.9671144610438 18927.175371123554
1069.8551338403558 18806.52217654338
1070.7429334239023 19005.918709853817
1071.6305132751695 18803.4667262793
1072.517873457633 18900.25205986291
1073.4050140347335 18813.001071852766
1074.2919350698776 18844.731388679742
1075.1786366264623 18616.660684163875
1076.0651187678395 18794.730890624778
1076.95138155735 18557.81176148039
1077.8374250582929 18714.3902420508
1078.7232493339507 18636.112498634047
1079.608854447577 18863.68075386268
1080.4942404623907 18697.781602311024
1081.3794074415982 18929.459715754383
1082.2643554483657 18798.79898716534
1083.149084545841 18941.541852513426
1084.033594797138 18795.671267050864
1084.9178862653516 19006.10028036066
1085.8019590135427 18974.879890359538
1086.6858131047484 19007.29685559042
1087.5694486019802 19004.98189139642
1088.4528655682225 19090.18205128835
1089.3360640664287 19162.53476937686
1090.2190441595321 19105.016423341127
1091.1018059104317 19123.37731648734
1091.98434938201 19249.38956226726
1092.866674637111 19035.49218715373
1093.748781738559 19258.75602483874
1094.6306707491512 18994.11208598387
1095.5123417316554 19134.235991832782
1096.3937947488157 18893.89171607248
1097.2750298633455 19170.54837118989
1098.156047137938 19089.984251639555
1099.0368466352556 19275.505281835525
1099.9174284179317 18968.696690814224
1100.7977925485757 19069.184845954016
1101.6779390897755 18965.70838549937
1102.5578681040806 19230.00620208408
1103.4375796540226 19181.75148215274
1104.3170738021054 19266.24234981968
1105.1963506108077 19150.66592169548
1106.0754101425773 19283.098303441082
1106.9542524598382 19256.837515897954
1107.8328776249855 19332.0874647888
1108.7112857003904 19320.453613632726
1109.5894767483987 19602.99942027467
1110.4674508313292 19527.908972476907
1111.3452080114657 19785.97845395144
1112.2227483510815 19760.42812072566
1113.1000719124077 20126.491723585117
1113.9771787576592 19962.036626563477
1114.854068949022 20288.40183200186
1115.7307425486542 20267.181386664637
1116.6071996186893 20572.754634349618
1117.483440221229 20692.9890097297
1118.3594644183577 20779.42335366132
1119.235272272128 20822.153331906964
1120.1108638445658 21164.37780461725
1120.9862391976712 21299.19442448815
1121.8613983934229 21501.75194423396
1122.7363414937627 21516.638500014134
1123.6110685606182 21879.22811741096
1124.485579655884 21895.701496458227
1125.359874841426 22031.197067325364
1126.2339541790916 22045.092874162972
1127.1078177306936 22297.69508711132
1127.9814655580267 22122.155612205075
1128.854897722851 22457.065979892595
1129.7281142869106 22583.699373735042
1130.6011153119125 22544.474343303056
1131.473900859548 22666.42380405812
1132.3464709914697 22580.27102764236
1133.2188257693178 22432.66471528518
1134.0909652546961 22472.066219922308
1134.96288950919 22333.902740504484
1135.8345985943506 22608.192061108788
1136.7060925717087 22219.758422495834
1137.57737150277 22187.020864622085
1138.4484354490069 21909.68666629846
1139.3192844718778 21745.39379885245
1140.1899186327992 21538.413600858657
1141.060337993178 21591.6309103458
1141.930542614382 21332.55711367449
1142.8005325577597 21239.019897547747
1143.670307884635 20727.657188073805
1144.5398686563003 20953.669889012464
1145.409214934025 20581.273606764236
1146.2783467790541 20378.061864338822
1147.1472642526023 20300.289243485437
1148.0159674158622 20357.62983170412
1148.8844563300026 19901.228219924003
1149.7527310561618 19967.828160925263
1150.6207916554504 19844.1186788127
1151.4886381889592 19894.18705807715
1152.3562707177498 19663.300021792144
1153.2236893028585 19848.14664079692
1154.090894005296 19663.843560693836
1154.9578848860474 19876.786628441485
1155.8246620060709 19620.450571038687
1156.6912254262988 19707.88542913598
1157.5575752076438 19616.805204184133
1158.42371141098 19871.448105976815
1159.2896340971656 19662.875844267233
1160.1553433270346 19751.85439951462
1161.0208391613887 19630.917313410064
1161.8861216610057 19775.526472953712
1162.75119088664 19632.56318082269
1163.6160468990201 19623.904527681392
1164.4806897588442 19423.803989375025
1165.3451195267917 19556.738714828654
1166.2093362635114 19606.392657438017
1167.0733400296285 19697.37433189877
1167.9371308857444 19407.75424857878
1168.8007088924278 19431.913607458082
1169.6640741102328 19392.359185492278
1170.5272265996773 19386.607983075297
1171.390166421259 19174.064855778666
1172.252893635452 19623.074040536936
1173.1154083026995 19616.85398912688
1173.977710483421 19488.250592917986
1174.8398002380145 19480.322797418645
1175.7016776268483 19592.19479719135
1176.563342710264 19718.396970369526
1177.4247955485826 19627.871736528996
1178.2860362020947 19727.318532801804
1179.147064731069 19785.237188423762
1180.0078811957483 19896.336477497054
1180.8684856563486 19908.778038255437
1181.7288781730604 19975.78191208532
1182.589058806052 20404.77637286216
1183.4490276154593 20424.587054729833
1184.3087846614017 20438.907957587442
1185.1683300039676 20383.47217034278
1186.027663703222 20841.71157419645
1186.8867858192025 20679.014958685424
1187.7456964119228 20852.90181065182
1188.6043955413716 20830.383586124346
1189.4628832675116 21058.851146961046
1190.3211596502842 21117.58687377001
1191.179224749596 21407.257440592
1192.0370786253388 21302.80423192989
1192.8947213373758 21592.670306062435
1193.7521529455407 21452.549229880806
1194.6093735096438 21633.30667552462
1195.466383089477 21620.82160230117
1196.3231817447977 21869.147900459775
1197.1797695353398 21957.51452864228
1198.0361465208189 21958.978197005286
1198.8923127609214 21892.776079542135
1199.7482683153048 22292.831062258698
1200.6040132436028 22353.06895691585
1201.459547605431 22264.795396986417
1202.3148714603722 22032.055993775768
1203.1699848679855 22061.500574762063
1204.0248878878065 22038.25198648708
1204.8795805793507 22187.82259154408
1205.7340630020935 21944.716928797643
1206.5883352155033 22111.990084883822
1207.4423972790064 21833.92151208889
1208.2962492520237 21768.64023860181
1209.1498911939307 21684.557640156352
1210.0033231640937 21830.666848662724
1210.8565452218427 21395.484439158416
1211.7095574264913 21468.89201621287
1212.5623598373222 21129.14182101214
1213.4149525135963 21349.16165189919
1214.2673355145507 21272.661039608858
1215.1195088993936 21215.623823046208
1215.9714727273113 21009.877020350126
1216.8232270574663 21241.618639863616
1217.6747719489904 21060.74339345198
1218.5261074609934 21160.810539640886
1219.3772336525653 20902.770991657806
1220.2281505827668 21224.259752249774
1221.0788583106296 21061.54467721759
1221.9293568951707 21245.08055171956
1222.7796463953746 21030.904022195675
1223.629726870202 21197.58237969225
1224.4795983785934 21269.751716235176
1225.3292609794553 21334.60891520159
1226.1787147316809 21243.2848953292
1227.0279596941327 21384.444638666097
1227.8769959256424 21291.600193371003
1228.7258234850306 21440.1873259343
1229.5744424310833 21277.46507402908
1230.422852822563 21624.243802403333
1231.2710547182105 21600.94343829383
1232.119048176739 21684.43390891872
1232.9668332568417 21624.150842990257
1233.8144100171812 21848.39968089301
1234.6617785163999 21995.06823596137
1235.508938813111 22083.234197879246
1236.3558909659114 22151.59177074271
1237.2026350333617 22409.44474393235
1238.049171074008 22304.300061064176
1238.8954991463652 22486.886752513223
1239.741619308932 22229.244538050443
1240.587531620169 22524.380830428054
1241.4332361385277 22248.363235505258
1242.2787329224248 22167.427035004886
1243.1240220302534 22185.05318112907
1243.9691035203869 22112.17556829835
1244.813977451171 22020.077978345755
1245.6586438809263 22086.355108949218
1246.5031028679496 21681.75768855222
1247.3473544705157 21935.74785649479
1248.1913987468706 21950.825410844736
1249.0352357552383 21845.442562002525
1249.8788655538228 21878.855288997052
1250.7222882007918 22045.18317710727
1251.565503754302 21907.018835336447
1252.4085122724755 21895.09370520086
1253.2513138134182 21809.77191508073
1254.0939084352049 21886.92738298157
1254.9362961958905 21701.083790089953
1255.7784771535007 21872.925397471903
1256.6204513660432 21724.4401932248
1257.4622188915 21855.850400030125
1258.3037797878242 21949.33816073124
1259.1451341129468 21835.608201654417
1259.9862819247755 21769.040154700735
1260.8272232811978 21828.886225956503
1261.6679582400666 21615.346845566608
1262.5084868592203 21533.017430654003
1263.34880919647 21463.00199870488
1264.1889253095997 21690.5925484596
1265.0288352563712 21215.758020991838
1265.8685390945266 21223.314203017093
1266.7080368817751 21008.033116722356
1267.5473286758115 21143.248176822883
1268.386414534294 21073.674874944867
1269.2252945148703 20961.320141990167
1270.0639686751547 20865.30260757815
1270.9024370727402 20979.377624113342
1271.7406997651997 20874.936142492286
1272.5787568100714 20802.95433854527
1273.4166082648808 20799.176261330245
1274.2542541871244 20942.3085608569
1275.091694634275 20834.416050317133
1275.9289296637817 20908.833597761437
1276.7659593330663 20807.618749726993
1277.6027836995308 21066.93999986601
1278.4394028205552 20856.25731057474
1279.2758167534867 21033.30832142792
1280.112025555658 20956.608006778544
1280.9480292843746 21081.82574217531
1281.7838279969128 20955.949018089268
1282.6194217505326 20872.585932392132
1283.4548106024686 20688.3371059025
1284.289994609926 20871.123439386873
1285.1249738300921 20810.724015093507
1285.959748320127 20648.05369126892
1286.7943181371702 20624.642082618215
1287.6286833383328 20748.655692803724
1288.4628439807038 20589.16877611638
1289.2968001213521 20508.704934299116
1290.1305518173194 20512.718053471126
1290.9640991256183 20707.386036536245
1291.7974421032523 20486.90943705815
1292.630580807183 20681.784679435343
1293.463515294361 20373.657506184038
1294.29624562171 20578.723314622934
1295.12877184613 20447.285326002282
1295.961094024493 20640.37064201477
1296.79321221365 20551.13963778015
1297.6251264704333 20684.78849951178
1298.4568368516466 20675.09045209888
1299.2883434140658 20816.086958026583
1300.1196462144526 20620.67445183518
1300.9507453095375 20924.923133866723
1301.7816407560313 20969.049688231837
1302.6123326106172 21110.35434072864
1303.4428209299622 20953.804356429533
1304.2731057707024 21330.089024333378
1305.1031871894502 21230.144141995424
1305.933065242798 21278.549664378555
1306.7627399873181 21181.793284597617
1307.5922114795467 21656.142636659995
1308.4214797760123 21512.67513075124
1309.2505449332057 21548.742963709974
1310.0794070076026 21549.732278029245
1310.9080660556538 21648.982636451277
1311.736522133786 21388.667732152207
1312.5647752983987 21472.183805742912
1313.3928256058734 21372.80992743656
1314.2206731125661 21658.597779636548
1315.048317874809 21407.2039326837
1315.8757599489109 21309.770220953524
1316.7029993911547 21288.41643923922
1317.5300362578055 21412.080798521674
1318.356870605101 21151.232890947966
1319.183502489257 21210.354275537502
1320.0099319664623 21276.557289612003
1320.836159092889 21218.910544231443
1321.66218392468 21191.178279218213
1322.4880065179532 21231.54943101659
1323.3136269288134 21236.52196897682
1324.1390452133292 21145.94701835246
1324.9642614275563 21296.070824842333
1325.7892756275214 21254.011700535826
1326.6140878692295 21064.3131806464
1327.4386982086617 21349.567525455343
1328.2631067017755 21033.135166305605
1329.0873134045069 21217.415914301237
1329.911318372764 20970.307220992694
1330.735121662441 21121.377093745265
1331.558723329399 20869.748972350124
1332.3821234294774 21064.265800868245
1333.2053220185007 20976.061819691597
1334.0283191522612 21108.606066469038
1334.851114886529 20913.39373447725
1335.6737092770582 21036.64260403357
1336.4961023795695 20830.547785389703
1337.3182942497697 20905.578388500107
1338.1402849433325 21031.20491369909
1338.962074515921 20687.968805329052
1339.7836630231632 20439.012146314846
1340.6050505206676 20862.59999269888
1341.426237064028 20596.925455227327
1342.2472227088037 20499.31104937172
1343.0680075105338 20274.90007471454
1343.888591524741 20591.253128335484
1344.7089748069138 20401.14748868051
1345.5291574125276 20317.449846648007
1346.3491393970307 20157.341865795283
1347.168920815846 20443.219638896793
1347.9885017243778 20235.974742339928
1348.8078821780036 20268.308367411348
1349.6270622320844 20094.935140638867
1350.4460419419447 20185.99768856928
1351.2648213629054 19932.17162512897
1352.0834005502438 20041.768173599732
1352.90177955923 19884.12031295702
1353.7199584451064 20076.82518525133
1354.5379372630887 19894.147536357294
1355.355716068374 19737.926548913114
1356.1732949161305 19724.45264493263
1356.9906738615155 19886.010375965936
1357.8078529596478 19748.18514183467
1358.6248322656375 19898.81190869017
1359.441611834567 19629.61268551794
1360.2581917214866 20000.592247812074
1361.0745719814367 19381.085804615872
1361.890752669433 19564.639345286
1362.7067338404577 19523.630284403986
1363.5225155494845 19625.61550293106
1364.3380978514506 19755.179941824543
1365.1534808012839 19500.527706230452
1365.9686644538815 19431.1494799804
1366.783648864117 19683.15740698008
1367.5984340868417 19597.9151495966
1368.413020176893 19565.500962794882
1369.2274071890715 19306.698397257027
1370.0415951781652 19565.747556177146
1370.8555841989346 19290.581830118208
1371.6693743061223 19502.55982473967
1372.48296555444 19374.033265174425
1373.2963579985844 19532.5011603594
1374.1095516932255 19425.090107706812
1374.9225466930166 19536.101691244323
1375.7353430525782 19359.894080540776
1376.5479408265164 19427.06206140958
1377.36034006941 19211.98915576688
1378.1725408358216 19456.891325216613
1378.9845431802805 19056.809824722422
1379.796347157304 19501.00508025257
1380.6079528213813 19220.369513050573
1381.4193602269788 19089.868433159623
1382.230569428546 18941.469804301523
1383.0415804805016 19345.771488142396
1383.852393437246 19031.989839198195
1384.6630083531563 19052.88472958662
1385.4734252825892 18853.931900011183
1386.2836442798798 19114.66627298111
1387.0936653993322 18782.152850968072
1387.9034886952395 18774.47530479161
1388.713114221864 18622.068299180693
1389.5225420334482 18754.660570155356
1390.331772184214 18664.9968370037
1391.1408047283585 18604.62605996524
1391.9496397200564 18512.588355902448
1392.758277213461 18728.874856494294
1393.5667172627054 18483.996441186093
1394.3749599218918 18497.794188451502
1395.1830052451114 18196.82365472388
1395.9908532864265 18466.641397330706
1396.7985040998774 18325.025264559696
1397.6059577394808 18257.394108747838
1398.4132142592352 18323.47729025824
1399.2202737131156 18291.51116147349
1400.027136155073 18070.270603826655
1400.8338016390353 18062.390963370875
1401.6402702189134 17968.309036173043
1402.446541948586 18064.230464865563
1403.2526168819204 17892.996680829958
1404.058495072757 17982.40083297398
1404.8641765749107 17777.87559815003
1405.6696614421799 17891.532785478987
1406.4749497283356 17947.113956275083
1407.280041487129 17739.5447954863
1408.084936772295 17469.846563748564
1408.8896356375335 17614.52327057547
1409.6941381365323 17513.006382761927
1410.498444322955 17356.01965009936
1411.3025542504402 17384.250462891392
1412.106467972606 17540.758024948092
1412.9101855430508 17320.772816654728
1413.7137070153458 17172.114655497142
1414.5170324430437 17080.965645278164
1415.320161879672 17221.80577464354
1416.1230953787435 17307.287380424266
1416.925832993742 17141.21268451187
1417.7283747781275 16997.83949147242
1418.5307207853439 17180.947078917678
1419.3328710688093 16991.303085719806
1420.134825681922 16854.20764562756
1420.9365846780584 16819.508097008686
1421.7381481105713 16975.91868477153
1422.539516032788 16698.902002629133
1423.3406884980232 16687.287878692496
1424.1416655595604 16644.49411517298
1424.942447270665 16648.60915559237
1425.7430336845828 16538.846674884546
1426.5434248545298 16429.076884932685
1427.3436208337116 16353.918865553127
1428.143621675301 16585.49013723141
1428.9434274324558 16398.406788843866
1429.7430381583108 16306.238622735478
1430.5424539059713 16295.385452758283
1431.3416747285337 16708.38993300341
1432.1407006790632 16309.023204782585
1432.9395318106053 16447.696145751022
1433.7381681761835 16359.32437554154
1434.5366098288014 16529.355030346673
1435.3348568214424 16333.713279632222
1436.1329092070573 16233.276317634245
1436.9307670385879 16356.427888078895
1437.7284303689503 16587.33427279279
1438.5258992510335 16636.834227347743
1439.3231737377118 16429.261654604685
1440.1202538818306 16510.53279941434
1440.9171397362225 16670.605638525463
1441.7138313536925 16519.506375956076
1442.5103287870243 16704.213324833323
1443.3066320889775 16363.114972518943
1444.1027413122956 16735.239867939723
1444.8986565096966 16634.597573911415
1445.694377733882 16782.683315614442
1446.4899050375207 16585.72512454756
1447.2852384732687 16578.53889885124
1448.0803780937622 16652.59450339182
1448.8753239516063 16804.16836550631
1449.6700760993954 16482.463445522753
1450.464634589689 16623.15517432796
1451.2589994750397 16663.43306932167
1452.0531708079689 16682.14560708911
1452.8471486409799 16509.103094170812
1453.6409330265524 16817.14798448509
1454.4345240171442 16714.642351116505
1455.2279216651987 16654.13152643777
1456.0211260231263 16623.131895360257
1456.8141371433194 16828.52807530831
1457.6069550781594 16694.865451275007
1458.3995798799897 16516.582517179177
1459.1920116011424 16443.784737857826
1459.98425029393 16474.2374298034
1460.7762960106338 16322.040964521551
1461.5681488035225 16336.272806780955
1462.3598087248392 16243.619005136312
1463.1512758268036 16369.523900538634
1463.942550161617 16202.782648703058
1464.7336317814625 16216.518692178282
1465.524520738496 16159.661107786673
1466.3152170848552 16253.422343813567
1467.1057208726506 16254.903862409046
1467.8960321539817 16018.115825193372
1468.6861509809169 15911.526336359073
1469.4760774055085 15969.15039558943
1470.265811479785 16146.634506181024
1471.055353255755 15905.69655207585
1471.844702785409 15858.758661563916
1472.6338601207044 16039.347226257052
1473.4228253135934 16269.288796439865
1474.2115984159936 16146.924429337163
1475.0001794798063 15660.70789118588
1475.7885685569145 15869.805807383618
1476.576765699172 15820.533300629511
1477.3647709584238 15825.071303113858
1478.1525843864802 15735.718035332495
1478.9402060351367 15928.004896650124
1479.7276359561693 15715.536990465134
1480.514874201328 15710.29754090279
1481.3019208223468 15608.601305456697
1482.0887758709323 15769.320696701645
1482.8754393987747 15740.840376039603
1483.6619114575406 15591.274051343407
1484.4481920988783 15634.806125838822
1485.2342813744108 15819.766489240163
1486.0201793357446 15581.857318674249
1486.8058860344572 15691.495425361942
1487.591401522117 15458.87136230966
1488.3767258502594 15605.524492023182
1489.1618590704056 15602.286188603957
1489.9468012340494 15558.147858962566
1490.7315523926754 15432.34539864481
1491.5161125977356 15751.306767715516
1492.3004819006637 15376.624829362092
1493.084660352877 15560.632162222299
1493.8686480057622 15441.73950323672
1494.6524449106964 15660.156502791931
1495.4360511190262 15548.02608160985
1496.219466682087 15490.7200568429
1497.0026916511779 15440.47884319648
1497.7857260775945 15313.635969588882
1498.5685700125996 15406.769635816474
1499.3512235074395 15391.12093971888
1500.133686613337 15314.472618677115
1500.9159593814966 15247.614965820298
1501.698041863101 15373.623506772492
1502.4799341093094 15220.264531182207
1503.2616361712662 15081.872870268227
1504.043148100087 15304.865614617136
1504.8244699468742 15119.477600936316
1505.6056017626997 15082.838048106933
1506.3865435986281 14888.466711600475
1507.1672955056893 15126.3252472061
1507.9478575348967 14979.116563709153
1508.7282297372512 15083.692098576716
1509.5084121637192 14976.181370912609
1510.2884048652577 15142.002954673962
1511.0682078927948 14873.175761679042
1511.8478212972423 14788.580548237374
1512.6272451294917 14633.542004424578
1513.4064794404076 14866.147690556347
1514.1855242808433 14767.121394660408
1514.9643797016215 14782.728975464555
1515.743045753552 14702.052189120204
1516.5215224874191 14672.11404110713
1517.2998099539836 14538.73729537603
1518.077908203999 14623.101282038368
1518.8558172881785 14582.526258446469
1519.633537257234 14778.937473862858
1520.4110681618404 14445.525694786917
1521.1884100526604 14649.674995927355
1521.9655629803365 14653.93931044307
1522.7425269954856 14721.835739832672
1523.5193021487103 14765.782137407145
1524.2958884905856 14601.8339815599
1525.0722860716687 14497.414874170185
1525.848494942502 14769.942882377029
1526.624515153595 14658.228660140167
1527.4003467554485 14739.139950930956
1528.175989798534 14625.77273870196
1528.9514443333064 14623.484032197672
1529.726710410203 14822.955915884619
1530.5017880796331 14779.826577950356
1531.276677391992 14629.077040862165
1532.0513783976457 14951.62476729301
1532.825891146953 14890.249007428512
1533.6002156902414 15026.12973748027
1534.3743520778207 14995.784941458487
1535.1483003599806 15062.549521296989
1535.9220605869923 14861.269707481053
1536.6956328091019 15111.088955218263
1537.4690170765407 15101.316287699083
1538.242213439511 15142.653834834873
1539.015221948208 15195.2914331407
1539.78804265279 15193.747756085088
1540.560675603405 14892.596982402241
1541.3331208501804 15313.870390492248
1542.1053784432224 15157.257677421509
1542.8774484326168 15225.73175799091
1543.649330868422 14973.28581489353
1544.4210258006842 15203.731359975252
1545.1925332794308 15291.300758148258
1545.9638533546604 15157.493904598072
1546.7349860763552 15035.21549564051
1547.5059314944829 15376.252714707607
1548.27668965898 15200.86034604091
1549.0472606197673 15289.485432709876
1549.817644426752 15003.138396064809
1550.5878411298072 15173.928969188835
1551.3578507787988 15146.020286149756
1552.1276734235635 15028.543177345371
1552.8973091139233 15053.770258615148
1553.6667578996767 15307.284536650175
1554.436019830604 14965.554114359813
1555.20509495646 15166.01686815428
1555.9739833269869 14912.300937638287
1556.7426849919011 14938.743508756515
1557.511200000903 15136.916848683763
1558.2795284036674 14989.132555360102
1559.0476702498509 14926.127123260032
1559.8156255890954 15206.131165709172
1560.5833944710157 14993.862304873046
1561.3509769452048 15049.058083818225
1562.1183730612447 14803.718932287997
1562.8855828686865 15164.320132905912
1563.6526064170703 15037.049953287962
1564.4194437559127 14975.473626750676
1565.1860949347047 14800.008395402332
1565.9525600029283 15043.282788826158
1566.7188390100328 14940.08394176346
1567.4849320054564 14921.109573109163
1568.250839038612 14775.582866956127
1569.0165601588997 14864.21162807077
1569.7820954156887 14886.569449690436
1570.5474448583373 14797.011059369714
1571.31260853618 14695.220949997292
1572.0775864985299 14728.862165508192
1572.8423787946813 14811.04312521157
1573.6069854739108 14847.036081667258
1574.371406585471 14706.2724962779
1575.1356421785986 14789.997500987913
1575.899692302506 14416.154140843855
1576.6635570063845 14451.836656933612
1577.4272363394157 14571.139898174602
1578.190730350747 14593.700086817567
1578.9540390895163 14313.264032996227
1579.7171626048384 14249.422223031808
1580.480100945806 14169.281993339018
1581.2428541614918 14292.636281941252
1582.0054223009538 14138.994002744954
1582.767805413223 14204.588587087925
1583.5300035473156 13956.354251424567
1584.292016752228 14161.025421726965
1585.0538450769309 14011.245645829269
1585.8154885703807 13940.22766923498
1586.5769472815136 13871.093014188387
1587.3382212592405 14038.080131793773
1588.099310552463 13901.272295292449
1588.8602152100484 13691.691076963636
1589.6209352808564 13886.448358305814
1590.3814708137234 13973.159429048541
1591.14182185746 13374.785034838123
1591.9019884608679 13828.95750058877
1592.6619706727215 13624.533230776355
1593.4217685417734 13813.040634400855
1594.1813821167616 13915.919926883338
1594.9408114464022 13816.934946178639
1595.7000565793933 13858.373058490193
1596.459117564409 14042.547184717423
1597.2179944501113 13755.903390181178
1597.9766872851324 13905.11694307283
1598.735196118092 13634.914719967957
1599.4935209975883 14078.965238480194
1600.2516619721973 13732.482911995607
1601.0096190904787 13805.28153257526
1601.7673924009723 13703.89732430367
1602.524981952196 13884.018660441818
1603.2823877926476 13587.799628199957
1604.0396099708087 13718.362936406944
1604.7966485351371 13654.524259417443
1605.5535035340745 13539.919800414418
1606.3101750160404 13614.036602760727
1607.0666630294363 13691.897010337616
1607.822967622642 13374.826222543217
1608.5790888440224 13508.657036973833
1609.3350267419137 13476.908837519737
1610.0907813646445 13247.717791183346
1610.8463527605145 13299.203110097817
1611.601740977805 13196.14411176279
1612.356946064785 13105.985136399659
1613.1119680696902 12974.860725903043
1613.8668070407512 12912.110133315442
1614.6214630261748 13129.008026685042
1615.375936074137 12851.320879602175
1616.1302262328118 12851.604503180108
1616.8843335503425 12709.290423322622
1617.638258074854 12616.103685990493
1618.391999854457 12643.383199830207
1619.1455589372363 12639.92767391377
1619.8989353712623 12783.51176488131
1620.65212920458 12493.743858738937
1621.4051404852235 12414.405928024318
1622.1579692611976 12462.566763380692
1622.9106155804966 12308.514654604302
1623.663079491087 12416.969563784958
1624.4153610409248 12230.935853304729
1625.1674602779385 12262.053868696497
1625.9193772500403 12050.013686500288
1626.6711120051277 12220.046005089058
1627.4226645910676 12306.90690292887
1628.174035055721 11998.728283618631
1628.9252234469168 11981.851743545285
1629.676229812474 11943.286106456811
1630.4270542001905 12081.742812331187
1631.1776966578382 11936.294329305538
1631.9281572331747 11815.87024894093
1632.678435973945 11873.524671554676
1633.4285329278573 11709.329813450622
1634.1784481426203 11718.142481699924
1634.9281816659113 11745.35640048355
1635.677733545388 11792.28820239504
1636.4271038286934 11481.699530667862
1637.176292563452 11585.416319515962
1637.9252997972635 11510.774564266563
1638.674125577716 11719.238234942739
1639.4227699523672 11563.94578501927
1640.171232968767 11397.3058593138
1640.9195146744423 11400.028373158257
1641.6676151168977 11487.743956875624
1642.4155343436178 11323.389733366825
1643.1632724020765 11305.663810114957
1643.9108293397167 11250.864397006055
1644.658205203974 11271.194998090823
1645.4054000422566 11545.419724439891
1646.1524139019566 11234.777111201804
1646.8992468304423 11052.9406739398
1647.6458988750728 11130.307365465811
1648.3923700831765 11276.32773818402
1649.1386605020743 11108.789539656736
1649.8847701790564 11112.0007428962
1650.6306991614038 11189.565672283545
1651.3764474963682 11107.685759986996
1652.1220152311944 11098.6186310749
1652.867402413096 11037.546320825746
1653.6126090892776 10904.668998692669
1654.3576353069184 11038.560598814296
1655.1024811131829 11001.259070602851
1655.8471465552066 10829.959022366329
1656.5916316801213 10924.97624948612
1657.3359365350298 10716.094123755709
1658.0800611670165 10832.221489135396
1658.824005623148 10627.073774617387
1659.5677699504722 10634.768444200236
1660.3113541960192 10535.558251351917
1661.054758406799 10474.727712914308
1661.7979826297997 10393.811047892861
1662.5410269119966 10412.249939494066
1663.283891300338 10634.573825264153
1664.0265758417645 10432.828988196346
1664.7690805831826 10359.962318107435
1665.5114055714948 10398.739951937778
1666.2535508535748 10120.453173757087
1666.9955164762814 10124.275367311579
1667.7373024864555 10124.43668134674
1668.478908930916 10307.57738643563
1669.220335856462 9853.928322806829
1669.9615833098778 9953.469544086594
1670.7026513379296 9727.936807698306
1671.44353998736 9894.250070736536
1672.1842493048916 9664.582652968875
1672.9247793372379 9731.667960872901
1673.6651301310812 9570.821982922009
1674.4053017330934 9655.392538729708
1675.1452941899242 9565.736960004362
1675.885107548207 9526.29514295715
1676.6247418545518 9359.30158559854
1677.3641971555535 9494.834778825134
1678.1034734977893 9313.63600745106
1678.8425709278108 9297.274876258454
1679.5814894921605 9268.701212925796
1680.320229237359 9212.157811327135
1681.0587902098978 9247.886722742527
1681.7971724562685 9083.184730518908
1682.5353760229264 9076.578595244402
1683.2734009563173 8930.051693978328
1684.0112473028657 8830.967028252266
1684.7489151089794 8791.127343243683
1685.4864044210462 8869.21341738114
1686.2237152854377 8982.517092258771
1686.960847748498 8649.392831981524
1687.6978018565642 8593.500843717205
1688.434577655944 8471.26449076438
1689.1711751929379 8526.086302567444
1689.9075945138156 8605.108228971498
1690.6438356648396 8402.304081728777
1691.3798986922448 8249.096370153937
1692.1157836422499 8393.68874253269
1692.851490561059 8277.884117661873
1693.587019494853 8261.120536982799
1694.3223704897991 8170.774181054704
1695.0575435920364 8040.363753433594
1695.792538847696 8209.524460924991
1696.527356302886 8013.327613272765
1697.2619960036936 8014.92796148167
1697.9964579961907 7961.790783258082
1698.730742326432 7646.112101144454
1699.4648490404488 7704.3455376453585
1700.1987781842563 7723.982737629687
1700.9325298038548 7980.529620542024
1701.6661039452174 7631.086269410038
1702.3995006543082 7645.4137936463785
1703.1327199770658 7570.48809605687
1703.865761959416 7592.084374611647
1704.598626647261 7629.542807107396
1705.3313140864866 7448.895896447102
1706.0638243229587 7330.825308761899
1706.7961574025303 7571.7155240045995
1707.528313371029 7430.72735567557
1708.260292274268 7368.225253555332
1708.9920941580403 7259.331534991555
1709.7237190681226 7261.422938889324
1710.4551670502697 7316.298616817961
1711.18643815022 7204.273875420595
1711.9175324136959 7336.481906420426
1712.6484498863938 7082.780027099079
1713.379190614005 7161.46795703213
1714.109754642188 7244.47945019256
1714.8401420165883 6992.40259560322
1715.570352782839 6771.612031461705
1716.3003869865497 7096.207598112493
1717.0302446733076 6988.7445596469715
1717.7599258886876 6894.416419305451
1718.4894306782444 7091.543146337305
1719.2187590875183 6848.970792727117
1719.9479111620203 6866.760585200503
1720.6768869472544 6937.675550858044
1721.4056864887025 7026.735419413513
1722.1343098318284 6849.9580759462915
1722.8627570220742 6725.407752730939
1723.591028104871 6773.234805722985
1724.3191231256242 6653.38197552573
1725.0470421297232 6751.763730935457
1725.7747851625427 6737.690056894726
1726.5023522694337 6651.522164658544
1727.2297434957363 6754.615546196273
1727.9569588867635 6476.114143137374
1728.6839984878152 6694.251394071647
1729.4108623441734 6522.845706273152
1730.1375505011038 6726.33465081726
1730.8640630038426 6656.728174549697
1731.5903998976264 6482.839871105514
1732.316561227657 6610.748311151787
1733.0425470391274 6425.046258317785
1733.7683573772065 6391.768984148776
1734.4939922870508 6445.828244611842
1735.2194518137949 6471.682766922011
1735.9447360025606 6394.442272118302
1736.669844898439 6302.075787140208
1737.3947785465189 6402.8419001558705
1738.1195369918605 6271.063659138286
1738.8441202795093 6358.670602037744
1739.5685284544943 6348.009888988795
1740.292761561821 6481.595937385128
1741.0168196464838 6258.150549933124
1741.7407027534518 6412.099187863619
1742.464410927687 6261.087955019996
1743.187944214118 6271.194049872891
1743.9113026576688 6151.121396334527
1744.634486303241 6294.828932987292
1745.3574951957125 6286.939992464474
1746.0803293799509 6306.39143066409
1746.8029889008048 6051.947456453417
1747.5254738031017 6413.413372683163
1748.2477841316504 5977.506634923078
1748.969919931249 6061.564257219096
1749.6918812466665 6194.49485327128
1750.4136681226646 6275.068088895166
1751.1352806039777 6224.8988191232165
1751.856718735331 6100.32723597807
1752.5779825614281 6093.000690519969
1753.2990721269507 6032.992891610102
1754.0199874765676 6174.544616238769
1754.7407286549314 6023.265913150362
1755.4612957066693 5938.42722443942
1756.1816886763954 6070.772905711547
1756.9019076087097 6058.066362644529
1757.6219525481865 6147.0981463239505
1758.3418235393856 6072.721072034287
1759.061520626854 6092.467693870387
1759.7810438551096 6136.11487162435
1760.5003932686614 5964.85391463003
1761.2195689119999 5927.56098523678
1761.938570829594 5899.076495093492
1762.657399065898 5950.986893168449
1763.376053665348 5929.524916083932
1764.0945346723602 5880.9947286333545
1764.812842131334 5906.788990935816
1765.5309760866512 5774.7696218054225
1766.2489365826787 5862.730932866677
1766.9667236637597 5935.362360038564
1767.684337374223 5862.319781697903
1768.401777758383 5805.960091620529
1769.1190448605284 5770.276104591125
1769.836138724937 5749.745455352419
1770.5530593958665 5933.90569175942
1771.2698069175603 5773.118603965801
1771.9863813342326 6035.512304831155
1772.702782690094 5827.93500150936
1773.4190110293293 5699.1922172094355
1774.1350663961111 5865.477897435379
1774.8509488345844 5819.2967691585545
1775.5666583888924 5728.680626015905
1776.2821951031437 5792.653314874532
1776.9975590214362 5668.680056348427
1777.7127501878585 5862.267756249987
1778.4277686464684 5756.063496580246
1779.1426144413108 5730.174065651774
1779.8572876164162 5599.533373256115
1780.571788215797 5730.726028489966
1781.2861162834415 5564.308396839619
1782.0002718633277 5709.810015111647
1782.7142549994132 5572.956866953382
1783.4280657356376 5704.823065983712
1784.141704115922 5491.326501181482
1784.855170184177 5679.934705151654
1785.5684639842839 5491.152974136211
1786.2815855601148 5487.018913812803
1786.9945349555237 5556.468668174236
1787.707312214343 5649.70263043191
1788.4199173803918 5711.048614382676
1789.132350497468 5595.363192893508
1789.8446116093583 5499.446117863154
1790.556700759822 5580.103766339026
1791.2686179926077 5389.391069697083
1791.9803633514493 5578.769404975907
1792.6919368800554 5506.724670423213
1793.4033386221236 5499.720083896586
1794.1145686213295 5492.563938949527
1794.8256269213307 5643.199824830689
1795.536513565774 5563.942515666662
1796.247228598284 5379.555014567176
1796.9577720624693 5408.123222477555
1797.6681440019165 5384.093782613457
1798.3783444602013 5571.207093371637
1799.0883734808776 5605.340576359568
1799.7982311074884 5530.466728786115
1800.5079173835475 5381.734874791777
1801.2174323525633 5690.441130233274
1801.9267760580187 5372.465582455794
1802.635948543386 5393.44265819188
1803.3449498521113 5384.494513371716
1804.0537800276325 5346.460166975953
1804.7624391133668 5475.6074839391185
1805.47092715271 5372.99981499325
1806.1792441890484 5287.796660073683
1806.8873902657433 5361.071156845421
1807.5953654261448 5351.564687104745
1808.3031697135812 5374.521641010684
1809.0108031713662 5247.850618326855
1809.71826584279 5268.136760948459
1810.425557771141 5246.630408359176
1811.1326789996747 5527.188953230416
1811.839629571632 5481.0578989224805
1812.5464095302468 5357.869760582407
1813.2530189187182 5499.61879689607
1813.959457780249 5315.844080818601
1814.6657261580076 5336.409497242638
1815.371824095153 5200.823840959039
1816.0777516348262 5340.999890146111
1816.78350882015 5235.658618125861
1817.4890956942272 5294.355148201426
1818.1945123001533 5129.822967495023
1818.8997586809928 5180.416498197725
1819.6048348798067 5207.622402226943
1820.3097409396287 5262.42521142203
1821.0144769034796 5330.516024581
1821.7190428143622 5163.438972593872
1822.423438715261 5438.3139987713785
1823.1276646491478 5203.357338336418
1823.8317206589727 5246.032575467414
1824.5356067876692 5264.165933214577
1825.2393230781581 5184.693034665846
1825.942869573335 5233.719401839458
1826.646246316086 5166.743883438635
1827.3494533492758 5202.37425372302
1828.052490715756 5199.419201894741
1828.7553584583547 5152.837142014814
1829.458056619891 5113.952541813425
1830.1605852431585 5056.7116428024465
1830.8629443709433 5079.65791902541
1831.5651340460063 5142.471627441444
1832.2671543110919 5156.735844707834
1832.9690052089318 5070.117162509819
1833.6706867822395 5155.945289988051
1834.3721990737104 5182.416842669055
1835.0735421260233 5122.545145920881
1835.774715981841 5245.3628085881965
1836.4757206838058 5105.305474084833
1837.1765562745459 5041.739755851398
1837.8772227966747 4984.553003936585
1838.5777202927839 5262.462381969444
1839.2780488054523 4999.8858008672
1839.9782083772352 5029.479695915301
1840.6781990506806 5231.827296932105
1841.378020868313 5142.999200549945
1842.0776738726418 5118.864156303298
1842.777158106157 5135.119774384114
1843.4764736113375 4984.892683950494
1844.1756204306403 5171.289237665559
1844.8745986065078 5106.164847433433
1845.5734081813607 4904.617848162065
1846.2720491976124 5008.7273014186085
1846.970521697649 5164.1548138913695
1847.6688257238511 5085.859138067155
1848.3669613185684 5042.623430793386
1849.0649285241452 4941.566987353794
1849.7627273829057 5091.9108006837605
1850.460357937156 5265.90987236606
1851.1578202291857 4936.675200118492
1851.8551143012664 4999.617069172391
1852.5522401956569 5230.605046961539
1853.2491979545957 4995.146751100425
1853.9459876203055 4984.489082407206
1854.6426092349902 4909.171150365371
1855.3390628408451 4862.025594324648
1856.0353484800362 5036.152369950208
1856.7314661947203 4982.922018120468
1857.4274160270397 4862.37009466607
1858.123198019115 4849.792655580501
1858.8188122130487 4995.5667747941625
1859.5142586509319 5002.092132361339
1860.209537374838 4877.7065004766355
1860.9046484268183 4847.6239896375
1861.599591848917 5028.383392170543
1862.294367683151 4990.4295435629
1862.988975971528 4814.966206488118
1863.6834167560355 5012.423560739085
1864.3776900786452 4886.250582071316
1865.0717959813119 4916.717113748466
1865.7657345059724 5027.500728814075
1866.4595056945564 4885.5409730668225
1867.1531095889586 5041.291969089276
1867.846546231076 4930.927605304284
1868.5398156627743 4999.833922272031
1869.2329179259123 4963.8718280186495
1869.9258530623283 4971.651793762824
1870.618621113843 4896.036002791844
1871.3112221222636 4850.862267621009
1872.0036561293764 4892.415123078443
1872.695923176956 4792.406656510873
1873.3880233067594 4942.890176010649
1874.0799565605212 4821.613917314884
1874.7717229799673 4857.918647094186
1875.4633226068036 5047.779036676541
1876.1547554827175 4836.564746440805
1876.8460216493859 4807.830594308846
1877.5371211484617 4737.509953660521
1878.2280540215852 4904.972460774561
1878.9188203103804 4610.543689544247
1879.6094200564548 4878.156131592759
1880.299853301396 4774.634042656914
1880.9901200867826 4880.287248289316
1881.6802204541673 4845.752099396084
1882.3701544450942 4816.4193748767775
1883.059922101087 4900.788815357749
1883.7495234636517 4882.864148361028
1884.4389585742792 5028.67484416789
1885.1282274744517 4795.032106913594
1885.8173302056166 4920.378276838665
1886.506266809225 4932.586192312553
1887.195037326701 4841.299177327746
1887.8836417994517 4816.087819493135
1888.5720802688702 5082.431019577992
1889.260352776333 4756.94554453208
1889.9484593632042 4720.313489800459
1890.63640007082 4663.115597791863
1891.3241749405151 4729.682360710073
1892.0117840135954 4687.811790085426
1892.6992273313572 4733.946373419242
1893.3865049350788 4768.435643675255
1894.0736168660223 4878.471986382416
1894.7605631654333 4747.1587037597665
1895.4473438745408 4783.048183100716
1896.133959034556 4709.617599281653
1896.820408686679 4661.131746958702
1897.506692872088 4729.808322782776
1898.192811631945 4655.732775315689
1898.8787650073991 4804.90055446272
1899.5645530395832 4803.350219967911
1900.2501757696118 4891.663958557788
1900.9356332385796 4638.958930251147
1901.620925487574 4745.214637189407
1902.3060525576602 4762.197175773742
1902.9910144898859 4794.986301329076
1903.6758113252872 4714.476720280854
1904.3604431048789 4645.825695553935
1905.0449098696663 4661.876955593897
1905.7292116606295 4806.612303911704
1906.4133485187394 4734.308534552862
1907.0973204849488 4501.779419638646
1907.7811276001976 4631.055500482714
1908.4647699053967 4623.94440339336
1909.1482474414588 4482.7441778852
1909.8315602492694 4481.488607302685
1910.5147083696957 4612.271037781871
1911.1976918436012 4711.76356328822
1911.880510711815 4556.283911230108
1912.5631650151681 4564.29244541855
1913.2456547944657 4585.089169742636
1913.927980090495 4549.596950657475
1914.6101409440362 4545.436144760564
1915.2921373958416 4663.218338513765
1915.9739694866603 4557.591751468769
1916.655637257214 4745.0738545045
1917.3371407482136 4487.656470010897
1918.0184800003572 4655.909569703448
1918.6996550543154 4599.966047758548
1919.3806659507554 4745.035633815899
1920.0615127303208 4794.44399986086
1920.7421954336423 4817.666432536046
1921.4227141013343 4728.293207376621
1922.103068773993 4465.816137998909
1922.783259492202 4659.856837399952
1923.4632862965227 4594.595844920393
1924.1431492275078 4477.324607214458
1924.8228483256917 4486.882150877685
1925.5023836315922 4546.1035752258485
1926.1817551857057 4529.060602501768
1926.8609630285227 4632.675679804514
1927.5400072005123 4485.163567608383
1928.218887742125 4506.067226495403
1928.8976046938005 4383.982090604677
1929.5761580959588 4562.931454192878
1930.2545479890086 4628.05137425579
1930.9327744133352 4506.535120923354
1931.6108374093164 4654.880027614158
1932.2887370173066 4594.456440399537
1932.9664732776473 4414.010137415634
1933.6440462306673 4749.440185215121
1934.3214559166754 4340.625396333788
1934.9987023759659 4652.729558121078
1935.675785648813 4566.646210961789
1936.3527057754836 4436.760173029774
1937.029462796223 4607.530754626036
1937.70605675126 4480.419645867505
1938.3824876808085 4491.072567579884
1939.058755625072 4451.375550724555
1939.7348606242267 4634.751037348701
1940.4108027184448 4481.650160825303
1941.0865819478713 4728.5786169113835
1941.7621983526478 4402.040652477512
1942.4376519728921 4383.111768239011
1943.1129428487038 4455.154551480795
1943.7880710201734 4470.6222048003765
1944.4630365273733 4596.502470545784
1945.1378394103576 4440.64776543666
1945.8124797091714 4659.856994105247
1946.4869574638324 4267.297693902691
1947.161272714353 4621.543195652127
1947.8354255007234 4516.688219387653
1948.5094158629272 4627.094850956628
1949.1832438409183 4544.185352361024
1949.8569094746435 4552.130229526219
1950.530412804037 4404.048076769641
1951.2037538690092 4564.143219157377
1951.8769327094578 4452.625705833081
1952.5499493652678 4472.94547456854
1953.222803876306 4433.792618858377
1953.895496282421 4418.703789999354
1954.5680266234522 4395.568303898569
1955.2403949392155 4460.894817093582
1955.9126012695142 4354.539295156515
1956.5846456541403 4560.267046658764
1957.2565281328643 4236.115301415548
1957.9282487454457 4537.982429078265
1958.5998075316202 4531.477720830531
1959.27120453112 4509.494643088102
1959.9424397836501 4399.480472218809
1960.613513328908 4405.001642168504
1961.2844252065697 4467.389179888318
1961.9551754563017 4409.984501944336
1962.6257641177453 4288.451178446151
1963.29619123054 4495.858745595442
1963.966456834296 4226.22756630505
1964.6365609686181 4320.2782827036535
1965.306503673086 4521.630415827543
1965.976284987275 4392.011327839233
1966.645904950734 4467.187399903603
1967.315363603002 4366.720672112255
1967.9846609836077 4332.0701328991945
1968.6537971320486 4364.302150281101
1969.3227720878222 4306.511704693403
1969.9915858904042 4159.70869630746
1970.660238579252 4342.904244146062
1971.3287301938108 4443.471317432914
1971.997060773514 4116.342398462938
1972.665230357772 4435.526494708053
1973.3332389859843 4117.914561983607
1974.0010866975335 4462.221244182226
1974.6687735317864 4246.881021894735
1975.3362995280932 4377.6532090206765
1976.003664725793 4332.583245024307
1976.6708691642052 4045.506679588429
1977.3379128826364 4323.878561797086
1978.004795920373 4188.12964821705
1978.6715183166925 4349.923571141108
1979.3380801108524 4334.458704131085
1980.0044813420973 4272.220565934766
1980.6707220496555 4243.08462721995
1981.3368022727373 4169.28733960498
1982.0027220505417 4386.604510042682
1982.66848142225 4240.455708235748
1983.3340804270283 4102.318235578177
1983.999519104027 4154.535800911005
1984.6647974923835 4407.605106421156
1985.329915631215 4328.65652092013
1985.99487355963 4287.625363145425
1986.6596713167146 4252.366611017713
1987.3243089415428 4196.715496611228
1987.9887864731754 4403.980118409757
1988.6531039506553 4118.132857413923
1989.3172614130071 4325.645932749679
1989.9812588992481 4365.801146693908
1990.645096448372 4340.34537356956
1991.3087740993633 4277.451996450005
1991.9722918911848 4150.650465199395
1992.635649862792 4212.348407670656
1993.2988480531185 4281.355542759934
1993.9618865010852 4260.179491788074
1994.6247652455968 4174.031920324801
1995.287484325545 4036.988208588111
1995.9500437798033 4204.736812813738
1996.6124436472292 4101.473685401952
1997.2746839666706 4216.798896577103
1997.936764776954 4162.5568128020805
1998.598686116895 4275.149068192774
1999.2604480252903 4301.7364932607625
1999.9220505409212 4082.7620373676245
2000.5834937025593 4076.9220464443606
2001.2447775489582 4173.7107518846005
2001.9059021188514 4246.663614981188
2002.5668674509616 4187.403824543226
2003.2276735839987 4124.59830160078
2003.8883205566508 4333.006078878496
2004.5488084075987 4145.823158068153
2005.2091371755014 4138.327240153392
2005.8693068990033 4268.617759966252
2006.5293176167397 4266.88064573149
2007.1891693673224 4148.402923799896
2007.848862189354 3936.7001172648306
2008.5083961214223 4161.124771600197
2009.1677712020955 4121.194935089586
2009.8269874699254 3955.4728855246926
2010.4860449634598 4245.113694007087
2011.1449437212177 3878.161067001141
2011.8036837817108 4228.51343543395
2012.4622651834325 4126.822940771281
2013.1206879648653 4210.5596221320975
2013.7789521644736 4147.66264569241
2014.4370578207036 3993.1162173897164
2015.0950049719922 4078.1634241479615
2015.7527936567585 4120.119825917684
2016.4104239134067 3993.0606360429365
2017.067895780323 4328.796298951905
2017.725209295886 3954.5956179316213
2018.3823644984514 4351.458489909347
2019.0393614263648 4119.465016390519
2019.6962001179545 3972.9389240579303
2020.3528806115355 4068.8335438893628
2021.0094029454067 3937.849532856203
2021.6657671578487 4095.989505616302
2022.321973287133 4081.4583149250443
2022.9780213715148 4062.784618593694
2023.6339114492293 4020.685909907894
2024.2896435585026 3976.547692391924
2024.9452177375442 4011.0270728719106
2025.600634024544 4321.740783992389
2026.2558924576842 4164.99322627219
2026.9109930751292 4154.861478562534
2027.565935915025 3812.0605233043243
2028.2207210155066 4222.336349194913
2028.8753484146964 4062.0548363729554
2029.529818150695 3947.898917087482
2030.1841302615903 3996.722872454713
2030.8382847854573 3933.938791882729
2031.4922817603601 4026.976829759083
2032.1461212243357 4144.97875284119
2032.7998032154192 4041.237486933084
2033.4533277716218 4088.2476254938388
2034.1066949309443 4040.4029516445626
2034.7599047313688 4082.2848073094437
2035.4129572108704 4208.725367015888
2036.0658524074006 4297.803221121083
2036.7185903589016 4119.233284508543
2037.3711711032956 4024.403361231827
2038.023594678496 3968.362314163796
2038.675861122394 3930.294535554356
2039.3279704728757 4119.349933829816
2039.9799227678031 3804.1222114900243
2040.6317180450278 4015.1731822097004
2041.2833563423865 4216.888624954795
2041.9348376977014 3977.6608854227206
2042.5861621487784 3869.0308485032974
2043.2373297334088 4076.4050021528647
2043.8883404893695 4008.293331271661
2044.5391944544208 4212.170928674038
2045.1898916663158 3981.1528182084403
2045.8404321627804 4200.223609301873
2046.4908159815368 4048.675665087284
2047.1410431602853 4081.4374873718907
2047.7911137367173 3970.4931744444125
2048.441027748504 3898.4745961940107
2049.090785233302 3890.1916120126834
2049.7403862287592 3871.7265334207978
2050.389830772503 4171.0753285192095
2051.0391189021466 3827.0585436874107
2051.688250655294 3921.2792912846257
2052.337226069527 3961.874121818336
2052.986045182417 3902.6656036452578
2053.634708031521 3907.895920167585
2054.283214654375 4001.3298455000972
2054.931565088511 3875.0616801556366
2055.579759371436 3847.9526205792586
2056.2277975406523 3956.23748359611
2056.8756796336384 4224.9466332212705
2057.5234056878617 3569.9656696519182
2058.1709757407752 3928.2991952266334
2058.8183898298194 3940.910930940738
2059.465647992416 3983.6758654301143
2060.1127502659747 3946.8374211612922
2060.759696687888 3995.9728110893216
2061.4064872955405 4189.0855279113175
2062.053122126292 4008.3704971554703
2062.699601217497 3946.868999108694
2063.345924606485 4106.726508553443
2063.992092330587 4012.8172193176056
2064.638104427102 3951.9253229607334
2065.283960933324 4071.5979912140356
2065.92966188653 3964.271412112521
2066.5752073239855 3986.421230024554
2067.2205972829397 3898.351815633894
2067.86583180062 4037.682627780273
2068.5109109142522 3915.4987570596945
2069.15583466104 3842.190041578938
2069.8006030781708 3889.533042491941
2070.445216202821 3935.762768184419
2071.089674072153 4067.4914374548025
2071.7339767233116 3838.97925067433
2072.3781241934303 3962.831607311273
2073.0221165196253 4106.288958630392
2073.6659537390024 3999.9218456380695
2074.3096358886505 3932.445227618463
2074.953163005637 3837.6054285393247
2075.596535127028 3799.9541770884935
2076.2397522898664 3934.0426979464137
2076.882814531182 3912.521009292159
2077.5257218879924 3967.764506290009
2078.1684743973 3753.4971334477473
2078.8110720960885 3765.007366847612
2079.453515021336 3996.945229203484
2080.095803209997 4052.084606408413
2080.7379366990135 3843.8694177295038
2081.37991552532 3889.548640184899
2082.0217397258275 3893.7937392351496
2082.6634093374414 3799.0684629902885
2083.3049243970418 3901.4048533443847
2083.9462849415067 3813.9124530940194
2084.587491007689 3911.185061516393
2085.2285426324324 3974.268171499155
2085.869439852564 3927.9102253715087
2086.510182704902 3704.6522469792785
2087.1507712262483 3949.803985755562
2087.791205453381 3738.861014951355
2088.4314854230743 3944.878720200083
2089.0716111720867 3769.4092475343277
2089.7115827371617 3778.341640597189
2090.351400155023 4150.0713702889925
2090.991063462385 3768.772957854697
2091.6305726959527 3771.2744253619303
2092.2699278924047 4086.3873380598125
2092.9091290884153 3698.6222465288433
2093.548176320641 3838.159977640683
2094.187069625721 3988.5608228342303
2094.8258090402887 3721.3074162395815
2095.464394600951 3801.5869015068247
2096.102826344313 3816.340829467609
2096.741104306955 4121.304186349706
2097.379228525453 3680.186631616403
2098.017199036358 3826.736825721519
2098.6550158762147 3823.88578273049
2099.2926790815527 3981.455772615307
2099.9301886888825 3868.8114288037614
2100.5675447347076 3969.893568439196
2101.2047472555114 4022.633346476883
2101.841796287761 3991.361409492999
2102.47869186792 3854.466668587461
2103.1154340324265 3749.382651873303
2103.752022817709 3672.6297209670824
2104.388458260184 3718.3147157728877
2105.024740396251 3924.9828605596513
2105.660869262292 3789.8431000532314
2106.296844894685 3894.480428866361
2106.93266732978 3761.54612124544
2107.5683366039284 3655.92116897081
2108.2038527534532 3693.937217025549
2108.8392158146726 3741.719367136849
2109.4744258238843 3870.1872672891805
2110.1094828173755 3795.7379790815853
2110.744386831422 4057.216908589869
2111.3791379022787 3709.1654913498155
2112.01373606619 3883.158089278196
2112.648181359389 3687.553703850864
2113.28247381809 3785.600034354269
2113.916613478492 3861.9337764405254
2114.550600376786 4164.041751086215
2115.1844345491445 4035.207406800414
2115.818116031729 3667.3809016580153
2116.451644860679 3595.711769114293
2117.085021072133 3571.248723911905
2117.718244702204 3887.011156776725
2118.3513157869984 3677.973591128236
2118.984234362604 3830.2290195938426
2119.617000465092 3925.0868114339382
2120.249614130529 3869.4093634268697
2120.8820753949585 3779.3418388908003
2121.5143842944162 3576.4324168335975
2122.14654086492 3693.7708204236405
2122.7785451424734 3848.549620225772
2123.4103971630702 3703.97747092641
2124.042096962681 3776.2194294572946
2124.6736445772767 3633.1922799026806
2125.305040042802 3815.9471240543344
2125.936283395191 3765.498801635161
2126.567374670365 3758.0533976757515
2127.198313904233 3703.14152209073
2127.8291011326855 3914.472717374551
2128.4597363916037 3729.522074328718
2129.0902197168507 3806.1380612882544
2129.720551144279 3654.82871420044
2130.3507307097225 3607.6098189780496
2130.980758449008 3741.994137960228
2131.6106343979427 3619.5303824883135
2132.2403585923203 3794.853882228498
2132.8699310679276 3967.7255763138783
2133.499351860526 3709.9441155222567
2134.1286210058715 3795.4407604213106
2134.7577385397053 3622.4172409988105
2135.3867044977487 3605.6893250085086
2136.0155189157176 3683.008372375743
2136.644181829308 3806.999373430299
2137.2726932742025 3504.0980311784842
2137.901053286074 3866.837336558535
2138.5292619005777 3816.139739211144
2139.1573191533535 3799.3893185729953
2139.7852250800315 3952.4426294229133
2140.4129797162295 3796.2492315251534
2141.0405830975433 3539.0485672720447
2141.6680352595613 3803.427400524202
2142.2953362378576 3721.2670886603273
2142.9224860679915 3800.6936653985053
2143.549484785508 3670.3638657341844
2144.1763324259373 3886.5955395970864
2144.803029024799 3704.01497160501
2145.429574617594 3642.657872264596
2146.0559692398165 3818.290371257453
2146.682212926942 3578.5409946112036
2147.308305714432 3686.4272682273877
2147.9342476377333 3684.8590076100363
2148.5600387322847 3713.7350418828755
2149.185679033506 3849.678802279845
2149.8111685768017 3756.683856854129
2150.4365073975678 3699.597759583504
2151.061695531187 3764.060480800609
2151.686733013021 3772.794028330746
2152.311619878423 3735.757757845919
2152.9363561627342 3648.770210185556
2153.560941901278 3547.36887845327
2154.1853771293663 3849.4697620461206
2154.809661882293 3695.950378309159
2155.433796195348 3757.4993200393365
2156.0577801037944 3750.536797725267
2156.681613642895 3718.7598854660887
2157.3052968478896 3792.199717897523
2157.928829754006 3616.0309601044382
2158.552212396462 3711.4420434603103
2159.1754448104566 3541.9150553111967
2159.7985270311783 3559.395140263862
2160.4214590938027 3523.108275817812
2161.0442410334927 3520.6666148015247
2161.6668728853874 3566.292087301755
2162.289354684628 3591.4758941581904
2162.911686466332 3550.767602262581
2163.533868265602 3616.1117807853325
2164.1559001175337 3852.523562408943
2164.7777820572046 3838.8140131194077
2165.399514119681 3669.1690837746546
2166.021096340013 3552.4855674853156
2166.6425287532384 3847.8634246883084
2167.263811394385 3715.80990445829
2167.8849442984574 3701.0554458847037
2168.505927500455 3549.7423290206557
2169.126761035366 3780.9723781224557
2169.7474449381552 3734.728859148635
2170.367979243778 3651.9915208393504
2170.9883639871823 3723.835018019979
2171.608599203293 3616.113063449251
2172.2286849270276 3898.3418872085686
2172.8486211932886 3882.4767059121123
2173.4684080369625 3493.530463865146
2174.0880454929265 3434.6092360584007
2174.7075335960417 3474.5501107242767
2175.3268723811543 3747.367924394622
2175.9460618831 3728.266175896448
2176.565102136701 3601.7971055074586
2177.1839931767627 3812.317533570632
2177.802735038078 3689.7542450280052
2178.421327755432 3557.538475906432
2179.0397713635866 3472.89203307797
2179.658065897298 3542.7210968722875
2180.276211391305 3536.38039669459
2180.8942078803357 3705.105116056157
2181.5120553991 3683.8667059453755
2182.129753982299 3528.402468642693
2182.7473036646206 3549.803987555953
2183.3647044807367 3689.610018555291
2183.9819564653044 3611.906924483736
2184.599059652968 3865.546859547375
2185.216014078367 3669.3451111734857
2185.832819776113 3568.4628237531156
2186.4494767808137 3579.3561903706586
2187.065985127063 3581.84359725199
2187.682344849436 3520.3138572667267
2188.298555982501 3774.3119958674133
2188.9146185608097 3548.0786803929573
2189.530532618901 3595.753779949675
2190.1462981912937 3620.409166597882
2190.761915312507 3641.1394015717387
2191.377384017036 3657.975158012807
2191.9927043393654 3645.026453789619
2192.6078763139667 3442.5665493907995
2193.2228999753006 3904.8647553072415
2193.837775357808 3467.2944166542666
2194.452502495922 3528.308957289925
2195.0670814240602 3614.0895502012763
2195.6815121766285 3556.0356995327397
2196.2957947880186 3825.895751924273
2196.9099292926057 3516.49938717041
2197.523915724758 3700.2915276531435
2198.137754118825 3527.9845155937487
2198.7514445091456 3642.1422895550486
2199.3649869300443 3490.3811453372373
2199.9783814158327 3603.6752371765624
2200.5916280008096 3881.9677817059082
2201.2047267192593 3561.3336798038813
2201.8176776054515 3687.8579629971546
2202.430480693649 3648.1260396669227
2203.0431360180955 3723.7382383568897
2203.6556436130195 3596.3870361312024
2204.268003512645 3546.8799232918927
2204.8802157511727 3674.6840606227393
2205.492280362796 3748.491912779625
2206.1041973816937 3646.2028043630103
2206.715966842032 3542.1954707107157
2207.3275887779655 3405.413959768979
2207.93906322363 3484.433858945954
2208.550390213153 3543.447372967068
2209.1615697806465 3503.3537343773687
2209.7726019602105 3428.802762092508
2210.3834867859277 3287.236958047917
2210.9942242918787 3599.707584142327
2211.6048145121167 3417.7207647447567
2212.2152574806914 3648.0845546761047
2212.825553231638 3576.1263361742594
2213.435701798975 4012.1521001544083
2214.045703216707 3608.3531024103117
2214.655557518832 3402.805205962589
2215.2652647393297 3560.373334262849
2215.874824912169 3378.160589333088
2216.4842380713 3521.3119654069874
2217.09350425067 3529.932206972645
2217.7026234842033 3320.7592398137263
2218.311595805819 3585.925413951644
2218.9204212494133 3590.2549783961513
2219.52909984888 3690.1250910745453
2220.137631638092 3343.452492841466
2220.7460166509154 3700.6297492297977
2221.354254921198 3523.5068975308777
2221.9623464827764 3627.2561680730782
2222.5702913694713 3373.4815489905463
2223.178089615096 3363.679586895489
2223.7857412534486 3532.3204353810825
2224.39324631831 3493.8154334213455
2225.000604843457 3322.505786251123
2225.607816862641 3862.180968776732
2226.214882409611 3501.334106926268
2226.8218015180973 3651.3257862935534
2227.4285742218217 3287.8296441163875
2228.0352005544864 3596.5729488767574
2228.6416805497847 3345.16861134739
2229.248014241399 3461.3696212322116
2229.8542016629945 3390.7255885176555
2230.460242848223 3631.86168194207
2231.0661378307304 3795.024293863554
2231.671886644139 3263.0159457229847
2232.277489322065 3424.8707917832508
2232.8829458981127 3379.0882770872836
2233.48825640587 3563.107544759195
2234.0934208789095 3639.672450808598
2234.6984393507955 3723.6826591050767
2235.3033118550793 3568.850512235395
2235.9080384252975 3409.5429591301086
2236.5126190949723 3521.6507354132
2237.1170538976166 3271.712560588666
2237.721342866729 3245.140941641612
2238.32548603579 3471.696276266159
2238.9294834382763 3483.2885109889635
2239.533335107646 3291.1137707140815
2240.1370410773434 3628.144254950722
2240.740601380803 3357.9271008271926
2241.3440160514474 3131.3936466059035
2241.9472851226783 3502.9981039196136
2242.550408627896 3385.2302090612006
2243.1533866004793 3444.062781328818
2243.756219073799 3416.081362079719
2244.3589060812064 3208.094382981427
2244.961447656049 3337.9635164724414
2245.5638438316564 3547.9609604220377
2246.166094641343 3480.302064897796
2246.7682001184166 3425.929945402872
2247.3701602961664 3421.9049057544025
2247.971975207871 3508.38892509591
2248.5736448867974 3355.8401452963017
2249.175169366197 3573.044529448839
2249.7765486793123 3405.050132359277
2250.3777828593684 3549.2685960840913
2250.9788719395783 3694.9628790537727
2251.579815953146 3478.2699936255913
2252.1806149332606 3295.454622060638
2252.781268913097 3494.5728531648865
2253.381777925817 3293.487902201512
2253.9821420045737 3458.4380143115495
2254.5823611825035 3445.639791545507
2255.1824354927303 3132.0244574515864
2255.782364968365 3127.4011167717767
2256.38214964251 3122.8688231826773
2256.9817895482483 3176.189057492312
2257.5812847186553 3564.471542565745
2258.180635186791 3015.96792386236
2258.779840985704 3450.085115360119
2259.37890214843 3347.743859444135
2259.97781870799 3548.0545663992534
2260.5765906973957 3224.0666762824358
2261.175218149645 3246.568923555616
2261.773701097718 3367.232194262638
2262.3720395745895 3279.403738270389
2262.970233613216 3129.2837528780556
2263.568283246548 3142.324942334743
2264.1661885075137 3314.3557198571316
2264.763949429038 3542.6348023376786
2265.3615660440246 3249.208074518784
2265.959038385374 3471.645677713026
2266.5563664859637 3455.9258343667702
2267.153550378669 3268.510884962861
2267.7505900963424 3414.317006094275
2268.3474856718312 3245.2884777393965
2268.9442371379664 3350.6266384689625
2269.5408445275643 3228.915063677404
2270.1373078734377 3152.887510949206
2270.7336272083758 3286.2688375452694
2271.32980256516 3448.9997343330847
2271.925833976562 3659.5016270908245
2272.5217214753357 3452.9900243369084
2273.117465094223 3365.79805438739
2273.7130648659586 3243.0323015114727
2274.308520823257 3441.6461343892443
2274.903832998827 3426.516409660245
2275.4990014253563 3314.1869214000762
2276.094026135528 3280.292986070113
2276.6889071620117 3043.8529191766493
2277.2836445374614 3346.4600372779278
2277.878238294519 3237.781310336479
2278.472688465812 3514.385164809806
2279.066995083962 3270.570321345234
2279.6611581815705 3279.163820450029
2280.255177791232 3183.843521137054
2280.8490539455233 3529.643606193382
2281.442786677013 3402.071419162924
2282.0363760182554 3290.0647602944873
2282.6298220017943 3234.14344815357
2283.223124660155 3381.0100051208706
2283.816284025859 3317.646652463948
2284.4093001314086 3394.9258417766578
2285.002173009292 2823.143954523645
2285.5949026919952 3338.695873855442
2286.1874892119777 3160.635307072276
2286.7799326016993 3266.2058940992683
2287.3722328936 3192.629133517762
2287.964390120109 3043.165814744457
2288.556404313642 3190.8046853688165
2289.1482755066027 3537.073655953308
2289.7400037313873 3093.5637885716737
2290.3315890203703 3239.6355519238814
2290.9230314059205 2701.9398580262086
2291.5143309203904 3320.7780949022062
2292.1054875961236 3214.495551418847
2292.6965014654506 3059.110054140603
2293.287372560684 3166.8006563639747
2293.878100914131 3506.6026735990517
2294.468686558086 3287.962024697584
2295.059129524827 3213.6482052903516
2295.649429846617 3413.0285777198924
2296.239587555716 3427.8319653523686
2296.8296026843636 3348.3400198732515
2297.419475264791 3425.0311276846382
2298.0092053292137 3399.3386515833345
2298.598792909839 3062.9857596821034
2299.1882380388597 3174.233856984153
2299.777540748455 3267.806693409679
2300.3667010707904 3515.221323016957
2300.9557190380256 3273.422733317487
2301.544594682302 3501.5407804326505
2302.1333280357503 3130.7931805031453
2302.721919130485 3386.404526730273
2303.3103679986198 3209.987801350129
2303.898674672242 3244.4284756027932
2304.486839183437 3185.9063614943652
2305.0748615642697 3591.8826481298033
2305.6627418468015 3126.0775699817773
2306.2504800630704 3342.779004507177
2306.8380762451143 3102.4011196986376
2307.425530424949 2803.204775773142
2308.012842634582 3420.7374866619793
2308.6000129060103 3474.9304198503414
2309.187041271214 3381.4172199800073
2309.773927762164 3227.568071230411
2310.3606724108213 3241.1689424406677
2310.9472752491274 3192.927141812553
2311.5337363090184 3126.678025963816
2312.120055622414 3003.0828419167547
2312.706233221221 3113.2032949184663
2313.2922691373424 2945.01566619404
2313.8781634026564 3152.0565029428008
2314.463916049037 3159.168246758515
2315.049527108342 3172.825751124705
2315.6349966124235 3273.7125490535223
2316.2203245931123 3404.4409409380155
2316.8055110822315 3129.4299172332544
2317.3905561115935 3060.2450901420034
2317.9754597129977 3033.8832106201717
2318.560221918229 3229.3585130005863
2319.1448427590603 3269.5279053978866
2319.729322267256 3017.822936467956
2320.313660474563 3463.568003949873
2320.8978574127195 3354.917219859338
2321.481913113452 3137.8512218304463
2322.0658276084705 2906.9694866273812
2322.6496009294806 3205.1393522947974
2323.233233108165 3310.089721354375
2323.8167241762058 3363.3355929562836
2324.4000741652617 3342.766942874199
2324.983283106987 3400.867193994001
2325.5663510330232 3362.9183609506244
2326.1492779749933 3388.4736088396057
2326.7320639645204 3197.9148699923203
2327.3147090332004 3016.7195902829185
2327.897213212629 3506.7654354253414
2328.4795765343843 3191.483305342516
2329.0617990300307 3201.8996970168446
2329.643880731124 3266.4890357324425
2330.22582166921 3053.769873802983
2330.807621875816 3291.487940086892
2331.3892813824623 3180.668325427112
2331.9708002206517 3029.177669215874
2332.5521784218818 3439.7520470316645
2333.133416017634 3288.584106884923
2333.7145130393765 3215.4736225727124
2334.295469518571 3123.533756131964
2334.876285486658 3382.7785321393653
2335.456960975076 2988.688460800612
2336.037496015242 3277.520935683806
2336.6178906385667 3216.2490330837195
2337.198144876451 3267.9794010872265
2337.778258760278 3059.116509210366
2338.3582323214214 3012.902291893278
2338.938065591243 3294.898816361798
2339.517758601087 3441.4524000928227
2340.0973113822965 3093.654109737473
2340.676723966193 2822.627470705496
2341.255996384094 3103.5148080903023
2341.835128667295 3175.8105898000413
2342.4141208470883 3353.7886901992633
2342.992972954751 3182.2833816262355
2343.5716850215467 3105.752088023375
2344.1502570787306 2936.997330791476
2344.7286891575386 3083.91594184911
2345.3069812892045 3039.6550513979764
2345.885133504944 3447.4810033612
2346.4631458359618 3004.2275986855525
2347.04101831345 3211.81639847181
2347.6187509685915 3234.7402923453224
2348.196343832553 3135.5157403704316
2348.7737969364935 2817.9835814462695
2349.351110311558 3046.8192914688466
2349.9282839888765 3012.1216330666875
2350.5053179995757 3045.7272196317017
2351.0822123747585 2816.981598113098
2351.658967145526 3353.5574124429672
2352.2355823429643 3046.140595532692
2352.812057998144 3127.931023425652
2353.3883941421263 3111.669548786838
2353.9645908059647 3171.1268118105186
2354.540648020693 3090.0091478011063
2355.116565817336 3038.7497458755156
2355.6923442269126 2923.903568813121
2356.2679832804224 3033.08193585125
2356.8434830088518 2997.4395645843283
2357.41884344318 3184.598925223684
2357.994064614377 3007.046948686605
