#exp_cfg={"servo_angle": 0.0, "laser_lim": 100.0, "servo_angle_to": 18.0, "laser_wup": 0.0, "bt_dev": "EnSpectr-25AE3", "laser_wdn_max": 0.0, "frames": 10.0, "servo_used": 0, "servo_calib_use": 0, "laser_wdn_min": 0.0, "servo_pix_from": 90.0, "cooler_tout": 300.0, "servo_angle_from": 0.0, "servo_calib": "[-1.9174921013161362e-09, 3.9322238269163779e-05, -0.27385609119055809, 653.59552119713567]", "laser_autoctl": 0, "servo_pix_to": 3682.0, "laser_pw": 100.0, "cooler_on": 0, "laser_volt": 4.0, "cooler_autoctl": 0, "cooler_curr": 70.0, "cooler_startup": 10.0, "laser_fixed_pw": 0, "gain": 1.3, "offset": 2.53059635486, "servo_calib_degree": 3.0, "laser_curr": 55.0, "shutter": 8200.0, "servo_calib_step": 1.0, "laser_fixed_curr": 0, "exp": 2000.0, "ccd_volt": 4.7, "bt_addr": "00:06:66:62:5A:E3", "servo_delay": 500.0, "laser_autooff": 1}
#proc_cfg={"flat_auto_wnd": 200.0, "flat_auto_fr": 200.0, "flat_auto_shift": 5.0, "yconv": 1, "flatten": 1, "flatten_strength": 100.0, "xfrom": 300.0, "auto_max_frame": 2000.0, "auto_signal": 48000.0, "flat_auto_tol": 0.1, "autoclip": 1, "xrel_range": 0.0, "flat_auto_to": 4000.0, "intensity_adj": 1.0, "xrel": 7852.0, "rmhot": 1, "flat_auto_slit": 4.999999999999997, "auto_ini_exp": 300.0, "auto_off": 0, "xto": 2860.0, "flat_auto_ref": "", "flat_auto_rank": 1, "autobackg": 0, "xrel_adj": 0.0, "auto_black_lvl": 1, "base_wnd": 100.0, "sub_baseline": 0, "xconv": 2, "auto_max_exp": 1000.0, "auto_total_exp": 10000.0, "auto_exp": 0, "rmripple": 0, "black_lvl": 8256.225, "shutter_clip_adj": 0.0, "auto_bckg": 0, "flat_auto_thr": 0.9, "subbackg": 1}
316.8218498245369 11369.358112045285
317.89969571804795 11137.148749152573
318.977263876126 11151.08009569087
320.05455438786703 10994.30102568251
321.1315673423287 10955.284056455774
322.2083028285215 11008.30231947122
323.2847609354267 10908.953828014459
324.3609417519747 10878.851894651463
325.43684536705587 10818.89855816439
326.5124718695279 10699.315174874913
327.58782134820103 10722.812062226607
328.66289389184385 10685.074419026534
329.7376895891921 10531.326169429256
330.8122085289342 10578.053176945135
331.88645079971866 10550.124923443589
332.9604164901575 10438.947148708045
334.03410568881554 10443.472824741964
335.1075184842266 10615.134300897309
336.18065496487543 10397.602251994158
337.2535152192122 10353.257585253028
338.32609933564163 10454.137697607835
339.39840740253203 10346.085085932886
340.4704395082099 10276.307119813191
341.5421957409617 10340.006717592296
342.6136761890357 10351.637210840963
343.6848809406365 10258.45477237797
344.75581008392874 10191.85204436987
345.82646370703696 10209.515130035532
346.8968418980512 10201.756838611123
347.96694474501055 10194.2887814075
349.0367723359268 10143.275426544478
350.106324758759 10121.72646180735
351.1756021014353 10035.622167077032
352.2446044518383 10072.399321223336
353.31333189781435 10177.38776460679
354.38178452716966 10120.063225334816
355.449962427665 10081.182205796851
356.51786568702846 10158.237406278357
357.58549439294256 10227.312548759448
358.6528486330535 10207.936274306494
359.71992849496564 10164.210818726422
360.7867340662433 10156.996976957698
361.8532654344144 10078.119006660616
362.9195226869597 10272.114238951868
363.9855059113288 10053.411847049176
365.05121519492604 10146.144483064225
366.11665062511565 10311.447561681947
367.1818122892273 10272.45072070303
368.2467002745434 10138.907916997176
369.31131466831175 10307.537312231763
370.375655557742 10305.955792774726
371.4397230299983 10261.654183262137
372.5035171722102 10246.109075861117
373.5670380714637 10310.1953712718
374.6302858148101 10291.126123526552
375.6932604892554 10278.895653029773
376.7559621817709 10266.82353369344
377.81839097928605 10177.783706584383
378.8805469686886 10195.581369968197
379.94243023683157 10190.03998891751
381.0040408705263 10197.497616723917
382.0653789565458 10159.173925901932
383.1264445816196 10175.67630487018
384.1872378324406 10137.140321649635
385.2477587956637 10171.897023876018
386.3080075579037 10118.131595007171
387.3679842057336 10027.856608709091
388.4276888256918 10110.079412785202
389.48712150426945 10098.60342789508
390.54628232792857 10058.925802233898
391.6051713830857 10005.179258596698
392.66378875611736 10109.371338108967
393.7221345333637 10042.330451294369
394.7802088011249 9942.2056622332
395.838011645661 10000.520552257636
396.89554315319765 9966.018933156203
397.9528034099112 9932.259051897647
399.00979250194723 9834.67731967199
400.06651051541485 9813.84374911441
401.1229575363741 9860.559841482025
402.17913365085224 9817.903502046902
403.23503894483656 9878.890776053999
404.2906735042761 9697.786752704162
405.3460374150818 9694.302112904918
406.401130763119 9754.117484437109
407.455953634224 9734.061703071839
408.5105061141876 9723.593439989916
409.56478828876243 9582.602268882787
410.6188002436629 9572.69996110641
411.6725420645689 9615.860261116211
412.72601383711117 9640.76803207029
413.77921564689314 9638.87679791227
414.8321475794728 9546.767834532115
415.88480972036814 9495.273066753409
416.93720215506437 9568.813213542751
417.9893249690049 9532.27121952294
419.04117824759123 9424.834882278818
420.09276207619223 9451.152061558536
421.144076540133 9426.38042561476
422.1951217247042 9394.348736642065
423.24589771515275 9479.408495043137
424.2964045966928 9378.752234613528
425.34664245449494 9393.224647436622
426.3966113736933 9342.087083041997
427.4463114393875 9352.216699041612
428.49574273662984 9332.107731828544
429.5449053504417 9299.498251653458
430.5937993658026 9323.5618609535
431.6424248676558 9237.392044058257
432.6907819409007 9219.375923659918
433.73887067040596 9273.717714884157
434.7866911409965 9239.079635900078
435.8342434374608 9258.651609460965
436.88152764455117 9218.62540132143
437.9285438469724 9210.307167845534
438.9752921294057 9173.966609325882
440.02177257648145 9221.733715657214
441.06798527279716 9106.477258900773
442.1139303029122 9233.520604740037
443.1596077513459 9208.048856807114
444.2050177025794 9145.652415335771
445.25016024105753 9140.74674855753
446.2950354511886 9140.906147565636
447.33964341733736 9213.538256758487
448.383984223834 9143.095881541889
449.4280579549686 9113.865129707745
450.471864694995 9132.596076418069
451.5154045281306 9204.588843988784
452.5586775385509 9136.763967780149
453.60168381039693 9176.670617824548
454.64442342776783 9203.304105558094
455.6868964747264 9169.301605541312
456.7291030353008 9168.941584168044
457.77104319347563 9236.04924553575
458.8127170332027 9272.178193904887
459.854124638392 9172.331674295814
460.895266092919 9281.411768628252
461.93614148061897 9310.668338513531
462.97675088529104 9342.978898818124
464.01709439069236 9373.423879897346
465.0571720805492 9377.221121562347
466.0969840385442 9398.78638236824
467.1365303483253 9519.166163687234
468.17581109350067 9461.825429314875
469.2148263576437 9446.375297227522
470.2535762242878 9545.944364670082
471.29206077693016 9615.787585665827
472.33028009902773 9617.684027290139
473.3682342740012 9605.333723423735
474.40592338523857 9682.343333551244
475.4433475160804 9670.917715124397
476.4805067498364 9761.457306391947
477.51740116978 9756.727135699895
478.5540308591426 9896.154383124434
479.59039590112116 10014.090269649683
480.6264963788726 10000.406731656723
481.6623323755193 10151.563501420485
482.6979039741436 10251.079820500807
483.7332112577915 10424.215108367625
484.76825430947247 10679.916442118956
485.80303321215797 10689.328014992516
486.837548048783 10808.540026294566
487.8717989022425 11060.574717538593
488.90578585539697 11113.656684758724
489.9395089910686 11194.076311685709
490.97296839203955 11109.066177187498
492.00616414106116 11097.35922482573
493.0390963208429 11087.98464257943
494.0717650140559 11062.758037604717
495.10417030333883 10978.834241452309
496.1363122712901 10874.908283682313
497.16819100046814 10737.244854149187
498.1998065734024 10544.24436083374
499.2311590725767 10439.172344380548
500.26224858044407 10281.726780790417
501.2930751794156 10106.84149496671
502.3236389518679 10011.819845200836
503.35393998014115 9778.718757290164
504.38397834653733 9846.98521836091
505.4137541333221 9811.876069676544
506.4432674227228 9691.580525045361
507.4725182969323 9649.768336867866
508.5015068381035 9591.651543272368
509.53023312835467 9537.329375419238
510.55869724976765 9481.883021147823
511.58689928438434 9364.323607834453
512.6148393142121 9371.64663787475
513.6425174212218 9389.83814867219
514.6699336873462 9404.462273067795
515.6970881944835 9447.564655253387
516.7239810244901 9403.670230921925
517.7506122591931 9457.41694272967
518.7769819803761 9445.234316279219
519.8030902697901 9522.205437665181
520.8289372091476 9599.212926872873
521.8545228801249 9709.797334451341
522.8798473643619 9513.867930969926
523.9049107434621 9615.839603239107
524.9297130989908 9577.635730952401
525.9542545124805 9504.36578566437
526.9785350654201 9416.935142301641
528.0025548392696 9584.57516353186
529.0263139154504 9457.416283591763
530.0498123753423 9504.855928537672
531.073050300296 9425.876592540635
532.0960277716204 9392.393215649216
533.1187448705896 9388.70065376859
534.1412016784416 9325.339164681607
535.1633982763833 9307.301530721446
536.1853347455726 9310.912665601543
537.2070111671401 9253.950272649716
538.2284276221817 9180.79873004084
539.2495841917516 9057.469767610515
540.2704809568677 9031.384010178193
541.2911179985167 8989.584041481177
542.3114953976419 8922.289688011548
543.3316132351592 8876.687328591777
544.3514715919409 8800.604379347318
545.3710705488247 8830.450963885512
546.3904101866156 8795.301289339117
547.4094905860784 8861.231580942449
548.4283118279418 8787.703134254964
549.4468739929034 8781.044101773228
550.4651771616191 8781.331886322734
551.4832214147063 8708.837832016234
552.501006832761 8702.628665616841
553.5185334963226 8700.652450440339
554.5358014859103 8772.875274388938
555.5528108820035 8752.36034558758
556.5695617650363 8611.36414748888
557.5860542154242 8779.505976077615
558.6022883135283 8670.76851510573
559.6182641396881 8640.442023477572
560.6339817741991 8683.665588047497
561.6494412973225 8714.967193226847
562.6646427892883 8657.339181769978
563.6795863302796 8666.324895193946
564.694272000459 8699.71366522691
565.7086998799423 8713.194425393302
566.7228700488104 8661.979675680583
567.7367825871115 8646.187278328203
568.7504375748576 8707.453806619042
569.7638350920224 8685.334608301177
570.7769752185486 8726.71148752779
571.7898580343353 8717.346797595903
572.802483619258 8715.199340311026
573.8148520531431 8878.888725998495
574.8269634157932 8811.911966762415
575.8388177869692 8814.360719821436
576.8504152463938 8873.523886347704
577.8617558737587 9009.02458691358
578.8728397487175 9012.27389651818
579.883666950891 9153.8986068995
580.8942375598654 9204.860189333478
581.9045516551851 9287.32743768573
582.9146093163617 9430.430033854755
583.924410622878 9413.063260623097
584.9339556541727 9416.948211440824
585.9432444896538 9604.27315828978
586.9522772086875 9641.710762361603
587.9610538906127 9569.814449768131
588.9695746147318 9492.528878357207
589.9778394603054 9550.632167668833
590.985848506567 9497.028901798321
591.9936018327098 9448.89927468621
593.0010995178891 9222.684283043676
594.0083416412344 9347.575209674593
595.0153282818283 9191.837193135592
596.0220595187293 9080.410404882237
597.0285354309508 9028.553640240481
598.0347560974806 9046.428734410047
599.0407215972609 8943.082589050791
600.0464320092051 8943.339514975498
601.0518874121954 8967.07889857571
602.0570878850685 8843.97754053753
603.062033506636 8906.143438223118
604.0667243556636 8977.495335027415
605.0711605108936 8853.560792621078
606.0753420510264 9012.370186778515
607.0792690547278 8934.987424787123
608.082941600629 8943.169913331016
609.0863597673306 8873.433693664081
610.0895236333909 9013.788517740986
611.0924332773357 9171.314686597183
612.0950887776617 9124.345926561571
613.0974902128219 9247.769348223605
614.0996376612384 9443.28723003685
615.1015312013005 9407.660686635038
616.1031709113595 9493.396703349521
617.1045568697336 9392.615237837017
618.1056891547069 9629.72268712155
619.1065678445229 9772.213262460667
620.1071930173985 10086.131706192953
621.1075647515099 10103.491237623526
622.1076831250048 10208.271940411803
623.1075482159849 10432.672220532804
624.1071601025305 10537.664429954728
625.1065188626781 10732.884521041884
626.105624574433 10980.839700163744
627.1044773157682 11153.745654890572
628.1030771646128 11268.39960542201
629.1014241988742 11416.668394009032
630.0995184964158 11572.480115739188
631.0973601350688 11703.580838663967
632.0949491926294 11915.201668786838
633.0922857468631 11638.247095973256
634.089369875499 11758.562222812494
635.0862016562278 11812.99504641328
636.0827811667077 11616.67085642254
637.0791084845641 11612.619246591974
638.0751836873878 11462.430669593183
639.0710068527369 11442.252225265547
640.0665780581294 11224.295041809904
641.0618973810506 11090.288649466966
642.0569648989604 10978.327682411214
643.0517806892676 10711.372491822529
644.0463448293649 10628.617779317936
645.040657396592 10337.358079802128
646.0347184682723 10203.180728840434
647.0285281216875 10117.767987612879
648.0220864340772 9960.544728880977
649.0153934826558 9749.77222392841
650.0084493446047 9606.469574314135
651.0012540970674 9547.227550791866
651.9938078171526 9342.408175391798
652.9861105819346 9276.935248655152
653.9781624684565 9284.222520644522
654.9699635537254 9123.530369846852
655.9615139147136 9104.290492827538
656.9528136283589 8911.838084446154
657.9438627715699 9020.636205997404
658.9346614212154 8939.815137151378
659.925209654135 8813.822666532174
660.9155075471263 8851.248391881625
661.9055551769616 8791.70557317587
662.895352620375 8832.107332990714
663.8848999540678 8739.554713737929
664.8741972547068 8707.384203438263
665.863244598926 8639.812422021856
666.8520420633213 8700.90374945674
667.8405897244611 8636.734515382745
668.8288876588758 8571.965993252943
669.8169359430613 8577.073067454232
670.8047346534822 8581.269441509627
671.7922838665672 8515.771984040151
672.7795836587156 8585.6786627243
673.766634106285 8577.288110778585
674.7534352856092 8497.37415655117
675.7399872729766 8436.867765675168
676.7262901446538 8556.809201897251
677.712343976862 8522.71360823732
678.6981488457986 8517.13869443622
679.6837048276229 8487.348841748211
680.6690119984596 8544.476480830112
681.6540704344043 8493.225973638419
682.6388802115107 8512.47154836871
683.6234414058108 8465.99252937316
684.6077540932874 8342.880720126941
685.591818349907 8353.373634027968
686.575634251587 8385.616260662693
687.5592018742263 8357.03467983109
688.5425212936734 8313.51958973847
689.5255925857564 8312.396013015472
690.5084158262707 8299.693929946687
691.4909910909646 8261.613546358814
692.4733184555644 8228.23803708865
693.4553979957618 8281.014723435685
694.4372297872123 8208.95182130596
695.4188139055404 8153.118235555166
696.4001504263324 8046.303447732226
697.3812394251509 8183.214009255277
698.3620809775111 8083.401597273571
699.3426751589104 8145.260184725303
700.3230220448004 8043.539521185437
701.3031217106054 8131.736000768511
702.2829742317172 8208.431179708226
703.2625796834873 8042.316679497019
704.2419381412474 8004.531296035125
705.22104968028 8046.081224456282
706.1999143758458 8077.251764606012
707.178532303169 8103.828266981039
708.1569035374378 8078.122368610208
709.1350281538107 8130.978208070042
710.1129062274158 8074.832570818176
711.0905378333373 8138.83136182407
712.0679230466376 8085.60289041075
713.0450619423427 8209.124338796433
714.0219545954424 8210.956847613172
714.9986010808989 8187.433758138095
715.9750014736292 8215.790021403807
716.9511558485392 8312.416587249876
717.9270642804786 8315.758929202104
718.9027268442787 8332.758505665073
719.8781436147328 8370.154728726153
720.8533146666014 8325.708385174546
721.828240074612 8312.739411934874
722.8029199134635 8274.709839645888
723.7773542578125 8304.683495690264
724.751543182294 8269.873350557433
725.7254867615029 8234.640158548216
726.6991850700015 8188.859293076598
727.6726381823228 8102.294430427831
728.6458461729599 8118.372129077528
729.6188091163858 8168.353253754435
730.5915270870246 8128.387389939795
731.5640001592856 8000.252421354203
732.536228407529 8117.622387207618
733.5082119060917 8040.852850356625
734.4799507292755 7993.576764270374
735.4514449513481 8108.342308676739
736.4226946465496 8107.30951483739
737.3936998890786 8155.923387005636
738.3644607531078 8056.836284297821
739.3349773127793 8123.803877303774
740.3052496421951 8059.837134016978
741.27527781543 8003.954170985399
742.2450619065221 8027.121540892959
743.2146019894826 8058.51748724428
744.183898138288 8066.471255518154
745.1529504268801 8006.336190472868
746.1217589291682 7974.483678253469
747.0903237190341 7946.601019440645
748.058644870318 7916.904507422917
749.0267224568397 7847.234883052927
749.994556552374 7792.198575798966
750.9621472306771 7934.134941442125
751.9294945654583 7808.387871292335
752.8965986304011 7895.61882179447
753.8634594991636 7791.834271679887
754.8300772453586 7922.995557024389
755.7964519425768 7913.959701302175
756.762583664371 7901.210403685902
757.7284724842611 7855.092860915836
758.6941184757416 7890.217027362208
759.6595217122667 7849.897887976074
760.6246822672638 7880.283520695826
761.5896002141235 7824.8242762176105
762.5542756262093 7861.623174136372
763.5187085768503 7891.223015656118
764.4828991393406 7863.313959943187
765.4468473869474 7873.901596424263
766.4105533929032 7822.500150633027
767.3740172304078 7740.5038868473
768.3372389726283 7871.301026271818
769.3002186926988 7672.625131394636
770.2629564637282 7716.438491349649
771.2254523587872 7717.834779307823
772.1877064509154 7595.416512570149
773.1497188131179 7580.114568747685
774.1114895183728 7498.60463196694
775.0730186396268 7557.851184422661
776.0343062497905 7425.188218166683
776.9953524217381 7442.805361690829
777.9561572283274 7413.930244726487
778.9167207423689 7411.726733107304
779.8770430366476 7367.51493857664
780.8371241839159 7316.696648738504
781.7969642568951 7348.278170174597
782.7565633282757 7477.445689840608
783.7159214707099 7374.700784172344
784.6750387568281 7362.300936583856
785.6339152592227 7376.695953082934
786.5925510504512 7384.043615071506
787.5509462030477 7359.269477912283
788.5091007895098 7351.517692210398
789.4670148823006 7349.394273327513
790.4246885538596 7397.127518561417
791.3821218765861 7360.904090455093
792.3393149228505 7351.763163216577
793.2962677649975 7443.065155521746
794.2529804753303 7502.786970346018
795.20945312613 7496.324921678291
796.1656857896378 7419.9371845738715
797.1216785380675 7556.372056336368
798.0774314435985 7645.036230675598
799.0329445783846 7769.905698850074
799.9882180145414 7697.880753368916
800.9432518241574 7791.755549384028
801.89804607929 7885.595677155363
802.852600851962 7920.057101348108
803.8069162141637 7909.614117927571
804.760992237856 8072.856728472548
805.714828994971 8071.919622180964
806.6684265574077 8174.694137687887
807.6217849970271 8143.146840887913
808.574904385674 8102.048390005506
809.527784795142 8094.188170158382
810.4804262972102 8188.544692715113
811.4328289636178 8025.46876178905
812.3849928660748 7918.703437318832
813.3369180762638 7921.069634427737
814.2886046658241 7749.314953477066
815.2400527063783 7681.24594582748
816.1912622695108 7631.027765207257
817.1422334267718 7663.181582472205
818.0929662496856 7441.946725506886
819.0434608097457 7426.042504853331
819.9937171784059 7293.196464994508
820.9437354271013 7242.553084014258
821.8935156272255 7379.010833016189
822.8430578501484 7161.492794010049
823.7923621672016 7040.4196360542555
824.7414286496896 7064.864218008837
825.6902573688876 7043.182398973052
826.6388483960363 7097.055179468179
827.5872018023492 7023.171905595013
828.5353176590033 7083.241200021088
829.4831960371503 6949.600662409304
830.4308370079016 6978.787343764374
831.3782406423525 7009.082009913245
832.3254070115545 6900.487288562452
833.2723361865319 6898.020259980216
834.2190282382799 6896.6298295049855
835.1654832377644 6924.799661815776
836.1117012559116 6847.436624208497
837.0576823636256 6991.671828852401
838.003426631778 6820.065315532801
838.9489341312074 6794.99709202289
839.8942049327197 6877.515737348018
840.8392391070975 6938.986513149241
841.7840367250865 6861.351201696563
842.7285978573982 6851.570755864506
843.672922574724 6896.012303142765
844.6170109477152 6841.363364340563
845.560863046996 6918.024842052577
846.5044789431595 6788.775018966799
847.4478587067697 6902.851744529842
848.3910024083561 6933.780444011517
849.333910118421 6928.458893124091
850.2765819074339 6860.612336493477
851.2190178458332 6874.064396108096
852.161218004032 6902.43246588749
853.1031824524016 6920.8236802940255
854.0449112612987 6844.9805172900715
854.9864045010327 6926.497859598768
855.9276622418947 6823.110402634515
856.8686845541379 6796.343321444768
857.8094715079915 6848.049136781326
858.7500231736467 6963.7606779643265
859.690339621271 6881.971848836001
860.6304209209939 6951.4252534945135
861.5702671429244 6854.509347535379
862.5098783571284 6946.211862374691
863.4492546336569 6912.729072462896
864.3883960425155 6900.540171035485
865.3273026536863 6924.250576046003
866.2659745371238 6951.723913261834
867.2044117627465 7106.36739933262
868.1426144004472 6975.006629886737
869.0805825200823 7113.215104054875
870.0183161914847 7088.842242776003
870.9558154844526 7205.1902127445455
871.8930804687552 7183.8981374776195
872.8301112141307 7146.695328953804
873.7669077902865 7306.608043136494
874.7034702669062 7331.172662016191
875.6397987136315 7349.367397041252
876.5758932000863 7326.2649739195285
877.5117537958522 7412.910524640222
878.4473805704911 7379.754382370527
879.3827735935283 7419.660430898481
880.3179329344603 7530.892296969696
881.2528586627541 7444.887598472534
882.1875508478479 7540.256042105664
883.1220095591489 7517.296691625411
884.0562348660296 7464.727359761947
884.9902268378391 7589.73908768935
885.9239855438955 7511.786551502219
886.8575110534839 7425.364096357455
887.7908034358588 7414.209979388566
888.7238627602474 7384.902186803646
889.6566890958475 7354.264827279576
890.5892825118208 7238.4280198136985
891.5216430773125 7313.110445404246
892.4537708614189 7135.15845858914
893.3856659332196 7085.089655505687
894.3173283617652 7022.677841169212
895.2487582160684 7044.713283024942
896.179955565116 7010.128265199152
897.110920477864 6807.498384093937
898.0416530232451 6808.0924236833935
898.9721532701478 6790.435294222548
899.9024212874428 6898.285074213338
900.8324571439662 6702.665287151763
901.7622609085302 6684.130451636571
902.6918326499072 6624.812385364066
903.6211724368477 6647.853447745333
904.5502803380696 6684.7969057173805
905.4791564222614 6741.830480579277
906.4078007580792 6644.150811725306
907.3362134141571 6629.5430481416815
908.2643944590909 6614.752779348355
909.1923439614493 6543.534384958957
910.1200619897754 6543.517089859987
911.0475486125779 6760.65820172344
911.9748038983344 6512.717395718622
912.9018279155007 6528.293236878908
913.8286207324982 6559.572328782282
914.7551824177117 6510.841362483481
915.6815130395116 6460.192240410234
916.6076126662283 6471.0571930205015
917.533481366163 6536.6248905067705
918.4591192075914 6522.975124084475
919.3845262587565 6565.210774912111
920.3097025878706 6522.547830117214
921.2346482631237 6495.350791715644
922.1593633526682 6562.252445943735
923.0838479246304 6545.599224444809
924.0081020471061 6566.685218074675
924.9321257881656 6412.668758701441
925.8559192158464 6517.129002199136
926.7794823981512 6417.561049207749
927.7028154030686 6425.981737440109
928.6259182985414 6368.136520801394
929.5487911524906 6600.314965319703
930.4714340328119 6479.9051840174425
931.3938470073608 6367.715231031064
932.3160301439748 6491.558553096178
933.2379835104548 6461.980941203486
934.1597071745709 6498.745526483921
935.0812012040769 6500.199083866972
936.002465666681 6487.632282335808
936.9235006300696 6514.422014547137
937.8443061619055 6504.93628000138
938.7648823298077 6386.25124751556
939.6852292013809 6480.680500500456
940.6053468441951 6507.39352355052
941.5252353257874 6371.816064203211
942.4448947136698 6464.689979322774
943.364325075323 6437.139448968488
944.2835264782043 6490.294691893798
945.2024989897309 6411.147958929032
946.1212426773054 6472.287090116536
947.0397576082851 6429.372951096833
947.9580438500125 6444.626098237212
948.8761014697939 6459.168349665887
949.7939305349064 6424.122630428351
950.7115311125999 6396.44316494415
951.6289032700952 6396.711429535405
952.5460470745875 6537.832302245204
953.4629625932339 6415.475880720653
954.3796498931715 6445.92856207654
955.2961090415029 6428.316296346124
956.2123401053068 6468.467415038367
957.1283431516276 6415.497783641101
958.0441182474842 6289.152333328981
958.9596654598663 6394.919750084254
959.8749848557309 6414.134792449643
960.7900765020167 6325.996624289599
961.7049404656209 6407.557917804354
962.6195768134185 6351.095074756247
963.5339856122537 6361.810073783479
964.4481669289453 6421.470112957736
965.3621208302793 6333.010754346398
966.2758473830145 6385.680811027829
967.1893466538822 6510.915056674436
968.1026187095813 6347.541822461744
969.0156636167867 6427.692058338168
969.9284814421426 6395.334644872605
970.8410722522622 6410.537055630993
971.753436113735 6358.734386388424
972.6655730931161 6361.6456207544425
973.5774832569368 6369.458013856111
974.4891666716958 6318.661580418231
975.4006234038698 6362.236623825168
976.3118535198955 6353.119709456629
977.2228570861935 6348.249082462624
978.1336341691494 6380.883670707022
979.0441848351202 6300.02848974538
979.9545091504333 6400.076764058833
980.864607181391 6533.322864349657
981.7744789942699 6458.809515464258
982.6841246553086 6491.463049867415
983.5935442307236 6441.155544286499
984.5027377867027 6531.646583405682
985.4117053894024 6549.003725880424
986.3204471049557 6441.581056523277
987.2289629994648 6536.633841268052
988.1372531390007 6645.723413864905
989.0453175896091 6423.875456046499
989.9531564173067 6524.512251194599
990.860769688079 6478.901469491407
991.7681574678918 6626.576927271441
992.6753198226706 6664.349209017052
993.582256818323 6626.316728375254
994.4889685207218 6642.673124235269
995.3954549957143 6750.5419548132295
996.301716309119 6701.160246696447
997.2077525267232 6725.076888535968
998.1135637142943 6689.737785881812
999.0191499375615 6825.726668085245
999.924511262232 6821.462264313176
1000.8296477539861 6822.245551689171
1001.7345594784656 6746.483563214415
1002.6392465012996 6784.3993714555545
1003.5437088880753 6886.114998748468
1004.4479467043584 6785.270036603867
1005.3519600156869 6616.072672417971
1006.2557488875718 6680.451303625419
1007.1593133854858 6668.7765304568875
1008.0626535748888 6667.052460929108
1008.9657695212009 6644.597300877283
1009.8686612898182 6798.152751682572
1010.7713289461135 6707.350428874405
1011.6737725554212 6720.961612135305
1012.5759921830577 6673.315876280756
1013.4779878943027 6672.56195789951
1014.379759754418 6628.874561960642
1015.2813078286254 6583.656136230999
1016.18263218213 6433.131961432322
1017.0837328801026 6490.028905890655
1017.9846099876886 6616.739542172012
1018.8852635700023 6515.319578457389
1019.7856936921362 6426.493119333352
1020.6859004191447 6477.599155591035
1021.5858838160675 6380.346230501191
1022.4856439479063 6378.289279112856
1023.3851808796389 6376.094522999518
1024.2844946762143 6440.69928633487
1025.183585402554 6309.689551431373
1026.082453123554 6293.5087010758225
1026.9810979040776 6315.0243622759735
1027.8795198089647 6294.831661747304
1028.777718903024 6312.863216421456
1029.6756952510368 6204.1312526195225
1030.5734489177648 6155.173203311715
1031.4709799679313 6295.54272688346
1032.3682884662358 6261.447420220751
1033.2653744773506 6236.6118663591
1034.1622380659192 6221.510680970723
1035.058879296559 6327.047395083443
1035.9552982338591 6244.575228160442
1036.8514949423825 6169.980705506061
1037.7474694866614 6239.7547406309695
1038.6432219312028 6254.610194757538
1039.5387523404825 6358.614552253187
1040.4340607789582 6292.572487701483
1041.3291473110476 6388.521369774737
1042.2240120011465 6480.362817837598
1043.1186549136273 6456.727392521198
1044.0130761128294 6326.879145721268
1044.9072756630649 6411.1326973853475
1045.8012536286205 6547.194082843058
1046.6950100737577 6443.608551154613
1047.588545062701 6598.2610345431995
1048.481858659663 6468.647998451677
1049.3749509288118 6641.286224127999
1050.2678219343034 6540.579720958072
1051.1604717402515 6574.443460650659
1052.0529004107575 6547.294248747342
1052.9451080098825 6516.127688084338
1053.8370946016694 6574.256879547388
1054.7288602501267 6591.991595504321
1055.6204050192446 6480.320421844697
1056.511728972977 6641.199883159422
1057.402832175254 6453.7564664974025
1058.2937146899785 6501.278876599394
1059.1843765810263 6466.750694474861
1060.0748179122456 6617.555598136319
1060.9650387474576 6547.808792348571
1061.855039150456 6581.0379461479915
1062.7448191850071 6527.227582952367
1063.6343789148505 6441.948673879019
1064.5237184037014 6566.936752984441
1065.412837715241 6418.464007380373
1066.3017369131267 6401.9443008053095
1067.190416060992 6533.777776412817
1068.0788752224398 6346.762280249429
1068.9671144610438 6428.756618401795
1069.8551338403558 6351.346300793832
1070.7429334239023 6557.420742307389
1071.6305132751695 6387.986839416927
1072.517873457633 6268.46082507364
1073.4050140347335 6305.60207472388
1074.2919350698776 6336.12361064393
1075.1786366264623 6264.785823342346
1076.0651187678395 6256.550854382798
1076.95138155735 6165.649689233133
1077.8374250582929 6095.806219678145
1078.7232493339507 6156.046787705835
1079.608854447577 6153.065607336566
1080.4942404623907 6062.606579801957
1081.3794074415982 6205.495783734932
1082.2643554483657 6102.939944385044
1083.149084545841 6085.570110633377
1084.033594797138 6011.238431178508
1084.9178862653516 6056.935172282914
1085.8019590135427 5991.513006342264
1086.6858131047484 5943.1743138506845
1087.5694486019802 6041.294001656941
1088.4528655682225 6002.133446697901
1089.3360640664287 6011.862936647623
1090.2190441595321 5891.465973073262
1091.1018059104317 6040.887446801706
1091.98434938201 6040.577237859968
1092.866674637111 6011.935146387409
1093.748781738559 5998.680788833719
1094.6306707491512 5842.497226961876
1095.5123417316554 6010.604438875377
1096.3937947488157 5909.267061881805
1097.2750298633455 5916.4476173876665
1098.156047137938 5837.852131725536
1099.0368466352556 6014.50414995041
1099.9174284179317 5952.481892617108
1100.7977925485757 5824.711243818091
1101.6779390897755 5815.559776645585
1102.5578681040806 5938.071529843298
1103.4375796540226 5932.192695141645
1104.3170738021054 5854.05106930416
1105.1963506108077 5863.842838198448
1106.0754101425773 5885.964593412194
1106.9542524598382 5890.078094550772
1107.8328776249855 5968.638535385913
1108.7112857003904 5927.090318420361
1109.5894767483987 5927.600866615871
1110.4674508313292 6014.124191684672
1111.3452080114657 6013.650055958228
1112.2227483510815 6041.107655529925
1113.1000719124077 6151.060417348642
1113.9771787576592 6181.137284322524
1114.854068949022 6191.263188321835
1115.7307425486542 6220.154394243456
1116.6071996186893 6299.445387313472
1117.483440221229 6595.20784319937
1118.3594644183577 6497.292478233461
1119.235272272128 6467.051765157967
1120.1108638445658 6710.841701189223
1120.9862391976712 6772.596547487961
1121.8613983934229 6860.242089032237
1122.7363414937627 6773.081263336852
1123.6110685606182 6960.70842632142
1124.485579655884 7013.741095526262
1125.359874841426 7006.7094838207395
1126.2339541790916 7126.682046673612
1127.1078177306936 7277.411050340112
1127.9814655580267 7229.576416912974
1128.854897722851 7253.402760806212
1129.7281142869106 7298.413923644837
1130.6011153119125 7318.439950569875
1131.473900859548 7427.532553723188
1132.3464709914697 7331.403412330643
1133.2188257693178 7310.744327651422
1134.0909652546961 7246.513115864991
1134.96288950919 7139.963816949615
1135.8345985943506 7183.373497938844
1136.7060925717087 7027.375794223424
1137.57737150277 7089.979711871984
1138.4484354490069 6918.7628001015255
1139.3192844718778 6891.897791719866
1140.1899186327992 6851.965782616826
1141.060337993178 6807.1479883976235
1141.930542614382 6750.983213783649
1142.8005325577597 6650.200986605923
1143.670307884635 6406.342049045073
1144.5398686563003 6596.0341359765835
1145.409214934025 6409.898936081004
1146.2783467790541 6254.209828751098
1147.1472642526023 6296.409159925595
1148.0159674158622 6324.880657074449
1148.8844563300026 6163.423140732435
1149.7527310561618 6107.399193108322
1150.6207916554504 6056.381522989328
1151.4886381889592 6056.112163213568
1152.3562707177498 6077.046847479799
1153.2236893028585 5932.676616649084
1154.090894005296 5896.424181440917
1154.9578848860474 5928.6758137506895
1155.8246620060709 5917.471543571126
1156.6912254262988 5822.035717563189
1157.5575752076438 5784.329774335809
1158.42371141098 5969.207457138345
1159.2896340971656 5819.408431580092
1160.1553433270346 5826.0305226969285
1161.0208391613887 5813.34087415343
1161.8861216610057 5775.400670515499
1162.75119088664 5781.312884863926
1163.6160468990201 5702.560462609596
1164.4806897588442 5631.240466680068
1165.3451195267917 5784.767946401094
1166.2093362635114 5719.747599917166
1167.0733400296285 5660.190152760902
1167.9371308857444 5589.249989289523
1168.8007088924278 5610.8062396321375
1169.6640741102328 5694.928391810618
1170.5272265996773 5639.415417668205
1171.390166421259 5488.350472051196
1172.252893635452 5685.759764621992
1173.1154083026995 5725.5942469055035
1173.977710483421 5712.579324655587
1174.8398002380145 5571.501133089042
1175.7016776268483 5652.917615961876
1176.563342710264 5672.44912475083
1177.4247955485826 5592.926497453468
1178.2860362020947 5691.198619032104
1179.147064731069 5631.4024122966875
1180.0078811957483 5668.65308803769
1180.8684856563486 5633.018137108869
1181.7288781730604 5776.588173440863
1182.589058806052 5868.819814900655
1183.4490276154593 5871.708050404389
1184.3087846614017 5878.140035168492
1185.1683300039676 5761.78259943421
1186.027663703222 5998.795636230859
1186.8867858192025 5830.598209196005
1187.7456964119228 6004.259937854
1188.6043955413716 5990.593457406573
1189.4628832675116 6106.883555188073
1190.3211596502842 6120.1477875575
1191.179224749596 6077.253622870698
1192.0370786253388 6112.79109658992
1192.8947213373758 6330.463705678584
1193.7521529455407 6360.902777173826
1194.6093735096438 6229.922367278452
1195.466383089477 6253.340611315905
1196.3231817447977 6240.905428372045
1197.1797695353398 6319.627370787152
1198.0361465208189 6300.51507598899
1198.8923127609214 6208.41712736596
1199.7482683153048 6340.382283170531
1200.6040132436028 6283.696174209256
1201.459547605431 6307.269551063048
1202.3148714603722 6226.807781874977
1203.1699848679855 6338.466988726241
1204.0248878878065 6302.680013400235
1204.8795805793507 6280.085808607322
1205.7340630020935 6259.334930419565
1206.5883352155033 6345.91786041449
1207.4423972790064 6229.763367737951
1208.2962492520237 6140.21346081188
1209.1498911939307 6202.028461151516
1210.0033231640937 6235.4367735043215
1210.8565452218427 6070.684187031879
1211.7095574264913 6062.587215955129
1212.5623598373222 6037.10322680268
1213.4149525135963 5917.077134161649
1214.2673355145507 5962.425745563447
1215.1195088993936 5932.384412053168
1215.9714727273113 5877.011732216942
1216.8232270574663 5893.718253112359
1217.6747719489904 5824.942345330407
1218.5261074609934 5792.842660788253
1219.3772336525653 5830.364395904833
1220.2281505827668 5881.365569569197
1221.0788583106296 5906.1672048641
1221.9293568951707 5737.7509943494215
1222.7796463953746 5686.769745333092
1223.629726870202 5710.094623382249
1224.4795983785934 5814.6509224599
1225.3292609794553 5689.341207152106
1226.1787147316809 5604.930808376902
1227.0279596941327 5687.954940048343
1227.8769959256424 5674.125705903449
1228.7258234850306 5788.36531478777
1229.5744424310833 5553.745317992699
1230.422852822563 5581.925741139116
1231.2710547182105 5779.73270581285
1232.119048176739 5566.743361052197
1232.9668332568417 5561.908647511561
1233.8144100171812 5665.718478097796
1234.6617785163999 5731.821514761816
1235.508938813111 5575.446616950598
1236.3558909659114 5579.216218201115
1237.2026350333617 5705.345819502437
1238.049171074008 5692.876665201759
1238.8954991463652 5621.808342575254
1239.741619308932 5518.864446184996
1240.587531620169 5791.76474853272
1241.4332361385277 5604.044782423947
1242.2787329224248 5692.01741536605
1243.1240220302534 5547.511816081133
1243.9691035203869 5612.962669236497
1244.813977451171 5749.852387660772
1245.6586438809263 5638.700300952432
1246.5031028679496 5477.43649853287
1247.3473544705157 5646.907594291759
1248.1913987468706 5630.354600915403
1249.0352357552383 5525.528842695449
1249.8788655538228 5574.9289234078515
1250.7222882007918 5598.012114240713
1251.565503754302 5588.473733514132
1252.4085122724755 5622.08981426613
1253.2513138134182 5647.705469426446
1254.0939084352049 5614.793018660488
1254.9362961958905 5560.050293773738
1255.7784771535007 5559.110077429958
1256.6204513660432 5619.907824044101
1257.4622188915 5672.4716880967435
1258.3037797878242 5638.129814898768
1259.1451341129468 5587.62649354953
1259.9862819247755 5589.747399208026
1260.8272232811978 5656.072402084623
1261.6679582400666 5713.222929999434
1262.5084868592203 5553.135024354834
1263.34880919647 5519.266945528042
1264.1889253095997 5644.278260250284
1265.0288352563712 5643.82245859322
1265.8685390945266 5646.137155571755
1266.7080368817751 5645.441536389347
1267.5473286758115 5646.004933943475
1268.386414534294 5593.495581639932
1269.2252945148703 5501.669681023156
1270.0639686751547 5522.566224795328
1270.9024370727402 5554.69093189914
1271.7406997651997 5414.523258984967
1272.5787568100714 5400.859872309522
1273.4166082648808 5406.422721619031
1274.2542541871244 5542.804785873706
1275.091694634275 5568.972781024645
1275.9289296637817 5383.592762854858
1276.7659593330663 5318.1394307311075
1277.6027836995308 5427.206056247554
1278.4394028205552 5461.197308998415
1279.2758167534867 5292.567307474243
1280.112025555658 5478.392372520486
1280.9480292843746 5392.720117872467
1281.7838279969128 5373.870999169213
1282.6194217505326 5316.568537241154
1283.4548106024686 5280.572632282407
1284.289994609926 5319.550380490063
1285.1249738300921 5432.280728289281
1285.959748320127 5344.251829163827
1286.7943181371702 5313.78581274281
1287.6286833383328 5406.55356782666
1288.4628439807038 5433.9538991929385
1289.2968001213521 5303.153406583587
1290.1305518173194 5369.187199802866
1290.9640991256183 5424.960592699963
1291.7974421032523 5283.230944474606
1292.630580807183 5318.699716129494
1293.463515294361 5374.844323613531
1294.29624562171 5433.515280817187
1295.12877184613 5343.8356778468715
1295.961094024493 5418.853955118291
1296.79321221365 5434.70600507814
1297.6251264704333 5489.657174414963
1298.4568368516466 5713.495494206063
1299.2883434140658 5540.905841915062
1300.1196462144526 5393.800678874324
1300.9507453095375 5475.298525981736
1301.7816407560313 5520.719815208352
1302.6123326106172 5515.032592038924
1303.4428209299622 5408.2960105179545
1304.2731057707024 5634.200080842977
1305.1031871894502 5514.363029784456
1305.933065242798 5616.893239120934
1306.7627399873181 5535.640186861609
1307.5922114795467 5773.228182090406
1308.4214797760123 5720.284911044404
1309.2505449332057 5616.492978895147
1310.0794070076026 5654.7903763763
1310.9080660556538 5743.67836925202
1311.736522133786 5691.916606066485
1312.5647752983987 5653.999541973951
1313.3928256058734 5556.0572823066805
1314.2206731125661 5733.235032827825
1315.048317874809 5714.689907613998
1315.8757599489109 5621.032128200575
1316.7029993911547 5635.7059484520505
1317.5300362578055 5707.994135203897
1318.356870605101 5512.204637925018
1319.183502489257 5593.2595354345485
1320.0099319664623 5671.512874216328
1320.836159092889 5681.693756764636
1321.66218392468 5643.909905293822
1322.4880065179532 5636.171720587432
1323.3136269288134 5603.695236628269
1324.1390452133292 5714.086005856668
1324.9642614275563 5668.091365201129
1325.7892756275214 5691.758056816612
1326.6140878692295 5586.97185423775
1327.4386982086617 5796.548074818735
1328.2631067017755 5692.31160331849
1329.0873134045069 5620.329781392142
1329.911318372764 5568.8926535646215
1330.735121662441 5663.945429973296
1331.558723329399 5609.359064239676
1332.3821234294774 5605.207361017068
1333.2053220185007 5560.933540069998
1334.0283191522612 5570.405860730151
1334.851114886529 5639.959191599631
1335.6737092770582 5612.089984283766
1336.4961023795695 5615.13625980399
1337.3182942497697 5560.7550311334435
1338.1402849433325 5692.227121259594
1338.962074515921 5519.185265445171
1339.7836630231632 5456.818446517318
1340.6050505206676 5715.258217639372
1341.426237064028 5668.582160091238
1342.2472227088037 5404.899458308439
1343.0680075105338 5464.943564385037
1343.888591524741 5468.67553022926
1344.7089748069138 5613.747366624608
1345.5291574125276 5443.470635560274
1346.3491393970307 5346.034364539029
1347.168920815846 5585.235198673113
1347.9885017243778 5431.601220974498
1348.8078821780036 5422.682535464666
1349.6270622320844 5444.357203075638
1350.4460419419447 5508.1570690128965
1351.2648213629054 5602.726778357155
1352.0834005502438 5358.083760886373
1352.90177955923 5381.257629677891
1353.7199584451064 5590.908677856758
1354.5379372630887 5459.869322771688
1355.355716068374 5339.769885626838
1356.1732949161305 5322.739986180296
1356.9906738615155 5392.271303616568
1357.8078529596478 5421.225565491805
1358.6248322656375 5432.050815073117
1359.441611834567 5284.445033131655
1360.2581917214866 5455.756862890707
1361.0745719814367 5262.261020028203
1361.890752669433 5261.683543158847
1362.7067338404577 5204.604332597275
1363.5225155494845 5359.443766510142
1364.3380978514506 5479.5439021322345
1365.1534808012839 5256.5615532407355
1365.9686644538815 5217.719015216974
1366.783648864117 5452.4847762973095
1367.5984340868417 5457.9758064614225
1368.413020176893 5366.231921695266
1369.2274071890715 5359.615253977589
1370.0415951781652 5351.178933718129
1370.8555841989346 5119.231965284
1371.6693743061223 5213.367487369875
1372.48296555444 5222.814098750767
1373.2963579985844 5367.418957144546
1374.1095516932255 5252.654684775482
1374.9225466930166 5229.98201327473
1375.7353430525782 5284.67333095356
1376.5479408265164 5210.8551525059565
1377.36034006941 5311.095034479883
1378.1725408358216 5361.801305405338
1378.9845431802805 5039.923662090328
1379.796347157304 5399.772407286913
1380.6079528213813 5375.695320797497
1381.4193602269788 5194.104248954891
1382.230569428546 5188.607060612805
1383.0415804805016 5425.490688420221
1383.852393437246 5262.344687498976
1384.6630083531563 5296.05285249959
1385.4734252825892 5166.447125971113
1386.2836442798798 5288.194362379898
1387.0936653993322 5226.054518881582
1387.9034886952395 5117.472668887843
1388.713114221864 5327.375914629914
1389.5225420334482 5290.1606180007275
1390.331772184214 5139.1001069867925
1391.1408047283585 5135.5484377542
1391.9496397200564 5047.218997247468
1392.758277213461 5243.662030810698
1393.5667172627054 5249.07642214998
1394.3749599218918 5060.513163352014
1395.1830052451114 4951.668589901607
1395.9908532864265 5070.207661068235
1396.7985040998774 5190.400957478306
1397.6059577394808 4964.537539316653
1398.4132142592352 5104.829108000676
1399.2202737131156 4925.463796656286
1400.027136155073 5009.327493761164
1400.8338016390353 5032.926569380353
1401.6402702189134 4993.039571897758
1402.446541948586 5087.610060687633
1403.2526168819204 4957.042664046596
1404.058495072757 4986.483760780366
1404.8641765749107 4895.036093013349
1405.6696614421799 4972.356032311822
1406.4749497283356 5072.722035104018
1407.280041487129 4879.167508533089
1408.084936772295 4769.714149086825
1408.8896356375335 4941.934911775772
1409.6941381365323 4887.37089375133
1410.498444322955 4707.325921673612
1411.3025542504402 4761.5848596381065
1412.106467972606 4865.428982817532
1412.9101855430508 4898.761967124048
1413.7137070153458 4684.901444512254
1414.5170324430437 4682.4528328531305
1415.320161879672 4719.03501461158
1416.1230953787435 4909.359138293208
1416.925832993742 4628.072245170507
1417.7283747781275 4501.266677156748
1418.5307207853439 4727.3186672598185
1419.3328710688093 4645.557540152526
1420.134825681922 4543.244201902125
1420.9365846780584 4571.720267019566
1421.7381481105713 4738.066766509584
1422.539516032788 4637.9418350611395
1423.3406884980232 4483.916048526978
1424.1416655595604 4543.402569269404
1424.942447270665 4604.191744846101
1425.7430336845828 4585.887741666102
1426.5434248545298 4452.433730821032
1427.3436208337116 4627.690151199282
1428.143621675301 4702.51881980488
1428.9434274324558 4654.789825147474
1429.7430381583108 4504.90759892438
1430.5424539059713 4530.992226576366
1431.3416747285337 4708.903347384629
1432.1407006790632 4657.167026093767
1432.9395318106053 4587.299318015083
1433.7381681761835 4523.436373559127
1434.5366098288014 4762.353285982576
1435.3348568214424 4624.830370597265
1436.1329092070573 4571.132996128253
1436.9307670385879 4525.724090518302
1437.7284303689503 4693.206132425288
1438.5258992510335 4774.86647791142
1439.3231737377118 4604.8116804620595
1440.1202538818306 4549.362030861078
1440.9171397362225 4553.146410587922
1441.7138313536925 4709.13811387053
1442.5103287870243 4437.418558149291
1443.3066320889775 4449.33078128325
1444.1027413122956 4580.050425405136
1444.8986565096966 4435.1955112894575
1445.694377733882 4544.088723029037
1446.4899050375207 4389.87010222189
1447.2852384732687 4287.322545176415
1448.0803780937622 4643.210294108586
1448.8753239516063 4385.650779248998
1449.6700760993954 4323.638347991923
1450.464634589689 4272.329270566375
1451.2589994750397 4515.817223539576
1452.0531708079689 4297.197470589468
1452.8471486409799 4269.1747121412645
1453.6409330265524 4485.870710458659
1454.4345240171442 4437.042855237631
1455.2279216651987 4351.122870529444
1456.0211260231263 4348.42426782615
1456.8141371433194 4370.67143564532
1457.6069550781594 4488.6133763655625
1458.3995798799897 4321.487172570833
1459.1920116011424 4350.875151438005
1459.98425029393 4283.8962913487185
1460.7762960106338 4374.2702176291305
1461.5681488035225 4312.319010452237
1462.3598087248392 4250.174884540951
1463.1512758268036 4339.296557601877
1463.942550161617 4318.322097340806
1464.7336317814625 4195.814527493794
1465.524520738496 4235.386517893396
1466.3152170848552 4275.601771529195
1467.1057208726506 4328.123913364918
1467.8960321539817 4183.576842406298
1468.6861509809169 4044.5492754649254
1469.4760774055085 4159.838134070662
1470.265811479785 4259.795753546007
1471.055353255755 4146.922633051714
1471.844702785409 4303.528227611643
1472.6338601207044 4196.322088216027
1473.4228253135934 4733.475837401491
1474.2115984159936 4168.211874728455
1475.0001794798063 4005.0248859202584
1475.7885685569145 4260.4685457783935
1476.576765699172 4248.800673876411
1477.3647709584238 4261.924990426853
1478.1525843864802 4318.015796013546
1478.9402060351367 4374.602495043322
1479.7276359561693 4334.265950225022
1480.514874201328 4114.2038456129285
1481.3019208223468 4116.927952004306
1482.0887758709323 4111.275311958261
1482.8754393987747 4307.733045353175
1483.6619114575406 4102.265515377307
1484.4481920988783 4258.226679878665
1485.2342813744108 4398.497197658725
1486.0201793357446 4349.494269502572
1486.8058860344572 4198.613661635083
1487.591401522117 4150.271050071272
1488.3767258502594 4218.874798045673
1489.1618590704056 4225.849626238974
1489.9468012340494 4135.99112548452
1490.7315523926754 4232.121590747362
1491.5161125977356 4302.138936706311
1492.3004819006637 4175.650689730136
1493.084660352877 4153.780798883695
1493.8686480057622 4233.766314260672
1494.6524449106964 4288.141453965165
1495.4360511190262 4345.530297243308
1496.219466682087 4179.621712791005
1497.0026916511779 4226.249097079834
1497.7857260775945 4202.970523462982
1498.5685700125996 4229.9086775174155
1499.3512235074395 4143.756135076337
1500.133686613337 4121.02367913184
1500.9159593814966 4066.578788874416
1501.698041863101 4364.210864494657
1502.4799341093094 4085.7309943444902
1503.2616361712662 4084.519072702852
1504.043148100087 4215.195819601467
1504.8244699468742 4199.560382353318
1505.6056017626997 4226.913375385067
1506.3865435986281 4001.425630286477
1507.1672955056893 4215.471760501539
1507.9478575348967 4012.1352979000376
1508.7282297372512 4223.1050516079495
1509.5084121637192 4083.3660590918034
1510.2884048652577 4159.978916065914
1511.0682078927948 4132.050319092413
1511.8478212972423 4041.135285512987
1512.6272451294917 3936.8735255499805
1513.4064794404076 4130.335500830245
1514.1855242808433 4145.573038767856
1514.9643797016215 4171.543012855015
1515.743045753552 4082.524338032693
1516.5215224874191 4180.925403786121
1517.2998099539836 3944.7987017706246
1518.077908203999 4104.00392286805
1518.8558172881785 4093.6724793679105
1519.633537257234 4158.627206620155
1520.4110681618404 4156.779869828651
1521.1884100526604 4208.849007739936
1521.9655629803365 4045.3147069295146
1522.7425269954856 4190.440618254956
1523.5193021487103 4271.462873682083
1524.2958884905856 4096.4390803449705
1525.0722860716687 4155.275947206787
1525.848494942502 4172.407817948975
1526.624515153595 4131.1580391224
1527.4003467554485 4143.263813086073
1528.175989798534 4257.424955101399
1528.9514443333064 4135.439821826542
1529.726710410203 4327.239062036975
1530.5017880796331 4161.921073820377
1531.276677391992 4102.957711058781
1532.0513783976457 4301.081821857056
1532.825891146953 4230.21506445267
1533.6002156902414 4274.053233276734
1534.3743520778207 4254.248980390149
1535.1483003599806 4140.456291689167
1535.9220605869923 4183.785036415631
1536.6956328091019 4247.161895315274
1537.4690170765407 4268.747310244565
1538.242213439511 4264.5798112417015
1539.015221948208 4372.911326499127
1539.78804265279 4186.54228129861
1540.560675603405 4117.329171781899
1541.3331208501804 4349.551454812477
1542.1053784432224 4441.828109971373
1542.8774484326168 4305.376208029709
1543.649330868422 4227.787269484485
1544.4210258006842 4329.061634920823
1545.1925332794308 4237.707257130596
1545.9638533546604 4188.941165270682
1546.7349860763552 4179.164153513675
1547.5059314944829 4476.896598518189
1548.27668965898 4300.08939701571
1549.0472606197673 4417.6977193702205
1549.817644426752 4219.939057677252
1550.5878411298072 4396.082122276559
1551.3578507787988 4388.883513386162
1552.1276734235635 4277.169150263944
1552.8973091139233 4315.13307977711
1553.6667578996767 4417.478331522976
1554.436019830604 4469.517762994649
1555.20509495646 4442.608675075509
1555.9739833269869 4265.011620174077
1556.7426849919011 4269.678171122868
1557.511200000903 4511.4276426691
1558.2795284036674 4463.081902300399
1559.0476702498509 4437.947497892946
1559.8156255890954 4599.875489480467
1560.5833944710157 4604.130021781415
1561.3509769452048 4416.252102213044
1562.1183730612447 4436.328496337392
1562.8855828686865 4468.286538744853
1563.6526064170703 4592.991320585589
1564.4194437559127 4528.895243313528
1565.1860949347047 4367.8057019255975
1565.9525600029283 4567.3311602929225
1566.7188390100328 4597.05497951231
1567.4849320054564 4450.578400009539
1568.250839038612 4389.403367234836
1569.0165601588997 4451.611688983745
1569.7820954156887 4477.696554671245
1570.5474448583373 4327.574332608068
1571.31260853618 4306.9200079117745
1572.0775864985299 4349.231280593734
1572.8423787946813 4489.512204191059
1573.6069854739108 4319.061267570074
1574.371406585471 4408.508769089933
1575.1356421785986 4390.123773437856
1575.899692302506 4314.6826464354845
1576.6635570063845 4326.863190564507
1577.4272363394157 4293.473840581633
1578.190730350747 4500.853008967026
1578.9540390895163 4241.943448130647
1579.7171626048384 4142.159071874642
1580.480100945806 4182.4060022753
1581.2428541614918 4342.19227471129
1582.0054223009538 4287.08464965655
1582.767805413223 4362.563916034111
1583.5300035473156 4335.738822959856
1584.292016752228 4413.780727583877
1585.0538450769309 4315.035608626136
1585.8154885703807 4208.88823337354
1586.5769472815136 4205.4562405510715
1587.3382212592405 4327.282216327782
1588.099310552463 4380.489937222346
1588.8602152100484 4007.276699194419
1589.6209352808564 4378.941696474405
1590.3814708137234 4409.432664727044
1591.14182185746 3888.269787026487
1591.9019884608679 4372.444797968796
1592.6619706727215 4109.922539289853
1593.4217685417734 4353.6594871454545
1594.1813821167616 4465.805142842323
1594.9408114464022 4210.627460570713
1595.7000565793933 4348.505843354203
1596.459117564409 4332.019186518782
1597.2179944501113 4159.594760393643
1597.9766872851324 4329.627994004866
1598.735196118092 4269.12583751161
1599.4935209975883 4377.6413904607925
1600.2516619721973 4415.657490659527
1601.0096190904787 4323.9193837387775
1601.7673924009723 4263.986620291571
1602.524981952196 4270.377992653048
1603.2823877926476 4180.869417791419
1604.0396099708087 4296.665686290651
1604.7966485351371 4213.236075527341
1605.5535035340745 4211.462713678164
1606.3101750160404 4424.95166398683
1607.0666630294363 4269.525466688467
1607.822967622642 4123.147223269831
1608.5790888440224 4211.667667728264
1609.3350267419137 4275.361830242717
1610.0907813646445 4164.308339117944
1610.8463527605145 4218.838495955196
1611.601740977805 4413.09838359065
1612.356946064785 4180.846502123264
1613.1119680696902 4091.088392279983
1613.8668070407512 4044.859048550079
1614.6214630261748 4128.015976510771
1615.375936074137 4089.896603106453
1616.1302262328118 4160.3463687039175
1616.8843335503425 4071.0526885502018
1617.638258074854 4072.1562971883272
1618.391999854457 4178.543715044322
1619.1455589372363 4187.677334689151
1619.8989353712623 4149.3419692593325
1620.65212920458 4011.2750994336884
1621.4051404852235 4044.351599220872
1622.1579692611976 4047.7842703801375
1622.9106155804966 3996.5707277898923
1623.663079491087 3976.692630459592
1624.4153610409248 4086.527515012721
1625.1674602779385 3986.169826305476
1625.9193772500403 3919.2179679104747
1626.6711120051277 4193.4287172911045
1627.4226645910676 4040.3421918475497
1628.174035055721 3944.124057527373
1628.9252234469168 4000.609754770033
1629.676229812474 3881.2691205385686
1630.4270542001905 4381.367554555028
1631.1776966578382 3963.4803332278047
1631.9281572331747 3993.082356428595
1632.678435973945 4063.78106234527
1633.4285329278573 4008.8995451790624
1634.1784481426203 3851.910707730044
1634.9281816659113 4089.206572392224
1635.677733545388 4171.351370979198
1636.4271038286934 3933.567324518031
1637.176292563452 3985.0665068837197
1637.9252997972635 4081.2625055009967
1638.674125577716 4198.393945821463
1639.4227699523672 4303.709008036483
1640.171232968767 3887.170395209483
1640.9195146744423 4114.127811345627
1641.6676151168977 4123.078545178631
1642.4155343436178 4122.195599616303
1643.1632724020765 4074.157831443641
1643.9108293397167 4145.4075186834325
1644.658205203974 4078.4841536700796
1645.4054000422566 4359.876188755275
1646.1524139019566 4121.149707738529
1646.8992468304423 4047.5773014175275
1647.6458988750728 3956.6244020865606
1648.3923700831765 4204.034183981732
1649.1386605020743 4065.0321897591484
1649.8847701790564 4221.356729180306
1650.6306991614038 4176.29981964155
1651.3764474963682 4198.702102655323
1652.1220152311944 3960.331985760238
1652.867402413096 4200.8807875308175
1653.6126090892776 4072.86763180102
1654.3576353069184 4258.678745404564
1655.1024811131829 4124.4401343537465
1655.8471465552066 4124.403087292602
1656.5916316801213 4208.869067458423
1657.3359365350298 4115.929566009339
1658.0800611670165 4113.855122429056
1658.824005623148 4065.219510020944
1659.5677699504722 3979.5604035752294
1660.3113541960192 4167.205128418342
1661.054758406799 4033.157582854258
1661.7979826297997 4047.6781681192524
1662.5410269119966 3978.332537593074
1663.283891300338 4169.3549513614535
1664.0265758417645 3880.1302441771318
1664.7690805831826 3924.8188034744016
1665.5114055714948 4056.346540630659
1666.2535508535748 4136.189634231303
1666.9955164762814 3768.805012897859
1667.7373024864555 3845.781708525552
1668.478908930916 3916.1830388221
1669.220335856462 3651.9136133771885
1669.9615833098778 3738.158461072531
1670.7026513379296 3650.9206474932353
1671.44353998736 3764.965697228546
1672.1842493048916 3766.8126312045815
1672.9247793372379 3654.9089413544775
1673.6651301310812 3722.875295551397
1674.4053017330934 3572.1543904375694
1675.1452941899242 3665.7612839217827
1675.885107548207 3392.033250183432
1676.6247418545518 3538.031877902159
1677.3641971555535 3608.237005360478
1678.1034734977893 3625.972585276943
1678.8425709278108 3463.9612199700523
1679.5814894921605 3578.0840734878366
1680.320229237359 3404.501897735788
1681.0587902098978 3638.5146521930137
1681.7971724562685 3420.5168401661017
1682.5353760229264 3439.934033989358
1683.2734009563173 3443.4964602217697
1684.0112473028657 3258.0597203389266
1684.7489151089794 3456.486618618333
1685.4864044210462 3365.6049581359393
1686.2237152854377 3349.2090832094705
1686.960847748498 3373.4766112022953
1687.6978018565642 3280.675624874516
1688.434577655944 3227.0071165819586
1689.1711751929379 3324.945190837533
1689.9075945138156 3322.9354973323584
1690.6438356648396 3197.3797535433728
1691.3798986922448 2992.966783547322
1692.1157836422499 3114.8891484542137
1692.851490561059 3108.5887498187208
1693.587019494853 3120.985712083688
1694.3223704897991 3019.3732792290093
1695.0575435920364 2961.2297239323952
1695.792538847696 3168.675263430385
1696.527356302886 2936.4256260507573
1697.2619960036936 2993.3663190503385
1697.9964579961907 3007.2559229763856
1698.730742326432 2701.491223659799
1699.4648490404488 2773.202944952368
1700.1987781842563 2877.2781018744586
1700.9325298038548 3035.0334782868895
1701.6661039452174 3011.1721387333137
1702.3995006543082 3026.269498662552
1703.1327199770658 2850.6008742329727
1703.865761959416 2920.246175582772
1704.598626647261 3048.2368824620467
1705.3313140864866 2775.5005053634413
1706.0638243229587 2904.5836784753646
1706.7961574025303 3068.593849387025
1707.528313371029 2796.772371443883
1708.260292274268 2700.139449539669
1708.9920941580403 2765.773073307893
1709.7237190681226 2822.4255245907007
1710.4551670502697 2873.037785788351
1711.18643815022 2585.9164206329983
1711.9175324136959 2957.064610667653
1712.6484498863938 2754.9266815027463
1713.379190614005 2672.1172260340672
1714.109754642188 2839.543660001989
1714.8401420165883 2704.345296614907
1715.570352782839 2712.6087601154168
1716.3003869865497 2776.068078009157
1717.0302446733076 2669.85982612954
1717.7599258886876 2623.068278050204
1718.4894306782444 2847.759153241145
1719.2187590875183 2655.291352990511
1719.9479111620203 2763.69570803509
1720.6768869472544 2649.3332089813052
1721.4056864887025 2787.1313220532857
1722.1343098318284 2820.2692767522944
1722.8627570220742 2711.71354611566
1723.591028104871 2562.402401166173
1724.3191231256242 2583.3122251218133
1725.0470421297232 2638.695662604786
1725.7747851625427 2704.505120659805
1726.5023522694337 2700.160364833319
1727.2297434957363 2709.177035283954
1727.9569588867635 2442.9691843071314
1728.6839984878152 2674.9340264410043
1729.4108623441734 2461.3573435759477
1730.1375505011038 2714.339092395212
1730.8640630038426 2581.1904316287164
1731.5903998976264 2420.9619534985927
1732.316561227657 2596.8566375371124
1733.0425470391274 2562.690507808441
1733.7683573772065 2678.824366607443
1734.4939922870508 2616.7213688264583
1735.2194518137949 2590.902688811267
1735.9447360025606 2659.30613449157
1736.669844898439 2450.1905427882202
1737.3947785465189 2426.6390242099883
1738.1195369918605 2360.0615540505014
1738.8441202795093 2455.9774046072084
1739.5685284544943 2613.0385912875367
1740.292761561821 2633.9167277546894
1741.0168196464838 2653.92932772764
1741.7407027534518 2588.083163514487
1742.464410927687 2506.836177878875
1743.187944214118 2487.708551609884
1743.9113026576688 2409.567514264463
1744.634486303241 2530.4801229148516
1745.3574951957125 2399.5255237052784
1746.0803293799509 2449.3827275039907
1746.8029889008048 2389.2928310467896
1747.5254738031017 2663.097821873837
1748.2477841316504 2366.247148017538
1748.969919931249 2425.0362143702805
1749.6918812466665 2320.7238374191174
1750.4136681226646 2594.0609807293968
1751.1352806039777 2526.954712379208
1751.856718735331 2291.4172937411868
1752.5779825614281 2379.3577909657397
1753.2990721269507 2510.3449927811134
1754.0199874765676 2608.1809339582596
1754.7407286549314 2315.728348004309
1755.4612957066693 2444.5993893121254
1756.1816886763954 2419.6648002668217
1756.9019076087097 2559.3359163218147
1757.6219525481865 2559.693830610733
1758.3418235393856 2378.1570972841187
1759.061520626854 2474.9946389227057
1759.7810438551096 2554.527176109307
1760.5003932686614 2463.9623449817723
1761.2195689119999 2575.6564608192484
1761.938570829594 2279.545291836446
1762.657399065898 2513.956598056043
1763.376053665348 2424.3869137288048
1764.0945346723602 2290.08593664619
1764.812842131334 2526.293736567314
1765.5309760866512 2279.619218963147
1766.2489365826787 2407.7683801371177
1766.9667236637597 2486.576158086926
1767.684337374223 2254.5428745431254
1768.401777758383 2229.2177573841577
1769.1190448605284 2353.4752430049775
1769.836138724937 2271.3262040614745
1770.5530593958665 2534.021296199022
1771.2698069175603 2508.3158769194733
1771.9863813342326 2511.9155014867806
1772.702782690094 2350.6932811574807
1773.4190110293293 2415.981397565789
1774.1350663961111 2568.8808102340095
1774.8509488345844 2385.909680634878
1775.5666583888924 2409.274764716934
1776.2821951031437 2458.1196006964556
1776.9975590214362 2435.81327943622
1777.7127501878585 2523.127603796237
1778.4277686464684 2388.8509298912877
1779.1426144413108 2524.575273081349
1779.8572876164162 2460.166331781022
1780.571788215797 2292.2352185244354
1781.2861162834415 2467.2250910781468
1782.0002718633277 2384.4165416532196
1782.7142549994132 2324.782845751494
1783.4280657356376 2380.199833342711
1784.141704115922 2253.264930076327
1784.855170184177 2351.1990964287534
1785.5684639842839 2399.0403070731654
1786.2815855601148 2266.5498501758
1786.9945349555237 2386.2959077171035
1787.707312214343 2309.5420384968006
1788.4199173803918 2471.075181564139
1789.132350497468 2262.422909870512
1789.8446116093583 2357.235322033312
1790.556700759822 2354.066589443709
1791.2686179926077 1983.1976602698992
1791.9803633514493 2366.6773724204877
1792.6919368800554 2205.4065828894163
1793.4033386221236 2355.6050900247164
1794.1145686213295 2346.698785757033
1794.8256269213307 2598.726297122166
1795.536513565774 2511.360349144058
1796.247228598284 2076.9923761020373
1796.9577720624693 2306.4929966526797
1797.6681440019165 2198.76769430255
1798.3783444602013 2367.0819694390375
1799.0883734808776 2326.537893834492
1799.7982311074884 2428.326917596253
1800.5079173835475 2140.9277505342534
1801.2174323525633 2414.102313869834
1801.9267760580187 2274.6238641167224
1802.635948543386 2337.311714866867
1803.3449498521113 2289.193173806576
1804.0537800276325 2306.333896002622
1804.7624391133668 2210.885061972488
1805.47092715271 2114.512527658114
1806.1792441890484 2242.7306576220367
1806.8873902657433 2361.2242114771934
1807.5953654261448 2272.3992439431363
1808.3031697135812 2284.833712219637
1809.0108031713662 2183.382907655633
1809.71826584279 2204.034970009907
1810.425557771141 2372.8153717647715
1811.1326789996747 2536.683289863755
1811.839629571632 2367.2229732145624
1812.5464095302468 2280.0105560068428
1813.2530189187182 2404.5125073196077
1813.959457780249 2175.1874800527526
1814.6657261580076 2433.2476407871777
1815.371824095153 2254.680496830614
1816.0777516348262 2350.9393279537053
1816.78350882015 2153.0638888058347
1817.4890956942272 1986.860079291213
1818.1945123001533 2213.063271339484
1818.8997586809928 2247.793719795973
1819.6048348798067 2168.620786479328
1820.3097409396287 2210.0373029170923
1821.0144769034796 2334.453168230173
1821.7190428143622 2282.6507766333716
1822.423438715261 2487.5457046206416
1823.1276646491478 2191.9632199970883
1823.8317206589727 2315.23987345036
1824.5356067876692 2337.6717551418183
1825.2393230781581 2244.9232362287066
1825.942869573335 2076.450407520464
1826.646246316086 2131.545900979868
1827.3494533492758 2269.9353463954726
1828.052490715756 2199.825046952382
1828.7553584583547 2209.662140279962
1829.458056619891 2363.484320267344
1830.1605852431585 2253.1364685503127
1830.8629443709433 2031.6368248498916
1831.5651340460063 2239.7666710442295
1832.2671543110919 2252.640799201562
1832.9690052089318 2094.4504185754236
1833.6706867822395 2144.688628783214
1834.3721990737104 2455.3165861564753
1835.0735421260233 2212.2626673592367
1835.774715981841 2310.1225084360426
1836.4757206838058 2408.714912362368
1837.1765562745459 2002.5534930252015
1837.8772227966747 1967.92362521932
1838.5777202927839 2320.42043353304
1839.2780488054523 2151.6925463391326
1839.9782083772352 2100.573519378975
1840.6781990506806 2378.7444135423943
1841.378020868313 2220.2199067870074
1842.0776738726418 2198.335955394762
1842.777158106157 2156.5808293411833
1843.4764736113375 2215.799120867141
1844.1756204306403 2236.0321416028005
1844.8745986065078 2184.2545384393734
1845.5734081813607 2004.2227690055515
1846.2720491976124 2045.1608738421066
1846.970521697649 2093.2905377669185
1847.6688257238511 2211.006985090256
1848.3669613185684 2138.2746918012876
1849.0649285241452 2019.03194098827
1849.7627273829057 2160.545130623565
1850.460357937156 2321.926597517463
1851.1578202291857 1896.9177955658029
1851.8551143012664 2145.9950276512113
1852.5522401956569 2141.4292713557284
1853.2491979545957 2356.014978523972
1853.9459876203055 2038.8669380526203
1854.6426092349902 1971.7087775373766
1855.3390628408451 1957.3384539626034
1856.0353484800362 2189.883489203225
1856.7314661947203 2096.543043349998
1857.4274160270397 2070.5224529037123
1858.123198019115 2034.9791379437534
1858.8188122130487 2076.401774986311
1859.5142586509319 2065.9085469071742
1860.209537374838 2108.2572361202933
1860.9046484268183 2043.0837031951862
1861.599591848917 2291.1703756692395
1862.294367683151 1919.3145329195208
1862.988975971528 2133.709125865875
1863.6834167560355 2203.096691313761
1864.3776900786452 2221.1986000294232
1865.0717959813119 1990.150346997982
1865.7657345059724 2153.7518431858393
1866.4595056945564 2026.2261766464715
1867.1531095889586 2171.8857670758157
1867.846546231076 2202.498839363883
1868.5398156627743 2263.843151320663
1869.2329179259123 2074.079483196051
1869.9258530623283 2175.747933645571
1870.618621113843 2072.3505200211184
1871.3112221222636 1992.4144195956414
1872.0036561293764 2051.9368479257873
1872.695923176956 2176.546320803882
1873.3880233067594 2245.9061385327
1874.0799565605212 2009.9227553607568
1874.7717229799673 2145.374261868995
1875.4633226068036 2239.639925945895
1876.1547554827175 2171.744521187796
1876.8460216493859 2099.334730805056
1877.5371211484617 1958.7537218918792
1878.2280540215852 2141.6618084511515
1878.9188203103804 1953.0383458463136
1879.6094200564548 2127.3205790317998
1880.299853301396 2040.2991060006138
1880.9901200867826 1982.3983443795946
1881.6802204541673 2009.6291474768168
1882.3701544450942 2155.9371854161836
1883.059922101087 2128.1378933579026
1883.7495234636517 2126.0686131303623
1884.4389585742792 2045.6017940819524
1885.1282274744517 2070.1415878173048
1885.8173302056166 2444.223292763747
1886.506266809225 2037.213750318339
1887.195037326701 2001.9925532561708
1887.8836417994517 2171.360605907298
1888.5720802688702 2307.043688045823
1889.260352776333 2162.0217397237598
1889.9484593632042 1982.8036621540346
1890.63640007082 1953.9055909766532
1891.3241749405151 2152.8087588817643
1892.0117840135954 2085.469778680085
1892.6992273313572 1952.4510766186763
1893.3865049350788 2002.6204635707595
1894.0736168660223 2257.998807328335
1894.7605631654333 1993.1796447427466
1895.4473438745408 2041.4893176051476
1896.133959034556 2275.5335997390857
1896.820408686679 1970.149610999139
1897.506692872088 2137.4541835240148
1898.192811631945 2089.896297891818
1898.8787650073991 2121.854616015793
1899.5645530395832 2184.674664872419
1900.2501757696118 2194.2905916100235
1900.9356332385796 2013.8557338893231
1901.620925487574 2137.8962543014836
1902.3060525576602 2037.2919289432896
1902.9910144898859 2231.82288287208
1903.6758113252872 1921.3683208120965
1904.3604431048789 2008.0809350545078
1905.0449098696663 2109.6100862610015
1905.7292116606295 2065.429413500951
1906.4133485187394 1993.7460263202872
1907.0973204849488 1902.6717294539499
1907.7811276001976 1959.616097797693
1908.4647699053967 1947.9048586597462
1909.1482474414588 1930.5878264757466
1909.8315602492694 1875.5096942349144
1910.5147083696957 2075.6253219288647
1911.1976918436012 2015.760149136227
1911.880510711815 2071.6420265136467
1912.5631650151681 1960.8408006953402
1913.2456547944657 2027.683487126657
1913.927980090495 2059.5494088652313
1914.6101409440362 1944.7275305791384
1915.2921373958416 2060.641493923885
1915.9739694866603 2019.6435678972618
1916.655637257214 2203.367292537348
1917.3371407482136 2001.4077792138087
1918.0184800003572 2131.6669358044537
1918.6996550543154 2088.7210753018344
1919.3806659507554 2055.828459459579
1920.0615127303208 2204.7098104289626
1920.7421954336423 2206.921692067722
1921.4227141013343 2117.057362884716
1922.103068773993 1970.3480172188308
1922.783259492202 2182.574617647073
1923.4632862965227 1955.7951128630077
1924.1431492275078 1905.7937843223299
1924.8228483256917 1952.751923498623
1925.5023836315922 2159.3554800930115
1926.1817551857057 1778.3321046003912
1926.8609630285227 2116.989747795231
1927.5400072005123 2008.471882118074
1928.218887742125 1815.6504427606433
1928.8976046938005 1782.752645543078
1929.5761580959588 2049.9553534894294
1930.2545479890086 2018.4290432470057
1930.9327744133352 1976.594285599056
1931.6108374093164 2020.3313078744516
1932.2887370173066 2180.0383185542205
1932.9664732776473 1789.3050601775726
1933.6440462306673 2002.8125960576224
1934.3214559166754 1800.8355547856142
1934.9987023759659 2058.211010773343
1935.675785648813 2076.45596197663
1936.3527057754836 1839.6821315830482
1937.029462796223 2083.6515255679437
1937.70605675126 1794.19291348477
1938.3824876808085 1989.271314599914
1939.058755625072 1827.7184931063646
1939.7348606242267 1963.2832088925934
1940.4108027184448 1974.1368893207589
1941.0865819478713 2188.5517862860183
1941.7621983526478 1776.8227031233594
1942.4376519728921 1820.9889315467324
1943.1129428487038 1869.0590477638318
1943.7880710201734 2020.8630620467309
1944.4630365273733 2162.3693156083004
1945.1378394103576 1833.716622481125
1945.8124797091714 1802.3469868004781
1946.4869574638324 1770.8520378724759
1947.161272714353 1919.171093113975
1947.8354255007234 1924.8039637192433
1948.5094158629272 1936.211881645569
1949.1832438409183 1949.5593894755718
1949.8569094746435 1907.7348305110118
1950.530412804037 2088.7277665157844
1951.2037538690092 2073.1307758934627
1951.8769327094578 2004.0820381715941
1952.5499493652678 1931.9463696433552
1953.222803876306 2010.3405285492681
1953.895496282421 1984.6333812184275
1954.5680266234522 1927.6186727229044
1955.2403949392155 1825.6119760962526
1955.9126012695142 1769.2487183250414
1956.5846456541403 1958.6997700272314
1957.2565281328643 1754.9175910501658
1957.9282487454457 2020.9014067322369
1958.5998075316202 2124.049971733599
1959.27120453112 2066.958739592685
1959.9424397836501 1845.317580020156
1960.613513328908 1995.7885690817816
1961.2844252065697 2128.8301849462314
1961.9551754563017 2010.715616599944
1962.6257641177453 1914.9322735585113
1963.29619123054 1875.9369058667403
1963.966456834296 1685.3083000398183
1964.6365609686181 1734.5397493699784
1965.306503673086 1993.5317133079739
1965.976284987275 1905.9166350659373
1966.645904950734 1824.071741199501
1967.315363603002 1718.4122761249225
1967.9846609836077 1938.1952875867999
1968.6537971320486 2019.867045761759
1969.3227720878222 1900.0750282301
1969.9915858904042 1846.3483948756596
1970.660238579252 2005.0562587244608
1971.3287301938108 1888.2251074949013
1971.997060773514 1665.6544209282333
1972.665230357772 1788.3920617449653
1973.3332389859843 1685.7182788869832
1974.0010866975335 1817.9224879214034
1974.6687735317864 1918.697224987726
1975.3362995280932 1980.9268585596114
1976.003664725793 1920.9590807372413
1976.6708691642052 1637.027509351077
1977.3379128826364 1826.2021693739111
1978.004795920373 1968.7046984609478
1978.6715183166925 2224.866794620819
1979.3380801108524 1838.3789155554102
1980.0044813420973 1969.1399793829387
1980.6707220496555 1761.8388720342514
1981.3368022727373 1766.1260975561295
1982.0027220505417 2005.4718158006253
1982.66848142225 1664.0977900643502
1983.3340804270283 1739.8017887041715
1983.999519104027 1924.989220556329
1984.6647974923835 1962.0609856830397
1985.329915631215 2116.7098997476946
1985.99487355963 1925.723808308808
1986.6596713167146 1978.8418153111077
1987.3243089415428 2014.8477560123315
1987.9887864731754 1959.1202654255783
1988.6531039506553 1730.7294907552052
1989.3172614130071 2024.0607084714604
1989.9812588992481 1996.5122607536912
1990.645096448372 1881.9481087260901
1991.3087740993633 1835.0515877357975
1991.9722918911848 2049.576073272048
1992.635649862792 1863.817393149861
1993.2988480531185 1979.3225422514631
1993.9618865010852 2183.546860837517
1994.6247652455968 1875.478174383424
1995.287484325545 1703.341139229315
1995.9500437798033 1981.6257821628392
1996.6124436472292 1675.6394056364225
1997.2746839666706 1923.9951514826578
1997.936764776954 1855.7143663207285
1998.598686116895 1871.2662654232747
1999.2604480252903 2003.7562189708763
1999.9220505409212 1727.7248117914296
2000.5834937025593 1684.3665344138765
2001.2447775489582 1798.2668778328425
2001.9059021188514 1865.890944145704
2002.5668674509616 1913.8836491774043
2003.2276735839987 1824.5598275124314
2003.8883205566508 1979.7066065758572
2004.5488084075987 1803.3278104843473
2005.2091371755014 1704.2698888307775
2005.8693068990033 1913.492661133252
2006.5293176167397 1881.8972043747792
2007.1891693673224 1769.571948967486
2007.848862189354 1611.5440564046153
2008.5083961214223 1913.4409898298527
2009.1677712020955 1671.2825172395892
2009.8269874699254 1828.4383257063105
2010.4860449634598 2170.605764240571
2011.1449437212177 2116.6267997563928
2011.8036837817108 2062.6137941513202
2012.4622651834325 1947.316361022651
2013.1206879648653 1936.5940286879857
2013.7789521644736 2085.4791113411325
2014.4370578207036 1719.5742004327537
2015.0950049719922 1883.3153260827262
2015.7527936567585 1957.8512509946584
2016.4104239134067 1764.2520412645813
2017.067895780323 2030.1603767122476
2017.725209295886 2108.2150894837696
2018.3823644984514 2186.435856157336
2019.0393614263648 1873.9536245073607
2019.6962001179545 1643.5586860065973
2020.3528806115355 1986.5900386186906
2021.0094029454067 1685.340676961012
2021.6657671578487 1799.7964511975813
2022.321973287133 1761.7005023962847
2022.9780213715148 1743.9235554735594
2023.6339114492293 1964.3196635751533
2024.2896435585026 1811.6450814660143
2024.9452177375442 1854.4224146812564
2025.600634024544 2096.8358695459256
2026.2558924576842 1867.1880987898523
2026.9109930751292 1892.0363882195095
2027.565935915025 1768.5309030603153
2028.2207210155066 1937.6173030649054
2028.8753484146964 1901.7567459741138
2029.529818150695 1727.401449249023
2030.1841302615903 1969.01486968136
2030.8382847854573 1720.7483301518216
2031.4922817603601 1624.7171720961892
2032.1461212243357 1821.7712148635205
2032.7998032154192 1588.128339483039
2033.4533277716218 1857.6176679255564
2034.1066949309443 1639.5982371076752
2034.7599047313688 1781.729898095789
2035.4129572108704 1998.8178383422983
2036.0658524074006 2150.106190405662
2036.7185903589016 1768.1952500653456
2037.3711711032956 1875.5247411626963
2038.023594678496 1741.3941147869004
2038.675861122394 1681.2297308119364
2039.3279704728757 1803.6590349646463
2039.9799227678031 1523.344990040623
2040.6317180450278 1716.0106840688888
2041.2833563423865 1714.8851606322714
2041.9348376977014 1688.1674247725537
2042.5861621487784 1852.7944457319365
2043.2373297334088 1872.7931624522146
2043.8883404893695 1772.1694262316207
2044.5391944544208 1916.879118803709
2045.1898916663158 1862.685141094488
2045.8404321627804 1906.6721739678396
2046.4908159815368 1809.4911519994075
2047.1410431602853 1597.7706827558625
2047.7911137367173 1591.9311221754833
2048.441027748504 1933.6425586476296
2049.090785233302 1655.1791323723526
2049.7403862287592 1721.020677317371
2050.389830772503 1635.8995338177688
2051.0391189021466 1550.7444572321128
2051.688250655294 1784.2614670353316
2052.337226069527 1592.995644583988
2052.986045182417 1872.087825390415
2053.634708031521 1643.7310014778031
2054.283214654375 1570.129159042911
2054.931565088511 1496.464902342906
2055.579759371436 1681.847078386457
2056.2277975406523 1744.26657971819
2056.8756796336384 1988.727891428193
2057.5234056878617 1574.5833324606008
2058.1709757407752 1754.2180616262908
2058.8183898298194 1676.639212212429
2059.465647992416 1825.4089020781532
2060.1127502659747 1952.563512307922
2060.759696687888 1666.074623275863
2061.4064872955405 1968.8531986843013
2062.053122126292 1855.8071070081173
2062.699601217497 1568.239526817227
2063.345924606485 1789.8089668503987
2063.992092330587 1802.8891950496084
2064.638104427102 1707.1128654237484
2065.283960933324 2020.0112825080473
2065.92966188653 1927.7251119692307
2066.5752073239855 1953.5480886117227
2067.2205972829397 1501.9702306981653
2067.86583180062 1758.5164780586176
2068.5109109142522 1627.3333933735169
2069.15583466104 1654.2703392551616
2069.8006030781708 1681.234037810286
2070.445216202821 1860.8887378248478
2071.089674072153 2049.8107924504907
2071.7339767233116 1725.7302942139581
2072.3781241934303 1806.3920482997953
2073.0221165196253 1817.5383205557384
2073.6659537390024 1864.162869510094
2074.3096358886505 1850.3461040236994
2074.953163005637 1646.7859353091965
2075.596535127028 1606.6250880266607
2076.2397522898664 1458.8270624400795
2076.882814531182 1795.4165554572123
2077.5257218879924 1813.764582779441
2078.1684743973 1557.9830484864428
2078.8110720960885 1638.1433283735757
2079.453515021336 1852.7304659845372
2080.095803209997 1934.2236833521426
2080.7379366990135 1734.0669743028611
2081.37991552532 1647.533204184637
2082.0217397258275 1876.226822164984
2082.6634093374414 1743.6205769191172
2083.3049243970418 1834.4494619288366
2083.9462849415067 1624.6269873538838
2084.587491007689 1759.5862521435095
2085.2285426324324 1863.709384283488
2085.869439852564 1834.0719256967736
2086.510182704902 1832.19607216128
2087.1507712262483 1830.323743390025
2087.791205453381 1588.6068418323753
2088.4314854230743 1857.762653117481
2089.0716111720867 1694.5080687269751
2089.7115827371617 1512.4181733258413
2090.351400155023 1539.876550088062
2090.991063462385 1567.461976963048
2091.6305726959527 1665.6449914539523
2092.2699278924047 1938.9684241007872
2092.9091290884153 1707.6314996422116
2093.548176320641 1616.0270080495457
2094.187069625721 1840.0111298756487
2094.8258090402887 1517.7129914366037
2095.464394600951 1812.4091559087678
2096.102826344313 1758.0850634999856
2096.741104306955 1577.9586387059721
2097.379228525453 1397.4345582905303
2098.017199036358 1593.2473006755986
2098.6550158762147 1947.411991815731
2099.2926790815527 1741.8776824793454
2099.9301886888825 1737.8497775017163
2100.5675447347076 1848.4858498191556
2101.2047472555114 2006.692871712808
2101.841796287761 1704.2936956981787
2102.47869186792 1682.3905535087702
2103.1154340324265 1713.8964109502408
2103.752022817709 1703.875805706608
2104.388458260184 1875.9303118453713
2105.024740396251 1861.332462037172
2105.660869262292 1617.7168691275258
2106.296844894685 1964.6669359107073
2106.93266732978 1737.4230500230344
2107.5683366039284 1604.243943277973
2108.2038527534532 1759.5973087102623
2108.8392158146726 2022.1588141893128
2109.4744258238843 1648.6703413572402
2110.1094828173755 1665.21219010594
2110.744386831422 1973.3142504993496
2111.3791379022787 1735.8963849438933
2112.01373606619 1855.3428335245248
2112.648181359389 1664.3118740653404
2113.28247381809 1839.6357289812634
2113.916613478492 1641.924263917151
2114.550600376786 1819.9379722685505
2115.1844345491445 1910.7724114214252
2115.818116031729 1682.9423140357874
2116.451644860679 1688.3586285371853
2117.085021072133 1438.9000752445995
2117.718244702204 1647.704990318698
2118.3513157869984 1694.370113641565
2118.984234362604 1574.7914721821135
2119.617000465092 1749.788622282697
2120.249614130529 1840.5444115378868
2120.8820753949585 1714.5652433638638
2121.5143842944162 1773.6152402755529
2122.14654086492 1523.5749819111882
2122.7785451424734 1672.5195539192991
2123.4103971630702 1754.3194113004054
2124.042096962681 1836.5024600824624
2124.6736445772767 1726.6950158050063
2125.305040042802 1506.7843632164152
2125.936283395191 1740.0536421421439
2126.567374670365 1778.2388112112917
2127.198313904233 1637.856465704822
2127.8291011326855 1641.5268045744738
2128.4597363916037 1645.0097521111213
2129.0902197168507 1726.0185718501766
2129.720551144279 1575.5703894646158
2130.3507307097225 1732.3266399620538
2130.980758449008 1777.0461819062173
2131.6106343979427 1495.0996414598744
2132.2403585923203 1837.671908024801
2132.8699310679276 1932.1895388094272
2133.499351860526 1698.3946553002431
2134.1286210058715 1806.6482271882446
2134.7577385397053 1656.3493851459716
2135.3867044977487 1726.0555316718778
2136.0155189157176 2002.4119393233686
2136.644181829308 1646.926742469143
2137.2726932742025 1515.3332608344936
2137.901053286074 1556.0544092112605
2138.5292619005777 1596.9092751973778
2139.1573191533535 1701.3239811841074
2139.7852250800315 1799.6761529228024
2140.4129797162295 1876.84730820948
2141.0405830975433 1558.637930189122
2141.6680352595613 1502.1181875531795
2142.2953362378576 1445.5072447991724
2142.9224860679915 1708.4328850998204
2143.549484785508 1464.7706262483048
2144.1763324259373 1791.5159527827673
2144.803029024799 1614.5574303794576
2145.429574617594 1803.6934564208466
2146.0559692398165 1887.6874313297874
2146.682212926942 1543.6119696907037
2147.308305714432 1661.5772950885262
2147.9342476377333 1797.4001102200687
2148.5600387322847 1873.5297792888584
2149.185679033506 1816.0911875682639
2149.8111685768017 1608.340728260364
2150.4365073975678 1734.5201722988058
2151.061695531187 1642.8580566393252
2151.686733013021 1793.9015242212167
2152.311619878423 1672.9868055733536
2152.9363561627342 1681.1337113871857
2153.560941901278 1662.3236132572201
2154.1853771293663 1888.3019126575205
2154.809661882293 1867.991243406547
2155.433796195348 1790.8852194397627
2156.0577801037944 1966.6342190410826
2156.681613642895 1936.643169965761
2157.3052968478896 1586.2462571207204
2157.928829754006 1710.3490298221157
2158.552212396462 1644.0994780677295
2159.1754448104566 1754.3369427598623
2159.7985270311783 1493.7653459247983
2160.4214590938027 1329.7279863015647
2161.0442410334927 1432.6953332716746
2161.6668728853874 1681.8850454271656
2162.289354684628 1505.0121180169579
2162.911686466332 1722.4578754724237
2163.533868265602 1817.242261472821
2164.1559001175337 1991.188767942155
2164.7777820572046 1813.809218764814
2165.399514119681 1576.3666256272584
2166.021096340013 1348.9295197679955
2166.6425287532384 1767.376086416762
2167.263811394385 1681.6955629630925
2167.8849442984574 1592.0920951001758
2168.505927500455 1525.9458707871636
2169.126761035366 1689.574608181539
2169.7474449381552 1715.2157682119584
2170.367979243778 1500.2318346090156
2170.9883639871823 1774.8871384445451
2171.608599203293 1646.1000093869097
2172.2286849270276 1840.2174542152534
2172.8486211932886 1701.8630944601614
2173.4684080369625 1563.079415619075
2174.0880454929265 1543.941533600027
2174.7075335960417 1691.1662249472854
2175.3268723811543 1771.3079271162958
2175.9460618831 1702.0363578169538
2176.565102136701 1697.598196304071
2177.1839931767627 1671.9446220266395
2177.802735038078 1646.2472634242524
2178.421327755432 1512.6485864918118
2179.0397713635866 1661.258062313277
2179.658065897298 1657.3711823218043
2180.276211391305 1653.3927193605512
2180.8942078803357 1615.2034072285885
2181.5120553991 1722.8518552403943
2182.129753982299 1602.748872062068
2182.7473036646206 1603.200886225784
2183.3647044807367 1654.763970553852
2183.9819564653044 1597.5224654471547
2184.599059652968 1684.346158828479
2185.216014078367 1927.868829547187
2185.832819776113 1556.1276515001732
2186.4494767808137 1875.6593720091205
2187.065985127063 1715.253216656747
2187.682344849436 1604.4803753408037
2188.298555982501 1871.6888955120558
2188.9146185608097 1749.7380123950782
2189.530532618901 1620.7547344938187
2190.1462981912937 1548.660733405207
2190.761915312507 1803.0110793663985
2191.377384017036 1687.500824081172
2191.9927043393654 1693.1612131046827
2192.6078763139667 1439.6892778319948
2193.2228999753006 1486.8786113623999
2193.837775357808 1534.189349777052
2194.452502495922 1309.9661643557263
2195.0670814240602 1545.538248093252
2195.6815121766285 1693.8176021452462
2196.2957947880186 1869.8402788649134
2196.9099292926057 1618.9207496124582
2197.523915724758 1748.4964879019833
2198.137754118825 1590.6392940751416
2198.7514445091456 1833.6056001238098
2199.3649869300443 1511.4204196061878
2199.9783814158327 1810.25661354742
2200.5916280008096 1992.2944756474503
2201.2047267192593 1690.0797100610296
2201.8176776054515 1740.7469625808776
2202.430480693649 1630.4966006061654
2203.0431360180955 1778.5816057266063
2203.6556436130195 1587.416733940478
2204.268003512645 1464.1008025290744
2204.8802157511727 1799.7820443647888
2205.492280362796 1789.7996034528514
2206.1041973816937 1616.0282335583934
2206.715966842032 1575.6381589509185
2207.3275887779655 1535.0513758506127
2207.93906322363 1582.0721595146122
2208.550390213153 1862.6456006789128
2209.1615697806465 1598.2257113354704
2209.7726019602105 1273.8360988931668
2210.3834867859277 1583.774361072912
2210.9942242918787 1683.4964875923292
2211.6048145121167 1473.7872349651732
2212.2152574806914 2203.627851250225
2212.825553231638 1598.0345126400641
2213.435701798975 2272.141268565034
2214.045703216707 1636.5858438622695
2214.655557518832 1326.1804305094583
2215.2652647393297 1477.6408817090837
2215.874824912169 1249.2701470477834
2216.4842380713 1578.924885280651
2217.09350425067 1585.144233338668
2217.7026234842033 1498.8462533141333
2218.311595805819 1807.358107282886
2218.9204212494133 1556.8034544029745
2219.52909984888 2030.3192976641208
2220.137631638092 2066.112682865665
2220.7460166509154 2101.849187298431
2221.354254921198 1700.9492514518752
2221.9623464827764 1814.4802264173863
2222.5702913694713 1536.0411210119967
2223.178089615096 1695.6342047912779
2223.7857412534486 1384.9088765812282
2224.39324631831 1596.5078125327013
2225.000604843457 1512.8800757384593
2225.607816862641 1773.9317730228654
2226.214882409611 1747.9140065370898
2226.8218015180973 1718.8474772274226
2227.4285742218217 1511.7200990549438
2228.0352005544864 1622.6001355259134
2228.6416805497847 1553.9930741319877
2229.248014241399 1644.6259085763145
2229.8542016629945 1416.4862587458276
2230.460242848223 1788.5128684532542
2231.0661378307304 1943.3560694225293
2231.671886644139 1659.9565934461789
2232.277489322065 1355.9012433931648
2232.8829458981127 1188.1325048489343
2233.48825640587 1677.679050004314
2234.0934208789095 1949.5255989639566
2234.6984393507955 1995.987493510079
2235.3033118550793 1927.4106770334442
2235.9080384252975 1669.1699360188672
2236.5126190949723 1553.666758588105
2237.1170538976166 1500.8513397185488
2237.721342866729 1566.413357088371
2238.32548603579 1632.0850466787365
2238.9294834382763 1793.0413884876048
2239.533335107646 1448.5535962650006
2240.1370410773434 1766.5360483276388
2240.740601380803 1577.0733365912945
2241.3440160514474 1526.9010396043127
2241.9472851226783 1619.3026415372146
2242.550408627896 1504.3883582706499
2243.1533866004793 1738.3707594484433
2243.756219073799 1638.1583326624536
2244.3589060812064 1472.8740308183628
2244.961447656049 1379.6811266379552
2245.5638438316564 1586.402114066746
2246.166094641343 1590.8618118798588
2246.7682001184166 1685.7067361174097
2247.3701602961664 1567.2998954403627
2247.971975207871 1648.9798911622474
2248.5736448867974 1686.2284458986076
2249.175169366197 1687.7975595561825
2249.7765486793123 1562.7946946313286
2250.3777828593684 1715.9513943384998
2250.9788719395783 1717.2216566593113
2251.579815953146 1616.9882358222192
2252.1806149332606 1568.7777910899126
2252.781268913097 1607.0686273013387
2253.381777925817 1478.0542461014074
2253.9821420045737 1631.4382922377156
2254.5823611825035 1616.0026313824364
2255.1824354927303 1643.990076425354
2255.782364968365 1551.4834163832925
2256.38214964251 1458.8970645290767
2256.9817895482483 1411.9781362643296
2257.5812847186553 1416.8281792185846
2258.180635186791 1421.7343032330177
2258.779840985704 1610.9012236401554
2259.37890214843 1615.316983037494
2259.97781870799 1554.992390965697
2260.5765906973957 1494.5726754889101
2261.175218149645 1488.364444197589
2261.773701097718 1704.1480007548714
2262.3720395745895 1336.7514776986059
2262.970233613216 1086.7013213860835
2263.568283246548 1456.989880583535
2264.1661885075137 1611.1056827267116
2264.763949429038 1598.601871575441
2265.3615660440246 1677.094746186079
2265.959038385374 1406.4710722909053
2266.5563664859637 1652.1300845716273
2267.153550378669 1533.2728075505484
2267.7505900963424 1747.633008148077
2268.3474856718312 1592.3202237268245
2268.9442371379664 1564.9059877404743
2269.5408445275643 1374.192135990698
2270.1373078734377 1736.2655659057382
2270.7336272083758 1531.6131352735786
2271.32980256516 1528.6405532114768
2271.925833976562 1539.4183437590686
2272.5217214753357 1814.1000331991647
2273.117465094223 1536.3617295488843
2273.7130648659586 1582.4556283686427
2274.308520823257 1664.0265761556402
2274.903832998827 1705.7004206728216
2275.4990014253563 1361.9583212179873
2276.094026135528 1733.6665791961746
2276.6889071620117 1417.024277367763
2277.2836445374614 1650.182640097503
2277.878238294519 1636.0573372455656
2278.472688465812 1528.9172474777777
2279.066995083962 1421.563860724496
2279.6611581815705 1481.536488728007
2280.255177791232 1603.7076659922718
2280.8490539455233 1726.135324823187
2281.442786677013 1721.3913948020775
2282.0363760182554 1733.8728814339422
2282.6298220017943 1397.5973876773442
2283.223124660155 1696.8881280384837
2283.816284025859 1725.3108929453242
2284.4093001314086 1760.1202926444632
2285.002173009292 1658.9271082963758
2285.5949026919952 1557.4934991856578
2286.1874892119777 1559.2931458959035
2286.7799326016993 1714.8905638474394
2287.3722328936 1432.2235272061946
2287.964390120109 1271.5910145131725
2288.556404313642 1650.662253573144
2289.1482755066027 1491.313385908133
2289.7400037313873 1331.6361748110526
2290.3315890203703 1539.4632124366956
2290.9230314059205 1434.844003024405
2291.5143309203904 1330.099790109836
2292.1054875961236 1370.823813625036
2292.6965014654506 1684.1340300325871
2293.287372560684 1733.3769472885294
2293.878100914131 1928.8298638414926
2294.468686558086 1619.5025273265042
2295.059129524827 1393.8301881542218
2295.649429846617 1736.1222669864892
2296.239587555716 1926.0757272038209
2296.8296026843636 1979.0949402625465
2297.419475264791 2032.1086024690278
2298.0092053292137 1760.5680650821275
2298.598792909839 1694.8421204039219
2299.1882380388597 1596.8744100815825
2299.777540748455 1630.8488537796482
2300.3667010707904 1664.7646453224013
2300.9557190380256 1453.96882755836
2301.544594682302 1506.9306427278846
2302.1333280357503 1559.9259833795809
2302.721919130485 1824.3177242360773
2303.3103679986198 1711.266585539123
2303.898674672242 1823.4951129461176
2304.486839183437 1512.5858897364653
2305.0748615642697 1707.4388024296848
2305.6627418468015 1683.4005367094912
2306.2504800630704 1541.5047185236433
2306.8380762451143 1465.640432533723
2307.425530424949 1602.5179565205171
2308.012842634582 1739.6971654831145
2308.6000129060103 1787.111419735361
2309.187041271214 1689.2363095368867
2309.773927762164 1591.165645194772
2310.3606724108213 1734.7266231058834
2310.9472752491274 1443.359178534624
2311.5337363090184 1791.2132990548107
2312.120055622414 1491.0707769929218
2312.706233221221 1602.576576201787
2313.2922691373424 1669.282560219624
2313.8781634026564 1736.1328715138563
2314.463916049037 1526.3564397520304
2315.049527108342 1733.7483376367702
2315.6349966124235 1801.653239614748
2316.2203245931123 1907.5933753821569
2316.8055110822315 1484.0090423871427
2317.3905561115935 1555.0584108267644
2317.9754597129977 1439.3630925478903
2318.560221918229 1405.3804808627976
2319.1448427590603 1371.3513568603562
2319.729322267256 1294.9752681080013
2320.313660474563 1811.7005110915609
2320.8978574127195 2146.8163333143048
2321.481913113452 1511.6020860722663
2322.0658276084705 1258.4389572194043
2322.6496009294806 1667.8858508023927
2323.233233108165 1723.800278374493
2323.8167241762058 1650.8283191717833
2324.4000741652617 1804.0853839224278
2324.983283106987 1949.2250392992166
2325.5663510330232 1756.4651901826667
2326.1492779749933 1755.0121168337687
2326.7320639645204 1421.3013500023512
2327.3147090332004 1353.3277773351047
2327.897213212629 1579.6692184218643
2328.4795765343843 1806.202187543911
2329.0617990300307 1433.7770913151146
2329.643880731124 1823.6716746156872
2330.22582166921 1806.293773813531
2330.807621875816 1597.6323964675314
2331.3892813824623 1395.55504352437
2331.9708002206517 1622.485924800024
2332.5521784218818 1805.8008300970869
2333.133416017634 1600.2494649996893
2333.7145130393765 1476.0013140466504
2334.295469518571 1538.9265565724827
2334.876285486658 1789.6192533819165
2335.456960975076 1773.67337580292
2336.037496015242 1757.7225762545738
2336.6178906385667 1499.6148842151742
2337.198144876451 1718.960591649279
2337.778258760278 1446.5244795864885
2338.3582323214214 1588.1869883148872
2338.938065591243 1730.1388817700451
2339.517758601087 1831.9091026877347
2340.0973113822965 1632.2832456393512
2340.676723966193 1526.1830948377644
2341.255996384094 1419.8272679824765
2341.835128667295 1606.2160607674643
2342.4141208470883 1746.2648050455537
2342.992972954751 1611.2217495685318
2343.5716850215467 1635.3905306151973
2344.1502570787306 1184.050940305235
2344.7286891575386 1419.6587627117472
2345.3069812892045 1582.578680063124
2345.885133504944 1745.65291800062
2346.4631458359618 1584.984165074829
2347.04101831345 1526.7943247702588
2347.6187509685915 1749.1635297067064
2348.196343832553 1472.8463168090263
2348.7737969364935 1520.8710846748634
2349.351110311558 1546.2798944468104
2349.9282839888765 1519.3332027818967
2350.5053179995757 1427.7051307156646
2351.0822123747585 1458.5400837608884
2351.658967145526 1785.553087196413
2352.2355823429643 1450.4726956172558
2352.812057998144 1739.6223436791693
2353.3883941421263 1691.2607989657342
2353.9645908059647 1642.8775610435132
2354.540648020693 1707.9985407334
2355.116565817336 1320.4078045824074
2355.6923442269126 1535.3305394048687
2356.2679832804224 1567.0408218324578
2356.8434830088518 1622.6462171399605
2357.41884344318 1678.302438101992
2357.994064614377 1633.9011819093414
