#exp_cfg={"servo_angle": 0.0, "laser_lim": 100.0, "servo_angle_to": 18.0, "laser_wup": 0.0, "bt_dev": "EnSpectr-25AE3", "laser_wdn_max": 0.0, "frames": 10.0, "servo_used": 0, "servo_calib_use": 0, "laser_wdn_min": 0.0, "servo_pix_from": 90.0, "cooler_tout": 300.0, "servo_angle_from": 0.0, "servo_calib": "[-1.9174921013161362e-09, 3.9322238269163779e-05, -0.27385609119055809, 653.59552119713567]", "laser_autoctl": 0, "servo_pix_to": 3682.0, "laser_pw": 100.0, "cooler_on": 0, "laser_volt": 4.0, "cooler_autoctl": 0, "cooler_curr": 70.0, "cooler_startup": 10.0, "laser_fixed_pw": 0, "gain": 1.3, "offset": 2.53059635486, "servo_calib_degree": 3.0, "laser_curr": 55.0, "shutter": 8200.0, "servo_calib_step": 1.0, "laser_fixed_curr": 0, "exp": 2000.0, "ccd_volt": 4.7, "bt_addr": "00:06:66:62:5A:E3", "servo_delay": 500.0, "laser_autooff": 1}
#proc_cfg={"flat_auto_wnd": 200.0, "flat_auto_fr": 200.0, "flat_auto_shift": 5.0, "yconv": 1, "flatten": 1, "flatten_strength": 100.0, "xfrom": 300.0, "auto_max_frame": 2000.0, "auto_signal": 48000.0, "flat_auto_tol": 0.1, "autoclip": 1, "xrel_range": 0.0, "flat_auto_to": 4000.0, "intensity_adj": 1.0, "xrel": 7852.0, "rmhot": 1, "flat_auto_slit": 4.999999999999997, "auto_ini_exp": 300.0, "auto_off": 0, "xto": 2860.0, "flat_auto_ref": "", "flat_auto_rank": 1, "autobackg": 0, "xrel_adj": 0.0, "auto_black_lvl": 1, "base_wnd": 100.0, "sub_baseline": 0, "xconv": 2, "auto_max_exp": 1000.0, "auto_total_exp": 10000.0, "auto_exp": 0, "rmripple": 0, "black_lvl": 8257.6, "shutter_clip_adj": 0.0, "auto_bckg": 0, "flat_auto_thr": 0.9, "subbackg": 1}
316.8218498245369 11720.937296449614
317.89969571804795 11547.458787059702
318.977263876126 11472.771047743703
320.05455438786703 11455.686843907282
321.1315673423287 11365.66906196591
322.2083028285215 11447.319402812067
323.2847609354267 11354.170244292047
324.3609417519747 11220.91817479263
325.43684536705587 11170.913193683848
326.5124718695279 11089.02986260702
327.58782134820103 11150.48781236933
328.66289389184385 11075.008388186112
329.7376895891921 10924.506677361413
330.8122085289342 11017.51005283817
331.88645079971866 10968.243954817652
332.9604164901575 10918.519508187383
334.03410568881554 10924.108698556567
335.1075184842266 11035.622891243751
336.18065496487543 10786.410208962778
337.2535152192122 10791.881063510395
338.32609933564163 10838.894194513103
339.39840740253203 10804.337664528326
340.4704395082099 10746.219201740121
341.5421957409617 10710.106318305197
342.6136761890357 10754.090556092213
343.6848809406365 10646.496550698404
344.75581008392874 10566.577703293637
345.82646370703696 10510.01819242054
346.8968418980512 10508.743173920582
347.96694474501055 10529.321313839337
349.0367723359268 10500.352134413846
350.106324758759 10408.381719516407
351.1756021014353 10328.725511545968
352.2446044518383 10334.940641039952
353.31333189781435 10372.909520862919
354.38178452716966 10299.736746847004
355.449962427665 10237.949902986471
356.51786568702846 10294.768877317374
357.58549439294256 10413.195131027234
358.6528486330535 10327.260917815996
359.71992849496564 10275.25049875956
360.7867340662433 10318.432662249032
361.8532654344144 10293.931121309111
362.9195226869597 10389.891997028311
363.9855059113288 10082.760261929192
365.05121519492604 10221.669807553113
366.11665062511565 10335.593607074605
367.1818122892273 10349.029297683299
368.2467002745434 10246.241160586902
369.31131466831175 10199.253319313833
370.375655557742 10243.476341195046
371.4397230299983 10260.413537430743
372.5035171722102 10257.724783805435
373.5670380714637 10302.29310045471
374.6302858148101 10354.903904265342
375.6932604892554 10297.8775915244
376.7559621817709 10325.35266875495
377.81839097928605 10251.968453932564
378.8805469686886 10215.041151752275
379.94243023683157 10020.351369373373
381.0040408705263 10204.770357527774
382.0653789565458 10135.822447711658
383.1264445816196 10111.082433798794
384.1872378324406 10125.985563490527
385.2477587956637 10219.521657447647
386.3080075579037 10123.803060131959
387.3679842057336 10054.522739745316
388.4276888256918 10034.985555018273
389.48712150426945 10115.592553917024
390.54628232792857 9997.404534059402
391.6051713830857 9951.49070878918
392.66378875611736 10019.843198660687
393.7221345333637 9985.595916998933
394.7802088011249 9880.12799505045
395.838011645661 9888.899029256498
396.89554315319765 9843.69721498671
397.9528034099112 9757.538073348143
399.00979250194723 9694.3998796797
400.06651051541485 9683.47099858437
401.1229575363741 9761.670511497481
402.17913365085224 9674.193549011634
403.23503894483656 9772.025970230921
404.2906735042761 9650.554102930811
405.3460374150818 9611.738193920675
406.401130763119 9626.894317511533
407.455953634224 9600.038764279923
408.5105061141876 9566.945484542292
409.56478828876243 9472.42782276766
410.6188002436629 9480.634689765504
411.6725420645689 9412.631436250243
412.72601383711117 9487.542732540087
413.77921564689314 9516.579905995686
414.8321475794728 9404.32425860345
415.88480972036814 9370.477853313605
416.93720215506437 9447.662926536646
417.9893249690049 9352.31885811862
419.04117824759123 9282.887216803047
420.09276207619223 9320.797250957385
421.144076540133 9365.554951369904
422.1951217247042 9250.162830065006
423.24589771515275 9310.915655122524
424.2964045966928 9241.861717391776
425.34664245449494 9256.941819370177
426.3966113736933 9173.467442567791
427.4463114393875 9258.620712144882
428.49574273662984 9174.357053192662
429.5449053504417 9092.14059641302
430.5937993658026 9283.358872358707
431.6424248676558 9123.517372983364
432.6907819409007 9062.924413926232
433.73887067040596 9170.113753100184
434.7866911409965 9153.859712246336
435.8342434374608 9072.593572422413
436.88152764455117 9063.470139078105
437.9285438469724 9008.397165862578
438.9752921294057 9037.116241993092
440.02177257648145 8983.779739378597
441.06798527279716 8961.401530383755
442.1139303029122 9032.330445442816
443.1596077513459 9022.419623330357
444.2050177025794 8983.443065181826
445.25016024105753 9021.010205050163
446.2950354511886 8919.45857750368
447.33964341733736 8973.357246707037
448.383984223834 8972.337441330345
449.4280579549686 8944.645214729582
450.471864694995 8951.543481409872
451.5154045281306 8994.000319452784
452.5586775385509 8925.99839976842
453.60168381039693 8914.268478738597
454.64442342776783 9130.148122648541
455.6868964747264 8998.267014471672
456.7291030353008 9057.748410219856
457.77104319347563 9038.552389611528
458.8127170332027 9000.502409231758
459.854124638392 9003.392729964467
460.895266092919 9089.968402460945
461.93614148061897 9145.58714127092
462.97675088529104 9220.445830242044
464.01709439069236 9139.383913521144
465.0571720805492 9237.867981855969
466.0969840385442 9309.569984486912
467.1365303483253 9342.394521228367
468.17581109350067 9339.343499719496
469.2148263576437 9277.329252099044
470.2535762242878 9349.643068886342
471.29206077693016 9476.306264541923
472.33028009902773 9420.12440313936
473.3682342740012 9503.521441725508
474.40592338523857 9524.347142514092
475.4433475160804 9455.45205454365
476.4805067498364 9495.269256163097
477.51740116978 9440.743333298036
478.5540308591426 9547.867516384655
479.59039590112116 9657.600486008594
480.6264963788726 9552.61504939622
481.6623323755193 9721.872166514333
482.6979039741436 9749.503644051129
483.7332112577915 9936.094139966393
484.76825430947247 10070.01453685125
485.80303321215797 10133.12745754787
486.837548048783 10137.736954628946
487.8717989022425 10371.378535453723
488.90578585539697 10333.424744190657
489.9395089910686 10369.71159603877
490.97296839203955 10361.448169526539
492.00616414106116 10227.215332773538
493.0390963208429 10218.403189123872
494.0717650140559 10223.354042926165
495.10417030333883 10071.972276233326
496.1363122712901 10090.408426643018
497.16819100046814 9950.713325985878
498.1998065734024 9825.944083445578
499.2311590725767 9730.160911481466
500.26224858044407 9539.43323743014
501.2930751794156 9428.785067454022
502.3236389518679 9452.840611053121
503.35393998014115 9180.127103932817
504.38397834653733 9223.79990553453
505.4137541333221 9200.390486424218
506.4432674227228 9014.695850786336
507.4725182969323 9006.832793209569
508.5015068381035 9002.7505265651
509.53023312835467 8960.91664383497
510.55869724976765 8925.398981148921
511.58689928438434 8849.36001779207
512.6148393142121 8825.780518613967
513.6425174212218 8919.814178171093
514.6699336873462 8892.072337877577
515.6970881944835 8849.206015461446
516.7239810244901 8810.818397038513
517.7506122591931 8898.48043024827
518.7769819803761 8870.39428059536
519.8030902697901 8894.99766318473
520.8289372091476 8937.523617040186
521.8545228801249 9000.806976821452
522.8798473643619 8905.331571810495
523.9049107434621 8874.291233677093
524.9297130989908 8894.800606825758
525.9542545124805 8860.274800582903
526.9785350654201 8877.700622669778
528.0025548392696 8891.51737796515
529.0263139154504 8867.880928046796
530.0498123753423 8799.240701506467
531.073050300296 8835.606141303328
532.0960277716204 8754.014326580118
533.1187448705896 8740.78445046691
534.1412016784416 8754.765624501164
535.1633982763833 8678.226086836024
536.1853347455726 8692.278745244626
537.2070111671401 8690.03094366124
538.2284276221817 8574.134673939707
539.2495841917516 8505.791197930233
540.2704809568677 8363.751339124023
541.2911179985167 8480.031980735605
542.3114953976419 8374.112382390957
543.3316132351592 8294.919577482218
544.3514715919409 8177.8397354118715
545.3710705488247 8252.56378245385
546.3904101866156 8180.028946126467
547.4094905860784 8264.718410311061
548.4283118279418 8122.94142283167
549.4468739929034 8170.625447692694
550.4651771616191 8099.081745516456
551.4832214147063 8081.547360748213
552.501006832761 8086.887608633364
553.5185334963226 8114.65945073336
554.5358014859103 8056.206278306262
555.5528108820035 8055.728710973589
556.5695617650363 8012.8660935568305
557.5860542154242 8102.701380815268
558.6022883135283 8049.059529830801
559.6182641396881 7998.981326545423
560.6339817741991 8045.73698297354
561.6494412973225 8142.902256800102
562.6646427892883 8126.29691853432
563.6795863302796 8072.321374172907
564.694272000459 8043.473822433853
565.7086998799423 8101.394702650835
566.7228700488104 8084.1403110817655
567.7367825871115 8020.783358534545
568.7504375748576 8069.985180702686
569.7638350920224 8035.534890625718
570.7769752185486 7976.202433653694
571.7898580343353 8061.887388252083
572.802483619258 7971.796353423512
573.8148520531431 8111.927842749699
574.8269634157932 8202.518989518003
575.8388177869692 8050.276847844955
576.8504152463938 8085.832990315786
577.8617558737587 8239.846974232083
578.8728397487175 8222.86767655085
579.883666950891 8269.26596191394
580.8942375598654 8349.139598806967
581.9045516551851 8420.950204954102
582.9146093163617 8562.710238410775
583.924410622878 8517.321442809542
584.9339556541727 8511.04033426879
585.9432444896538 8709.192731621984
586.9522772086875 8651.954972539472
587.9610538906127 8597.121665500552
588.9695746147318 8552.491597189106
589.9778394603054 8674.15484944455
590.985848506567 8502.162481682919
591.9936018327098 8543.279099880321
593.0010995178891 8360.094048073071
594.0083416412344 8412.355557049592
595.0153282818283 8275.675412519591
596.0220595187293 8297.24790284898
597.0285354309508 8202.826198809507
598.0347560974806 8176.270729303293
599.0407215972609 8017.514410296569
600.0464320092051 8033.214310774037
601.0518874121954 8121.44237860265
602.0570878850685 8051.669812027243
603.062033506636 8001.176071289274
604.0667243556636 8080.169434230515
605.0711605108936 7961.8079257123345
606.0753420510264 8215.638755900745
607.0792690547278 8045.6007867225
608.082941600629 8059.481515942649
609.0863597673306 8007.5315624041805
610.0895236333909 8150.7950211061125
611.0924332773357 8230.595055970098
612.0950887776617 8194.132132155855
613.0974902128219 8254.433621965272
614.0996376612384 8450.454850587177
615.1015312013005 8491.070767677356
616.1031709113595 8554.735906814905
617.1045568697336 8446.276483646316
618.1056891547069 8620.830706599738
619.1065678445229 8695.968852414893
620.1071930173985 8994.447796246755
621.1075647515099 8986.330021652737
622.1076831250048 9143.124181879895
623.1075482159849 9291.713652732926
624.1071601025305 9362.883061441322
625.1065188626781 9624.811648643175
626.105624574433 9774.292571141526
627.1044773157682 9937.957950664972
628.1030771646128 9983.680611971806
629.1014241988742 10125.985008050924
630.0995184964158 10322.5518666
631.0973601350688 10406.081490195806
632.0949491926294 10575.836895147611
633.0922857468631 10411.130301147157
634.089369875499 10449.775470389035
635.0862016562278 10448.439051412837
636.0827811667077 10260.310606065645
637.0791084845641 10282.059495285308
638.0751836873878 10080.338318416003
639.0710068527369 10099.889167283058
640.0665780581294 9836.47764840331
641.0618973810506 9762.788487058275
642.0569648989604 9628.248256209286
643.0517806892676 9368.847633305566
644.0463448293649 9339.083727092973
645.040657396592 9166.945615664
646.0347184682723 8984.307562450138
647.0285281216875 8932.839297131026
648.0220864340772 8798.340922606736
649.0153934826558 8645.149930677577
650.0084493446047 8574.765431249605
651.0012540970674 8446.691320352367
651.9938078171526 8344.109532559716
652.9861105819346 8221.995198538143
653.9781624684565 8343.281491303786
654.9699635537254 8191.394177191146
655.9615139147136 8187.471701386012
656.9528136283589 8033.355002325955
657.9438627715699 8048.940033968365
658.9346614212154 8019.270860369989
659.925209654135 7831.639655626253
660.9155075471263 7906.001664194494
661.9055551769616 7887.5397686380575
662.895352620375 7938.699623979676
663.8848999540678 7775.994573073154
664.8741972547068 7716.485336630253
665.863244598926 7650.873841918855
666.8520420633213 7752.54236686738
667.8405897244611 7629.295243037227
668.8288876588758 7577.590232474509
669.8169359430613 7630.996061675973
670.8047346534822 7582.850094044841
671.7922838665672 7607.637135419699
672.7795836587156 7683.805971325351
673.766634106285 7710.482501274761
674.7534352856092 7641.37479124387
675.7399872729766 7613.093982600805
676.7262901446538 7633.829824332819
677.712343976862 7621.862554627449
678.6981488457986 7638.154513173348
679.6837048276229 7546.584012920655
680.6690119984596 7601.663418006085
681.6540704344043 7527.472378844506
682.6388802115107 7539.106913075569
683.6234414058108 7595.440186140889
684.6077540932874 7461.425040193848
685.591818349907 7467.597949628968
686.575634251587 7412.956979334054
687.5592018742263 7356.323743720449
688.5425212936734 7355.806692349337
689.5255925857564 7461.123791681792
690.5084158262707 7411.292666076879
691.4909910909646 7343.76762299197
692.4733184555644 7265.44988875742
693.4553979957618 7301.962554128341
694.4372297872123 7262.257032512581
695.4188139055404 7208.952168747329
696.4001504263324 7180.755598205049
697.3812394251509 7251.595405212691
698.3620809775111 7138.549755895512
699.3426751589104 7183.011290743237
700.3230220448004 7140.128216386458
701.3031217106054 7106.913456139715
702.2829742317172 7302.69353386404
703.2625796834873 7095.551772417627
704.2419381412474 7079.470504199509
705.22104968028 7112.429545833969
706.1999143758458 7095.482754780962
707.178532303169 7102.262593119267
708.1569035374378 7128.863420485516
709.1350281538107 7122.3402512726625
710.1129062274158 7077.016744330914
711.0905378333373 7255.089957269132
712.0679230466376 7173.976558718894
713.0450619423427 7302.543590155146
714.0219545954424 7258.553599464212
714.9986010808989 7216.830208795499
715.9750014736292 7286.556816753536
716.9511558485392 7431.586504283917
717.9270642804786 7466.843231945886
718.9027268442787 7532.886808630412
719.8781436147328 7447.079003273003
720.8533146666014 7381.178619283333
721.828240074612 7430.18318674392
722.8029199134635 7323.162107826337
723.7773542578125 7336.3975746400265
724.751543182294 7298.631276211772
725.7254867615029 7352.049953507017
726.6991850700015 7145.438916704976
727.6726381823228 7110.64205848553
728.6458461729599 7119.252367508043
729.6188091163858 7104.101728731827
730.5915270870246 7087.450858085658
731.5640001592856 6946.164840162814
732.536228407529 7083.237855877068
733.5082119060917 7019.9840463774935
734.4799507292755 6982.577679073792
735.4514449513481 7005.959572371628
736.4226946465496 7082.36404676748
737.3936998890786 7106.254072083233
738.3644607531078 6957.116255462254
739.3349773127793 6966.56885788539
740.3052496421951 7012.593341441461
741.27527781543 6948.08220953235
742.2450619065221 6942.0702640002655
743.2146019894826 6974.725025715362
744.183898138288 6872.074136169067
745.1529504268801 6905.866796522981
746.1217589291682 6775.20706287991
747.0903237190341 6799.340335445515
748.058644870318 6859.80012032347
749.0267224568397 6750.7217682174105
749.994556552374 6637.333493967056
750.9621472306771 6777.070422391749
751.9294945654583 6722.596708926784
752.8965986304011 6748.57925436894
753.8634594991636 6757.279276974096
754.8300772453586 6804.461242645089
755.7964519425768 6677.407149273485
756.762583664371 6753.40803117785
757.7284724842611 6828.393380696946
758.6941184757416 6748.201386701767
759.6595217122667 6745.224519120263
760.6246822672638 6790.486137766396
761.5896002141235 6667.912959498368
762.5542756262093 6702.482324149763
763.5187085768503 6813.647879347011
764.4828991393406 6792.739066683785
765.4468473869474 6781.339920581764
766.4105533929032 6713.9601347043745
767.3740172304078 6710.476002159191
768.3372389726283 6737.599777141925
769.3002186926988 6633.501708803495
770.2629564637282 6594.956385035524
771.2254523587872 6573.80670858695
772.1877064509154 6536.595161216802
773.1497188131179 6486.803491769873
774.1114895183728 6441.653191328168
775.0730186396268 6400.302144607469
776.0343062497905 6432.053245835856
776.9953524217381 6331.94148356628
777.9561572283274 6371.138165185227
778.9167207423689 6408.100175193673
779.8770430366476 6362.3322024124245
780.8371241839159 6334.349326452664
781.7969642568951 6265.015980497625
782.7565633282757 6445.59014122909
783.7159214707099 6294.211796108518
784.6750387568281 6348.43132732788
785.6339152592227 6338.414514149382
786.5925510504512 6251.064675552001
787.5509462030477 6236.1058367124115
788.5091007895098 6333.429261857596
789.4670148823006 6310.745832740534
790.4246885538596 6268.569219392177
791.3821218765861 6261.432623416573
792.3393149228505 6201.3112330949825
793.2962677649975 6386.404520234668
794.2529804753303 6424.485039875402
795.20945312613 6370.7718437064295
796.1656857896378 6335.435683249529
797.1216785380675 6299.15297100309
798.0774314435985 6466.980257680305
799.0329445783846 6595.973757328722
799.9882180145414 6633.472268399755
800.9432518241574 6537.091103731199
801.89804607929 6675.722573746418
802.852600851962 6696.437513619037
803.8069162141637 6718.092587773919
804.760992237856 6844.022129608944
805.714828994971 6801.589246095209
806.6684265574077 6914.471167585149
807.6217849970271 6845.068667534995
808.574904385674 6858.288158720441
809.527784795142 6783.749554410958
810.4804262972102 6977.5547282321395
811.4328289636178 6680.66627307773
812.3849928660748 6604.477383544186
813.3369180762638 6639.815171182102
814.2886046658241 6616.686928265563
815.2400527063783 6406.85726406858
816.1912622695108 6401.353242114344
817.1422334267718 6410.37066752359
818.0929662496856 6262.613274507514
819.0434608097457 6179.497437654134
819.9937171784059 6111.215890801201
820.9437354271013 6130.694257705922
821.8935156272255 6173.028729590257
822.8430578501484 6049.667831963031
823.7923621672016 5905.286529196359
824.7414286496896 5983.985096783415
825.6902573688876 5988.97577363744
826.6388483960363 5983.913812144301
827.5872018023492 5877.692847791076
828.5353176590033 5955.478359499424
829.4831960371503 5821.287326127982
830.4308370079016 5833.152024374618
831.3782406423525 5947.829223564111
832.3254070115545 5874.038839636822
833.2723361865319 5731.863396040337
834.2190282382799 5753.902966966619
835.1654832377644 5886.212978584885
836.1117012559116 5749.741199446398
837.0576823636256 5912.196282829751
838.003426631778 5798.967447861367
838.9489341312074 5658.346158545571
839.8942049327197 5769.456226183447
840.8392391070975 5806.676679105247
841.7840367250865 5755.861733059724
842.7285978573982 5726.124188388067
843.672922574724 5741.320813819408
844.6170109477152 5677.7575930893445
845.560863046996 5741.1541380723
846.5044789431595 5757.0683120024305
847.4478587067697 5699.955005848648
848.3910024083561 5844.672250070552
849.333910118421 5778.882564790832
850.2765819074339 5639.56626172456
851.2190178458332 5807.619016044715
852.161218004032 5822.101416168205
853.1031824524016 5801.954863044962
854.0449112612987 5786.127034141829
854.9864045010327 5817.170482613639
855.9276622418947 5711.669559303429
856.8686845541379 5692.783565486955
857.8094715079915 5743.270391978742
858.7500231736467 5845.491466150604
859.690339621271 5801.365883314508
860.6304209209939 5786.817227840018
861.5702671429244 5697.963623203314
862.5098783571284 5746.3561848669515
863.4492546336569 5850.671798175633
864.3883960425155 5690.604711439429
865.3273026536863 5756.911650906287
866.2659745371238 5688.986261246123
867.2044117627465 5878.678083568753
868.1426144004472 5761.489668838707
869.0805825200823 5900.866972795296
870.0183161914847 5966.120296949286
870.9558154844526 5984.672592134082
871.8930804687552 5981.151974701797
872.8301112141307 5966.904809883971
873.7669077902865 6081.481091342927
874.7034702669062 6113.780976012792
875.6397987136315 6083.423475021251
876.5758932000863 6131.921475850539
877.5117537958522 6178.700244150774
878.4473805704911 6188.475211757269
879.3827735935283 6121.024796552935
880.3179329344603 6243.093262568027
881.2528586627541 6152.514388776071
882.1875508478479 6254.60251128396
883.1220095591489 6240.981402592352
884.0562348660296 6151.671888592121
884.9902268378391 6235.408863582094
885.9239855438955 6215.666538852357
886.8575110534839 6128.42815061849
887.7908034358588 6164.053724516194
888.7238627602474 6151.541884107141
889.6566890958475 6089.208936753572
890.5892825118208 5939.431661102904
891.5216430773125 5991.528397702809
892.4537708614189 5957.627200113306
893.3856659332196 5883.423636246603
894.3173283617652 5708.609254002155
895.2487582160684 5812.867976995983
896.179955565116 5724.817503023317
897.110920477864 5598.568437929073
898.0416530232451 5648.591547468157
898.9721532701478 5548.658890100598
899.9024212874428 5652.840047282255
900.8324571439662 5529.379107863796
901.7622609085302 5575.584731627804
902.6918326499072 5429.16562987629
903.6211724368477 5502.353792542713
904.5502803380696 5472.0230832238285
905.4791564222614 5583.237043468374
906.4078007580792 5421.213197494569
907.3362134141571 5425.927982040409
908.2643944590909 5485.463083724764
909.1923439614493 5416.338900642249
910.1200619897754 5397.155175463452
911.0475486125779 5538.120455236757
911.9748038983344 5333.2072839437205
912.9018279155007 5433.132353175388
913.8286207324982 5332.304251616389
914.7551824177117 5353.102949373935
915.6815130395116 5395.636668574309
916.6076126662283 5331.4633261703975
917.533481366163 5321.478405856996
918.4591192075914 5368.704313838754
919.3845262587565 5413.561930489866
920.3097025878706 5320.084561960624
921.2346482631237 5316.571134126489
922.1593633526682 5288.932433837919
923.0838479246304 5311.156212349424
924.0081020471061 5423.800915198377
924.9321257881656 5209.4516672463105
925.8559192158464 5307.483399286348
926.7794823981512 5184.842314719993
927.7028154030686 5206.977720231364
928.6259182985414 5142.213836568245
929.5487911524906 5290.855071697088
930.4714340328119 5283.989126292588
931.3938470073608 5167.457384669416
932.3160301439748 5180.036107411814
933.2379835104548 5270.995879523913
934.1597071745709 5342.847299981271
935.0812012040769 5311.73473429305
936.002465666681 5288.660688835677
936.9235006300696 5226.608672641348
937.8443061619055 5235.053431313174
938.7648823298077 5156.58220945331
939.6852292013809 5191.508964207378
940.6053468441951 5286.56804178583
941.5252353257874 5055.54831400878
942.4448947136698 5196.613205865803
943.364325075323 5180.770000623135
944.2835264782043 5125.549117199744
945.2024989897309 5154.82006517829
946.1212426773054 5217.1627745386795
947.0397576082851 5177.839370554345
947.9580438500125 5192.265226328918
948.8761014697939 5302.929801583196
949.7939305349064 5269.586438700419
950.7115311125999 5132.431177623048
951.6289032700952 5108.617214981826
952.5460470745875 5327.128173480929
953.4629625932339 5145.718898229473
954.3796498931715 5304.3466945691125
955.2961090415029 5228.067879320839
956.2123401053068 5254.9698791305045
957.1283431516276 5279.131991702537
958.0441182474842 5104.89774124447
958.9596654598663 5225.272764853733
959.8749848557309 5261.596212361112
960.7900765020167 5143.596938892024
961.7049404656209 5161.358822976781
962.6195768134185 5183.321000932905
963.5339856122537 5095.494787342333
964.4481669289453 5241.638693855836
965.3621208302793 5169.348805578215
966.2758473830145 5109.742661865761
967.1893466538822 5350.870585525718
968.1026187095813 5133.197631905832
969.0156636167867 5264.432415913746
969.9284814421426 5181.5952157756565
970.8410722522622 5160.912035678248
971.753436113735 5097.113503299354
972.6655730931161 5144.515251666309
973.5774832569368 5203.857395957717
974.4891666716958 5101.960472420602
975.4006234038698 5067.786408874609
976.3118535198955 5136.099275768107
977.2228570861935 5256.012154703625
978.1336341691494 5147.038836310794
979.0441848351202 5058.969554042791
979.9545091504333 5154.948378043067
980.864607181391 5244.439473753868
981.7744789942699 5247.65853336258
982.6841246553086 5248.809197367851
983.5935442307236 5201.427639310648
984.5027377867027 5302.238748312679
985.4117053894024 5271.07708866888
986.3204471049557 5173.948826143639
987.2289629994648 5273.301621332333
988.1372531390007 5387.736431135506
989.0453175896091 5274.798258666421
989.9531564173067 5276.804557971959
990.860769688079 5235.054288154645
991.7681574678918 5269.236817643561
992.6753198226706 5429.91399260245
993.582256818323 5350.575111613096
994.4889685207218 5438.924463117572
995.3954549957143 5522.138636910465
996.301716309119 5463.376240484986
997.2077525267232 5522.1081041087145
998.1135637142943 5418.536731100253
999.0191499375615 5512.9611400178765
999.924511262232 5512.816821446285
1000.8296477539861 5518.0770912280295
1001.7345594784656 5462.8990693307
1002.6392465012996 5492.364927561909
1003.5437088880753 5576.962500155105
1004.4479467043584 5486.585585574589
1005.3519600156869 5268.848128796724
1006.2557488875718 5348.628314086684
1007.1593133854858 5420.484242156019
1008.0626535748888 5426.282627049313
1008.9657695212009 5370.485442879684
1009.8686612898182 5405.537939316238
1010.7713289461135 5402.059845278667
1011.6737725554212 5387.817128937607
1012.5759921830577 5451.368541033648
1013.4779878943027 5359.823008847255
1014.379759754418 5410.513007151898
1015.2813078286254 5352.671252347243
1016.18263218213 5173.410316562057
1017.0837328801026 5297.688821741396
1017.9846099876886 5411.367925882684
1018.8852635700023 5227.168024633171
1019.7856936921362 5071.853554854173
1020.6859004191447 5331.830254150476
1021.5858838160675 5185.052373762261
1022.4856439479063 5167.6565966541
1023.3851808796389 5057.742178587339
1024.2844946762143 5150.506163311208
1025.183585402554 5074.813360885785
1026.082453123554 5001.3665267996
1026.9810979040776 5173.121691522099
1027.8795198089647 5046.966452103289
1028.777718903024 5113.313894913256
1029.6756952510368 4973.613976238404
1030.5734489177648 4998.519769651155
1031.4709799679313 5042.134200710863
1032.3682884662358 5154.679596650322
1033.2653744773506 4980.840008518134
1034.1622380659192 4914.649338886497
1035.058879296559 5022.289394552575
1035.9552982338591 5141.240347426445
1036.8514949423825 5006.808941911518
1037.7474694866614 5028.630730724554
1038.6432219312028 4994.265992155766
1039.5387523404825 5052.726240923746
1040.4340607789582 5112.60495876572
1041.3291473110476 5068.757125691027
1042.2240120011465 5206.1694204740525
1043.1186549136273 5139.414864058382
1044.0130761128294 5080.916775755572
1044.9072756630649 5170.109834566706
1045.8012536286205 5271.909839655484
1046.6950100737577 5214.086366175217
1047.588545062701 5314.962028652749
1048.481858659663 5281.5941178318935
1049.3749509288118 5388.525595776042
1050.2678219343034 5256.823112528647
1051.1604717402515 5346.603524214189
1052.0529004107575 5076.829898209424
1052.9451080098825 5277.693972941586
1053.8370946016694 5175.778858263016
1054.7288602501267 5337.263567979304
1055.6204050192446 5171.889079772382
1056.511728972977 5399.520073977616
1057.402832175254 5342.164023264662
1058.2937146899785 5175.36768775647
1059.1843765810263 5224.106837949658
1060.0748179122456 5338.295881461475
1060.9650387474576 5268.233994592107
1061.855039150456 5221.574425005499
1062.7448191850071 5188.709629848105
1063.6343789148505 5129.0563538652605
1064.5237184037014 5240.644057008434
1065.412837715241 5087.327486707818
1066.3017369131267 5054.032149784003
1067.190416060992 5108.726592705578
1068.0788752224398 5008.142253306256
1068.9671144610438 5071.6297094751235
1069.8551338403558 5237.018271851756
1070.7429334239023 5269.14368416777
1071.6305132751695 4979.548514565833
1072.517873457633 5119.926593522267
1073.4050140347335 5118.2404416861555
1074.2919350698776 5065.967525759179
1075.1786366264623 4932.2966318294575
1076.0651187678395 5085.860523273416
1076.95138155735 4977.642470417268
1077.8374250582929 4882.6554751771355
1078.7232493339507 4946.49901166426
1079.608854447577 4947.865853597386
1080.4942404623907 4903.02883632076
1081.3794074415982 4986.255091730602
1082.2643554483657 4956.98849936503
1083.149084545841 4953.223714717593
1084.033594797138 4775.241658687815
1084.9178862653516 4804.341387358044
1085.8019590135427 4932.113405454818
1086.6858131047484 4772.500659352924
1087.5694486019802 4883.469872874014
1088.4528655682225 4867.00754475334
1089.3360640664287 4994.106467823631
1090.2190441595321 4780.293216167096
1091.1018059104317 4927.787524045775
1091.98434938201 4986.532043817708
1092.866674637111 4894.202572594802
1093.748781738559 4809.678872759268
1094.6306707491512 4844.2315410471765
1095.5123417316554 4877.460630801909
1096.3937947488157 4859.695517936526
1097.2750298633455 4828.806587407989
1098.156047137938 4821.555098031473
1099.0368466352556 4891.049528876805
1099.9174284179317 4868.630333921419
1100.7977925485757 4795.9792297807335
1101.6779390897755 4869.8616715777
1102.5578681040806 4814.275673069127
1103.4375796540226 4881.562447889915
1104.3170738021054 4875.176220840696
1105.1963506108077 4678.7218024325275
1106.0754101425773 4711.908185483583
1106.9542524598382 4811.521894672771
1107.8328776249855 4734.726891690562
1108.7112857003904 4745.941602801018
1109.5894767483987 4686.156830586094
1110.4674508313292 4927.18829244369
1111.3452080114657 4944.79776318123
1112.2227483510815 4928.743924543432
1113.1000719124077 4943.042057021759
1113.9771787576592 4939.763347151906
1114.854068949022 5043.721661703806
1115.7307425486542 5154.113551866708
1116.6071996186893 5079.689375920667
1117.483440221229 5481.390694349993
1118.3594644183577 5166.737384281749
1119.235272272128 5368.658276099704
1120.1108638445658 5443.632961164787
1120.9862391976712 5665.63761059215
1121.8613983934229 5513.367888162715
1122.7363414937627 5475.972870953371
1123.6110685606182 5605.842474407128
1124.485579655884 5718.24683273131
1125.359874841426 5689.523052786015
1126.2339541790916 5710.9811299595185
1127.1078177306936 5946.919298362615
1127.9814655580267 5830.5439137356425
1128.854897722851 5859.545667895893
1129.7281142869106 5910.628945617418
1130.6011153119125 5897.55919868055
1131.473900859548 6056.219261540622
1132.3464709914697 5904.282228700183
1133.2188257693178 5857.9744324516905
1134.0909652546961 5785.046824466717
1134.96288950919 5731.57006466345
1135.8345985943506 5800.276377891865
1136.7060925717087 5581.445067345672
1137.57737150277 5640.8878804086
1138.4484354490069 5596.333936886447
1139.3192844718778 5494.943073211495
1140.1899186327992 5328.049977076687
1141.060337993178 5500.329291876724
1141.930542614382 5272.5703499029
1142.8005325577597 5306.939406550255
1143.670307884635 4924.197312309587
1144.5398686563003 5201.987334729835
1145.409214934025 5155.951424456161
1146.2783467790541 4897.3645296035465
1147.1472642526023 4984.036492973931
1148.0159674158622 5009.881139655232
1148.8844563300026 4896.969585599185
1149.7527310561618 4658.407732714013
1150.6207916554504 4724.618894637347
1151.4886381889592 4639.868470407899
1152.3562707177498 4754.274184895776
1153.2236893028585 4640.826738778428
1154.090894005296 4568.140536474119
1154.9578848860474 4603.87600971842
1155.8246620060709 4475.979834984739
1156.6912254262988 4514.078260860203
1157.5575752076438 4571.352473166084
1158.42371141098 4695.141323693221
1159.2896340971656 4592.7104421698905
1160.1553433270346 4625.828910337056
1161.0208391613887 4660.498521984371
1161.8861216610057 4570.515246078171
1162.75119088664 4566.068564561355
1163.6160468990201 4493.102042662614
1164.4806897588442 4469.0012778879145
1165.3451195267917 4586.308911665203
1166.2093362635114 4669.239653599676
1167.0733400296285 4548.591857874004
1167.9371308857444 4486.4494636188
1168.8007088924278 4485.9159337145875
1169.6640741102328 4668.836603094558
1170.5272265996773 4506.559904973684
1171.390166421259 4302.462843650452
1172.252893635452 4656.7711983199915
1173.1154083026995 4655.668618012043
1173.977710483421 4562.743117945775
1174.8398002380145 4532.608398465201
1175.7016776268483 4705.633518336957
1176.563342710264 4563.533929712237
1177.4247955485826 4516.243877098462
1178.2860362020947 4639.433920295564
1179.147064731069 4577.261575053108
1180.0078811957483 4676.972764220898
1180.8684856563486 4619.085482261054
1181.7288781730604 4670.696591034133
1182.589058806052 4713.129817150103
1183.4490276154593 4864.711422198894
1184.3087846614017 4692.487468842246
1185.1683300039676 4766.135002711687
1186.027663703222 4921.7535359025605
1186.8867858192025 4866.484622324782
1187.7456964119228 4867.512563109071
1188.6043955413716 4892.864270771426
1189.4628832675116 5043.915612637517
1190.3211596502842 4961.153371361992
1191.179224749596 5114.035000944141
1192.0370786253388 5006.535841174707
1192.8947213373758 5164.192848091347
1193.7521529455407 5299.640139281859
1194.6093735096438 5150.399201313988
1195.466383089477 5113.167289726932
1196.3231817447977 5128.616948721145
1197.1797695353398 5193.724437924648
1198.0361465208189 5138.423539921664
1198.8923127609214 5144.93142337658
1199.7482683153048 5198.248212831494
1200.6040132436028 5306.79991153997
1201.459547605431 5157.395751452372
1202.3148714603722 5098.412645579867
1203.1699848679855 5183.280274618895
1204.0248878878065 5308.87762593107
1204.8795805793507 4953.228165630348
1205.7340630020935 5166.791270319296
1206.5883352155033 5167.874221382781
1207.4423972790064 5048.766692689936
1208.2962492520237 5100.810694743002
1209.1498911939307 5166.266866904803
1210.0033231640937 5042.758495492768
1210.8565452218427 5018.361984690627
1211.7095574264913 4880.641122162962
1212.5623598373222 4858.0479711026
1213.4149525135963 4818.793672950504
1214.2673355145507 4846.552028002252
1215.1195088993936 4821.781082299023
1215.9714727273113 4712.490014444301
1216.8232270574663 4978.331582098789
1217.6747719489904 4626.088144706946
1218.5261074609934 4749.089379242263
1219.3772336525653 4794.775218492987
1220.2281505827668 4881.4530310189275
1221.0788583106296 4762.108588734517
1221.9293568951707 4678.57085510238
1222.7796463953746 4631.798515807219
1223.629726870202 4695.970476955539
1224.4795983785934 4767.3103957234125
1225.3292609794553 4687.041392290524
1226.1787147316809 4524.619195882986
1227.0279596941327 4578.470163646382
1227.8769959256424 4602.503620384459
1228.7258234850306 4722.869586732291
1229.5744424310833 4519.263758721451
1230.422852822563 4638.345137376933
1231.2710547182105 4828.859383664915
1232.119048176739 4689.392049319301
1232.9668332568417 4516.923790246301
1233.8144100171812 4633.142658855236
1234.6617785163999 4689.9671672426375
1235.508938813111 4517.682854869107
1236.3558909659114 4510.899041018955
1237.2026350333617 4663.284626267883
1238.049171074008 4651.018057548808
1238.8954991463652 4481.941305019726
1239.741619308932 4485.562687697485
1240.587531620169 4578.748817460573
1241.4332361385277 4670.953038335008
1242.2787329224248 4521.881431022506
1243.1240220302534 4529.92381195528
1243.9691035203869 4499.039229848697
1244.813977451171 4615.810727106504
1245.6586438809263 4635.313077962315
1246.5031028679496 4374.896574365805
1247.3473544705157 4570.454418690703
1248.1913987468706 4608.013037622036
1249.0352357552383 4338.329719155962
1249.8788655538228 4434.8849866918345
1250.7222882007918 4626.8330531593465
1251.565503754302 4606.113272829326
1252.4085122724755 4381.446426162887
1253.2513138134182 4572.009752058302
1254.0939084352049 4545.165983536249
1254.9362961958905 4501.050909081778
1255.7784771535007 4451.622593607896
1256.6204513660432 4516.7793386117055
1257.4622188915 4672.799332706894
1258.3037797878242 4521.624672802374
1259.1451341129468 4501.854204904148
1259.9862819247755 4557.8808157956555
1260.8272232811978 4361.625057877072
1261.6679582400666 4690.778093326391
1262.5084868592203 4295.820039600611
1263.34880919647 4423.771575375306
1264.1889253095997 4541.71358897917
1265.0288352563712 4548.408332615307
1265.8685390945266 4461.41461543959
1266.7080368817751 4485.918443538331
1267.5473286758115 4555.13716647437
1268.386414534294 4597.23025691314
1269.2252945148703 4304.11918770284
1270.0639686751547 4442.655033082278
1270.9024370727402 4413.136138539978
1271.7406997651997 4347.26976101877
1272.5787568100714 4289.513255042942
1273.4166082648808 4370.530999708383
1274.2542541871244 4413.19053922646
1275.091694634275 4506.371247829419
1275.9289296637817 4295.128047186472
1276.7659593330663 4362.228644529511
1277.6027836995308 4264.342319180953
1278.4394028205552 4397.82380208858
1279.2758167534867 4350.71886739326
1280.112025555658 4387.295676872483
1280.9480292843746 4296.244491967859
1281.7838279969128 4293.875101365696
1282.6194217505326 4279.824834159315
1283.4548106024686 4205.893123380044
1284.289994609926 4212.217018647011
1285.1249738300921 4368.27568774401
1285.959748320127 4243.608105209607
1286.7943181371702 4318.072063214935
1287.6286833383328 4330.1568889257405
1288.4628439807038 4325.162575297811
1289.2968001213521 4172.193097466864
1290.1305518173194 4235.151477232792
1290.9640991256183 4276.079174343273
1291.7974421032523 4349.449091709832
1292.630580807183 4314.199713681703
1293.463515294361 4375.809547593421
1294.29624562171 4399.066654595914
1295.12877184613 4156.530695816845
1295.961094024493 4247.239458594849
1296.79321221365 4387.514864832032
1297.6251264704333 4448.426032152634
1298.4568368516466 4654.972121787194
1299.2883434140658 4470.00828960887
1300.1196462144526 4335.794930855926
1300.9507453095375 4474.378792551969
1301.7816407560313 4442.834753878287
1302.6123326106172 4539.06903014704
1303.4428209299622 4307.944222082899
1304.2731057707024 4540.769785991831
1305.1031871894502 4341.5900693458725
1305.933065242798 4549.851855289218
1306.7627399873181 4514.582723134176
1307.5922114795467 4879.779371150064
1308.4214797760123 4711.409946887939
1309.2505449332057 4555.645612858393
1310.0794070076026 4681.8084718272385
1310.9080660556538 4674.559312361714
1311.736522133786 4651.593739969351
1312.5647752983987 4604.848603427226
1313.3928256058734 4608.23884176709
1314.2206731125661 4624.1626906455995
1315.048317874809 4750.895080047203
1315.8757599489109 4632.849132136764
1316.7029993911547 4756.2682800086895
1317.5300362578055 4860.218192103094
1318.356870605101 4492.0329237090755
1319.183502489257 4683.02872796335
1320.0099319664623 4668.989090104149
1320.836159092889 4639.363918596782
1321.66218392468 4712.198590591792
1322.4880065179532 4581.397708646841
1323.3136269288134 4660.171010420369
1324.1390452133292 4657.887587873301
1324.9642614275563 4672.954553730045
1325.7892756275214 4676.8461112077575
1326.6140878692295 4509.454281004428
1327.4386982086617 4840.984836554909
1328.2631067017755 4695.08141570597
1329.0873134045069 4632.502245036679
1329.911318372764 4717.342829633153
1330.735121662441 4574.367838994291
1331.558723329399 4554.895116507678
1332.3821234294774 4523.437195867297
1333.2053220185007 4649.733968292043
1334.0283191522612 4576.588785625367
1334.851114886529 4692.76684139264
1335.6737092770582 4510.241074899761
1336.4961023795695 4530.57524712715
1337.3182942497697 4594.265996157947
1338.1402849433325 4583.037178766953
1338.962074515921 4389.109982462298
1339.7836630231632 4411.4509897328635
1340.6050505206676 4748.518408241691
1341.426237064028 4628.8321234650775
1342.2472227088037 4352.4594374517665
1343.0680075105338 4454.591119346135
1343.888591524741 4457.5374741342885
1344.7089748069138 4561.439741432825
1345.5291574125276 4468.591483663739
1346.3491393970307 4258.392499215107
1347.168920815846 4536.717338844914
1347.9885017243778 4448.7632333195215
1348.8078821780036 4451.0613953211
1349.6270622320844 4461.0983569519885
1350.4460419419447 4257.166019644664
1351.2648213629054 4486.791206572554
1352.0834005502438 4264.809037217675
1352.90177955923 4371.174572183849
1353.7199584451064 4632.280290838875
1354.5379372630887 4434.163354662448
1355.355716068374 4328.934658658746
1356.1732949161305 4357.637404334571
1356.9906738615155 4263.985982330576
1357.8078529596478 4392.045648542013
1358.6248322656375 4421.84889578696
1359.441611834567 4297.430381454224
1360.2581917214866 4562.396287287029
1361.0745719814367 4243.8283767169
1361.890752669433 4200.62940426759
1362.7067338404577 4183.112521415111
1363.5225155494845 4436.195636710056
1364.3380978514506 4413.876650961255
1365.1534808012839 4144.474282062778
1365.9686644538815 4026.352876284239
1366.783648864117 4349.621425556759
1367.5984340868417 4322.413788078003
1368.413020176893 4339.055553687484
1369.2274071890715 4067.8404971457703
1370.0415951781652 4306.043528701479
1370.8555841989346 4111.678394385011
1371.6693743061223 4184.975685672753
1372.48296555444 4164.546641416438
1373.2963579985844 4282.991879499736
1374.1095516932255 4167.091064458467
1374.9225466930166 4063.315631998658
1375.7353430525782 4189.359594201779
1376.5479408265164 4119.181623508685
1377.36034006941 4168.584367814701
1378.1725408358216 4194.567500514173
1378.9845431802805 4097.0881313498285
1379.796347157304 4316.74175163277
1380.6079528213813 4267.929344321375
1381.4193602269788 4071.752712908473
1382.230569428546 4124.0081477369495
1383.0415804805016 4301.27240215671
1383.852393437246 4332.241742713434
1384.6630083531563 4234.399423785459
1385.4734252825892 4227.1953550673115
1386.2836442798798 4240.3650841471635
1387.0936653993322 4172.265539877057
1387.9034886952395 4175.580845885715
1388.713114221864 4403.305028219258
1389.5225420334482 4216.427062164873
1390.331772184214 4078.865262312776
1391.1408047283585 4035.4648964339467
1391.9496397200564 4009.214525230368
1392.758277213461 4216.001876962256
1393.5667172627054 4182.660867108547
1394.3749599218918 4034.1799522926945
1395.1830052451114 3862.277525922388
1395.9908532864265 4056.62551989053
1396.7985040998774 4198.627517882023
1397.6059577394808 3982.1494013810834
1398.4132142592352 4093.9536123104563
1399.2202737131156 3976.986128297497
1400.027136155073 4075.606487436923
1400.8338016390353 4022.359458905288
1401.6402702189134 4019.8270284329105
1402.446541948586 4079.011033506797
1403.2526168819204 3872.1801162691554
1404.058495072757 3933.249036452813
1404.8641765749107 3845.134650441369
1405.6696614421799 4007.4197002685405
1406.4749497283356 4268.12682402353
1407.280041487129 3953.7661235674204
1408.084936772295 3739.136193087995
1408.8896356375335 3980.902071090827
1409.6941381365323 3905.2195596740394
1410.498444322955 3778.4814553704855
1411.3025542504402 3858.1810658747745
1412.106467972606 3883.8129098370036
1412.9101855430508 3867.8600062267847
1413.7137070153458 3772.7932423268962
1414.5170324430437 3853.060894064619
1415.320161879672 3819.4262060380524
1416.1230953787435 4071.1800726566676
1416.925832993742 3767.5973702436145
1417.7283747781275 3678.6920301930018
1418.5307207853439 3799.570740720271
1419.3328710688093 3840.9485577949963
1420.134825681922 3562.420884660478
1420.9365846780584 3771.2358215492736
1421.7381481105713 3970.656001560631
1422.539516032788 3878.078942006128
1423.3406884980232 3643.1937322467834
1424.1416655595604 3652.780401136133
1424.942447270665 3600.5933030137676
1425.7430336845828 3775.8239874258497
1426.5434248545298 3617.4748147706878
1427.3436208337116 3746.001614822384
1428.143621675301 3940.759625700686
1428.9434274324558 3843.502400286852
1429.7430381583108 3630.5318026532236
1430.5424539059713 3670.8486572839756
1431.3416747285337 4196.219737297002
1432.1407006790632 3783.925137058789
1432.9395318106053 3702.4157008493194
1433.7381681761835 3717.0898038627683
1434.5366098288014 3908.890454129675
1435.3348568214424 3721.35797554267
1436.1329092070573 3721.6203962339437
1436.9307670385879 3833.8683089291867
1437.7284303689503 3792.210120786077
1438.5258992510335 3913.8278869526926
1439.3231737377118 3881.414573679815
1440.1202538818306 3726.3426797719717
1440.9171397362225 3724.117066328449
1441.7138313536925 3730.550964353958
1442.5103287870243 3592.8365143090596
1443.3066320889775 3697.3917566868076
1444.1027413122956 3832.9791293742155
1444.8986565096966 3694.741940127568
1445.694377733882 3686.0358413947242
1446.4899050375207 3512.039386455119
1447.2852384732687 3606.032131233767
1448.0803780937622 3674.7419603633557
1448.8753239516063 3533.0345305025535
1449.6700760993954 3453.6472656009255
1450.464634589689 3566.879791716618
1451.2589994750397 3662.920545254954
1452.0531708079689 3489.7917128505287
1452.8471486409799 3408.0987768615278
1453.6409330265524 3627.6412235653006
1454.4345240171442 3433.7576916225507
1455.2279216651987 3617.15129088011
1456.0211260231263 3586.7371541445405
1456.8141371433194 3754.9287033032115
1457.6069550781594 3421.603225517613
1458.3995798799897 3451.419854188276
1459.1920116011424 3470.2832505056867
1459.98425029393 3306.230507359225
1460.7762960106338 3505.722187695512
1461.5681488035225 3511.187389367492
1462.3598087248392 3470.013071568913
1463.1512758268036 3556.268747390893
1463.942550161617 3352.9253914797055
1464.7336317814625 3364.495867088287
1465.524520738496 3440.2792505343286
1466.3152170848552 3368.4181396472027
1467.1057208726506 3384.1038060507176
1467.8960321539817 3240.6972976510256
1468.6861509809169 3164.8685392149446
1469.4760774055085 3301.905480010629
1470.265811479785 3476.985315794807
1471.055353255755 3084.795756959928
1471.844702785409 3277.2838031677106
1472.6338601207044 3278.7243208905943
1473.4228253135934 3830.117516202383
1474.2115984159936 3380.6299684495666
1475.0001794798063 3016.642765191738
1475.7885685569145 3340.79903233925
1476.576765699172 3387.304140239088
1477.3647709584238 3256.148444491934
1478.1525843864802 3459.3909194325215
1478.9402060351367 3426.37186102345
1479.7276359561693 3438.536457362085
1480.514874201328 3328.34219708575
1481.3019208223468 3219.6343503331577
1482.0887758709323 3131.4119767672205
1482.8754393987747 3270.6502817231667
1483.6619114575406 3071.769084288545
1484.4481920988783 3381.6400932317074
1485.2342813744108 3305.334556068793
1486.0201793357446 3404.3915002639806
1486.8058860344572 3284.352639874675
1487.591401522117 3311.942729144512
1488.3767258502594 3206.6898273743764
1489.1618590704056 3202.298286308397
1489.9468012340494 3129.577823559121
1490.7315523926754 3310.6746421091384
1491.5161125977356 3368.7817517581484
1492.3004819006637 3213.118293771745
1493.084660352877 3141.203512498506
1493.8686480057622 3298.090190372442
1494.6524449106964 3471.823983569858
1495.4360511190262 3318.039358862461
1496.219466682087 3216.038290925427
1497.0026916511779 3456.324152319682
1497.7857260775945 3129.455425971156
1498.5685700125996 3223.980534657891
1499.3512235074395 3255.1737034706935
1500.133686613337 3173.8221962597427
1500.9159593814966 3173.3432368395083
1501.698041863101 3482.40312462328
1502.4799341093094 3128.908737155634
1503.2616361712662 3139.0071728225794
1504.043148100087 3388.5347363526334
1504.8244699468742 3397.4554591227434
1505.6056017626997 3185.6373710085286
1506.3865435986281 2994.086498905199
1507.1672955056893 3284.32483381148
1507.9478575348967 3201.404079837183
1508.7282297372512 3309.9558116463913
1509.5084121637192 3270.9594147470607
1510.2884048652577 3168.090681251801
1511.0682078927948 3181.138198513525
1511.8478212972423 3141.0763969149275
1512.6272451294917 3092.0936312618082
1513.4064794404076 3337.3449509275356
1514.1855242808433 3135.8681601659937
1514.9643797016215 3210.0747458789674
1515.743045753552 3255.710190324154
1516.5215224874191 3199.2262225377476
1517.2998099539836 2941.9585802421316
1518.077908203999 3148.144532675093
1518.8558172881785 3131.7538122155847
1519.633537257234 3185.084948912504
1520.4110681618404 3147.130973518767
1521.1884100526604 3307.134108158158
1521.9655629803365 3165.501496759388
1522.7425269954856 3405.3578627517027
1523.5193021487103 3265.9885250053094
1524.2958884905856 3081.0071114148564
1525.0722860716687 3168.51933593154
1525.848494942502 3255.4939299106227
1526.624515153595 3239.382036780179
1527.4003467554485 3277.898950876113
1528.175989798534 3307.2250864118264
1528.9514443333064 3156.2865124848677
1529.726710410203 3421.3096641311436
1530.5017880796331 3103.829041873398
1531.276677391992 3202.6223443579465
1532.0513783976457 3306.415806150403
1532.825891146953 3286.1829837003934
1533.6002156902414 3325.1492995761955
1534.3743520778207 3182.445584698725
1535.1483003599806 3251.05843256885
1535.9220605869923 3115.0485918081495
1536.6956328091019 3287.314025046304
1537.4690170765407 3301.406720208918
1538.242213439511 3457.6993394706806
1539.015221948208 3355.0221836917563
1539.78804265279 3167.1786897836
1540.560675603405 3026.254519501206
1541.3331208501804 3334.7345196273154
1542.1053784432224 3380.807622228035
1542.8774484326168 3403.092885626713
1543.649330868422 3359.1967484160587
1544.4210258006842 3380.0710694442796
1545.1925332794308 3258.121346617445
1545.9638533546604 3184.283158852647
1546.7349860763552 3128.0681016469184
1547.5059314944829 3406.108665575963
1548.27668965898 3296.563634750044
1549.0472606197673 3346.7567243045232
1549.817644426752 3171.802583598463
1550.5878411298072 3365.7819626857818
1551.3578507787988 3253.8887406731537
1552.1276734235635 3256.2748093544205
1552.8973091139233 3324.786606375032
1553.6667578996767 3291.305338156652
1554.436019830604 3401.6172336208983
1555.20509495646 3479.8464268942435
1555.9739833269869 3219.880017112704
1556.7426849919011 3161.717077577809
1557.511200000903 3473.570390850069
1558.2795284036674 3401.103234624318
1559.0476702498509 3417.7827330106943
1559.8156255890954 3461.11033154688
1560.5833944710157 3486.2048798277006
1561.3509769452048 3322.2966085491876
1562.1183730612447 3440.6539512377813
1562.8855828686865 3342.57138552555
1563.6526064170703 3561.069299786325
1564.4194437559127 3545.62950775695
1565.1860949347047 3287.1269273024127
1565.9525600029283 3552.5749761199995
1566.7188390100328 3689.3152372041745
1567.4849320054564 3464.4705978417696
1568.250839038612 3286.390787987949
1569.0165601588997 3311.0767120640658
1569.7820954156887 3424.166909426388
1570.5474448583373 3381.157694738853
1571.31260853618 3342.4635236230183
1572.0775864985299 3230.991917177273
1572.8423787946813 3423.887475869534
1573.6069854739108 3203.0029676484655
1574.371406585471 3448.1766906249204
1575.1356421785986 3448.2376858508724
1575.899692302506 3380.8391872483785
1576.6635570063845 3366.0500051180948
1577.4272363394157 3348.2850152989013
1578.190730350747 3282.6847362655453
1578.9540390895163 3227.345530212481
1579.7171626048384 3052.106516253986
1580.480100945806 3196.4806444956685
1581.2428541614918 3282.1696804546823
1582.0054223009538 3150.3439131615733
1582.767805413223 3316.2676408881516
1583.5300035473156 3291.2809059745473
1584.292016752228 3258.13352487491
1585.0538450769309 3309.1705875287603
1585.8154885703807 3235.167156251387
1586.5769472815136 3261.951553277244
1587.3382212592405 3345.8488009847033
1588.099310552463 3385.9813860416225
1588.8602152100484 3121.7223000464405
1589.6209352808564 3396.2783268107605
1590.3814708137234 3312.439234019578
1591.14182185746 3258.7286509972596
1591.9019884608679 3371.3938878346735
1592.6619706727215 3012.7594458312747
1593.4217685417734 3292.0348615352805
1594.1813821167616 3541.9569872226593
1594.9408114464022 3001.9105369397193
1595.7000565793933 3338.3819175077165
1596.459117564409 3341.749613402645
1597.2179944501113 3113.1959613132003
1597.9766872851324 3263.3656828037992
1598.735196118092 3405.9369284113245
1599.4935209975883 3383.339046079224
1600.2516619721973 3439.769286134027
1601.0096190904787 3167.4261627525952
1601.7673924009723 3293.0418047821645
1602.524981952196 3188.273126312398
1603.2823877926476 3179.656347349007
1604.0396099708087 3215.45321472389
1604.7966485351371 3061.953898838846
1605.5535035340745 3174.7036383367526
1606.3101750160404 3380.8525777816917
1607.0666630294363 3148.694996199026
1607.822967622642 2984.955162937101
1608.5790888440224 3000.670965984449
1609.3350267419137 3351.8666276965073
1610.0907813646445 3258.4441458760366
1610.8463527605145 3358.7783090378543
1611.601740977805 3186.6090600908515
1612.356946064785 3257.937248345282
1613.1119680696902 2953.5621700303486
1613.8668070407512 3028.8968484139837
1614.6214630261748 3100.310755470334
1615.375936074137 3161.729820764353
1616.1302262328118 3228.5151307051524
1616.8843335503425 3155.03700700516
1617.638258074854 3080.062972453242
1618.391999854457 3069.412822261372
1619.1455589372363 3226.6388197340348
1619.8989353712623 3302.1798408905356
1620.65212920458 2965.5666354935743
1621.4051404852235 3109.0003650422145
1622.1579692611976 3121.2124315329356
1622.9106155804966 3025.4781609861902
1623.663079491087 3150.2550333149743
1624.4153610409248 3222.84767660653
1625.1674602779385 3036.4989704103014
1625.9193772500403 2959.8021964239797
1626.6711120051277 3251.4004163188606
1627.4226645910676 3088.766100380226
1628.174035055721 2932.2884726573348
1628.9252234469168 3094.630247339229
1629.676229812474 3004.664799610434
1630.4270542001905 3442.5591253964253
1631.1776966578382 3197.977985806544
1631.9281572331747 2989.997512089062
1632.678435973945 3131.401521474252
1633.4285329278573 3198.3089146404245
1634.1784481426203 2967.1753327535316
1634.9281816659113 3183.363878404286
1635.677733545388 3191.189386177278
1636.4271038286934 3018.869030332655
1637.176292563452 3084.6923236614175
1637.9252997972635 3083.1013033428644
1638.674125577716 3216.4606329568637
1639.4227699523672 3499.5599880989357
1640.171232968767 2951.3030808466133
1640.9195146744423 3204.062953686114
1641.6676151168977 3204.5423670572404
1642.4155343436178 3125.1012319353367
1643.1632724020765 3218.627905196096
1643.9108293397167 3157.7130561371005
1644.658205203974 3077.7518645401483
1645.4054000422566 3490.279335559968
1646.1524139019566 3063.559871438868
1646.8992468304423 3204.839627817323
1647.6458988750728 3070.081525122439
1648.3923700831765 3283.9910401222223
1649.1386605020743 3076.8660563537014
1649.8847701790564 3182.2013619489
1650.6306991614038 3248.5333828030793
1651.3764474963682 3286.1834003566255
1652.1220152311944 2981.9652754007166
1652.867402413096 3180.0661278605307
1653.6126090892776 2985.892064924613
1654.3576353069184 3319.3214533169944
1655.1024811131829 3241.1855643797016
1655.8471465552066 3201.984896387992
1656.5916316801213 3330.7631395054295
1657.3359365350298 3151.751362062341
1658.0800611670165 3177.157188881774
1658.824005623148 3161.5970541287384
1659.5677699504722 2984.4351131272324
1660.3113541960192 3193.8706911677355
1661.054758406799 3144.1469760782147
1661.7979826297997 2900.2081414291847
1662.5410269119966 3007.443700995595
1663.283891300338 3274.0671236101884
1664.0265758417645 2952.0184888446283
1664.7690805831826 2974.4573097483626
1665.5114055714948 3169.3073194047165
1666.2535508535748 3350.8920531159974
1666.9955164762814 2771.6327482833913
1667.7373024864555 2995.2533282500085
1668.478908930916 2998.995384510774
1669.220335856462 2678.68694666537
1669.9615833098778 2900.73759236551
1670.7026513379296 2820.7932402465735
1671.44353998736 2930.038564945872
1672.1842493048916 2825.22629000885
1672.9247793372379 2837.315762487358
1673.6651301310812 2838.985196856619
1674.4053017330934 2710.997879182566
1675.1452941899242 2669.4103635295414
1675.885107548207 2402.5179196636373
1676.6247418545518 2605.4893656784297
1677.3641971555535 2698.4112767947818
1678.1034734977893 2769.098164570054
1678.8425709278108 2701.843528628189
1679.5814894921605 2840.5141971018875
1680.320229237359 2640.5075544991328
1681.0587902098978 2772.540024463267
1681.7971724562685 2667.0350963682877
1682.5353760229264 2733.5381075845444
1683.2734009563173 2569.4029109305197
1684.0112473028657 2431.7599927589717
1684.7489151089794 2623.1626037488286
1685.4864044210462 2682.6962021013674
1686.2237152854377 2482.9303314339336
1686.960847748498 2630.237941096764
1687.6978018565642 2591.127614727685
1688.434577655944 2445.5553177950615
1689.1711751929379 2539.8839654884146
1689.9075945138156 2521.903706658936
1690.6438356648396 2572.182097468053
1691.3798986922448 2250.1171961083996
1692.1157836422499 2549.7429798267067
1692.851490561059 2416.9742498938376
1693.587019494853 2471.8937646205272
1694.3223704897991 2230.5481335008117
1695.0575435920364 2206.2624575834225
1695.792538847696 2536.7292753262373
1696.527356302886 2470.015749326911
1697.2619960036936 2215.3592362555546
1697.9964579961907 2241.3018314183273
1698.730742326432 1867.1025985295266
1699.4648490404488 2099.4215769368425
1700.1987781842563 2239.7471606111094
1700.9325298038548 2375.1499910669004
1701.6661039452174 2427.893743232678
1702.3995006543082 2412.540567623786
1703.1327199770658 2381.110928021573
1703.865761959416 2210.1444041940995
1704.598626647261 2365.532380045406
1705.3313140864866 2153.3179317056392
1706.0638243229587 2317.9583660694157
1706.7961574025303 2437.9554566841725
1707.528313371029 2210.595962581786
1708.260292274268 1939.9297623807026
1708.9920941580403 2182.353922181569
1709.7237190681226 2319.9537684625457
1710.4551670502697 2259.9852259736203
1711.18643815022 1960.6620865039436
1711.9175324136959 2435.924255350061
1712.6484498863938 2111.166054260461
1713.379190614005 1987.8903545130038
1714.109754642188 2370.8446292906838
1714.8401420165883 2114.1851803357085
1715.570352782839 2359.8731946752514
1716.3003869865497 2258.548094261804
1717.0302446733076 2151.1206592350545
1717.7599258886876 2103.1143342633195
1718.4894306782444 2348.2394242708733
1719.2187590875183 2140.402564846784
1719.9479111620203 2136.992030916993
1720.6768869472544 2182.1971366853013
1721.4056864887025 2273.17113728
1722.1343098318284 2287.878315835459
1722.8627570220742 2097.8516745529096
1723.591028104871 2004.3159674619656
1724.3191231256242 1972.9203331291592
1725.0470421297232 2071.443180428573
1725.7747851625427 2130.082595358342
1726.5023522694337 2147.215821530735
1727.2297434957363 2189.8284497190098
1727.9569588867635 1800.5065157988677
1728.6839984878152 2265.1622136461474
1729.4108623441734 1895.1836164937754
1730.1375505011038 2189.3263776122008
1730.8640630038426 1965.8612282855713
1731.5903998976264 2040.2620764092553
1732.316561227657 2155.9524008785
1733.0425470391274 1953.0268599540123
1733.7683573772065 2080.571217999071
1734.4939922870508 2003.3111870362695
1735.2194518137949 1997.3061819197362
1735.9447360025606 2079.5096729479237
1736.669844898439 2006.2324150385866
1737.3947785465189 2063.8914343220404
1738.1195369918605 1835.8500438247004
1738.8441202795093 1887.7766122104094
1739.5685284544943 2068.8995555061156
1740.292761561821 2064.156823904884
1741.0168196464838 2197.164083026344
1741.7407027534518 2034.4877373584218
1742.464410927687 2031.1179041812034
1743.187944214118 2013.9906075103743
1743.9113026576688 1917.8645810324826
1744.634486303241 1979.2419753439804
1745.3574951957125 1994.714184114342
1746.0803293799509 2023.4292672173628
1746.8029889008048 1909.007438048408
1747.5254738031017 2083.6291360500604
1748.2477841316504 1928.2372848671907
1748.969919931249 1915.4948734748134
1749.6918812466665 1815.3127330789375
1750.4136681226646 2195.7657088419005
1751.1352806039777 2066.246706128167
1751.856718735331 1878.3293467175517
1752.5779825614281 1996.111882661143
1753.2990721269507 2059.7926815555716
1754.0199874765676 2182.8057916636744
1754.7407286549314 1743.3539313863807
1755.4612957066693 1892.678017189664
1756.1816886763954 1928.117382422512
1756.9019076087097 1966.5290660281994
1757.6219525481865 2093.163822328993
1758.3418235393856 2026.3928677542353
1759.061520626854 1947.6121920069309
1759.7810438551096 1960.2933577366898
1760.5003932686614 1926.6845589054665
1761.2195689119999 2067.9362128693315
1761.938570829594 1823.3616160454071
1762.657399065898 2006.4942203488492
1763.376053665348 1948.0326032124322
1764.0945346723602 1882.5746939213454
1764.812842131334 2061.825041586083
1765.5309760866512 1798.2243844909567
1766.2489365826787 1919.6343390535653
1766.9667236637597 1950.6482858815998
1767.684337374223 1705.446982203183
1768.401777758383 1669.2765132469212
1769.1190448605284 1902.918150400738
1769.836138724937 1874.1356059974726
1770.5530593958665 1986.4938631979658
1771.2698069175603 2065.76238575146
1771.9863813342326 1986.2038699175205
1772.702782690094 1883.2997568662806
1773.4190110293293 2028.563167996825
1774.1350663961111 2099.7890683983906
1774.8509488345844 1847.0111037079416
1775.5666583888924 1955.4069543388377
1776.2821951031437 2075.0473767827984
1776.9975590214362 2054.0781775194655
1777.7127501878585 2206.7395797059166
1778.4277686464684 1926.4951070074944
1779.1426144413108 2065.859828259646
1779.8572876164162 1995.4434607780781
1780.571788215797 1957.1392252025112
1781.2861162834415 1990.374056925301
1782.0002718633277 1960.9844634286449
1782.7142549994132 1917.0343581452576
1783.4280657356376 1951.1065095962447
1784.141704115922 1814.9137092999413
1784.855170184177 1909.256519495481
1785.5684639842839 1980.1923150923965
1786.2815855601148 1747.1421775815863
1786.9945349555237 1978.984372306836
1787.707312214343 1804.7590892569085
1788.4199173803918 2050.969355529648
1789.132350497468 1794.0810643494053
1789.8446116093583 1783.6891786119352
1790.556700759822 2030.2462276778901
1791.2686179926077 1667.154377930528
1791.9803633514493 1852.3261767557397
1792.6919368800554 1836.4583746029025
1793.4033386221236 1969.1061405203957
1794.1145686213295 2042.3310772006766
1794.8256269213307 2150.0387813736306
1795.536513565774 1988.4898059100517
1796.247228598284 1710.1719252458984
1796.9577720624693 1847.3693420687346
1797.6681440019165 1813.1149165895545
1798.3783444602013 1854.3962497892971
1799.0883734808776 1892.387673975747
1799.7982311074884 2066.290880270318
1800.5079173835475 1775.2891105042768
1801.2174323525633 1905.4101139629606
1801.9267760580187 1866.3183380131486
1802.635948543386 1912.202735932847
1803.3449498521113 1891.9276473525656
1804.0537800276325 1926.198519850519
1804.7624391133668 1965.4726544216796
1805.47092715271 1702.421678751692
1806.1792441890484 1813.790835072994
1806.8873902657433 2001.6781086788365
1807.5953654261448 1838.715066428981
1808.3031697135812 1730.3768544906004
1809.0108031713662 1862.971901121716
1809.71826584279 1822.6698712794102
1810.425557771141 1848.844333789196
1811.1326789996747 2111.5209159723377
1811.839629571632 1877.651185346788
1812.5464095302468 1751.0039123791194
1813.2530189187182 2043.782187761734
1813.959457780249 1788.4312643994358
1814.6657261580076 2105.612282311518
1815.371824095153 1788.2497826605663
1816.0777516348262 1979.5679513046675
1816.78350882015 1585.0462935610478
1817.4890956942272 1653.6037655535808
1818.1945123001533 1744.8825792770367
1818.8997586809928 1883.1883214943177
1819.6048348798067 1810.5136147717792
1820.3097409396287 1894.4898424361077
1821.0144769034796 1923.9678926712809
1821.7190428143622 1773.8012973680084
1822.423438715261 1994.4437103179346
1823.1276646491478 1794.424032173268
1823.8317206589727 1887.3453464368988
1824.5356067876692 1786.1594482808355
1825.2393230781581 1863.8842774607663
1825.942869573335 1660.8661256524927
1826.646246316086 1789.8585334264262
1827.3494533492758 1843.23680141911
1828.052490715756 1947.140486539983
1828.7553584583547 1782.748084381939
1829.458056619891 1875.0072237300337
1830.1605852431585 1725.7708316230114
1830.8629443709433 1733.9960950916563
1831.5651340460063 1877.9652976613015
1832.2671543110919 1833.344509738074
1832.9690052089318 1829.2737286957613
1833.6706867822395 1698.7455141622013
1834.3721990737104 1945.7156062665938
1835.0735421260233 1944.8195965795362
1835.774715981841 1938.3358038712747
1836.4757206838058 1959.3758102298575
1837.1765562745459 1539.8098301438072
1837.8772227966747 1648.8389229050804
1838.5777202927839 1850.7573509574697
1839.2780488054523 1819.2365850757328
1839.9782083772352 1804.0908747361195
1840.6781990506806 1986.268880294505
1841.378020868313 1706.3769271857043
1842.0776738726418 1941.1105263604081
1842.777158106157 1826.345703533767
1843.4764736113375 1696.5822546807547
1844.1756204306403 1931.8625240824051
1844.8745986065078 1816.7256287650314
1845.5734081813607 1661.791524204557
1846.2720491976124 1598.9444478201488
1846.970521697649 1692.3268555712039
1847.6688257238511 1803.4325301627025
1848.3669613185684 1846.805895990477
1849.0649285241452 1657.0427124591602
1849.7627273829057 1870.4296454464682
1850.460357937156 1975.9954337665574
1851.1578202291857 1906.9039817953508
1851.8551143012664 1838.2480447007656
1852.5522401956569 1906.0396680603221
1853.2491979545957 1901.9033901164723
1853.9459876203055 1646.6394633883715
1854.6426092349902 1617.2185616783179
1855.3390628408451 1725.9301760635985
1856.0353484800362 1842.7104551561958
1856.7314661947203 1876.892352713458
1857.4274160270397 1665.7929756332837
1858.123198019115 1674.8955178242327
1858.8188122130487 1699.5896316245714
1859.5142586509319 1848.163859306548
1860.209537374838 1849.6041153654376
1860.9046484268183 1720.0406949162248
1861.599591848917 1866.3148959179348
1862.294367683151 1751.292726559436
1862.988975971528 1684.7545782649534
1863.6834167560355 1789.491000237826
1864.3776900786452 1914.3863780756033
1865.0717959813119 1693.5758264314877
1865.7657345059724 1846.5011564522094
1866.4595056945564 1711.7661697127755
1867.1531095889586 1885.9957116481607
1867.846546231076 1757.3236533049032
1868.5398156627743 1907.5048094701651
1869.2329179259123 1811.9779026995748
1869.9258530623283 1859.0987817848647
1870.618621113843 1710.713365472772
1871.3112221222636 1534.8247130483624
1872.0036561293764 1657.2269883730692
1872.695923176956 1784.1741373043874
1873.3880233067594 1911.2948488397979
1874.0799565605212 1663.61580172719
1874.7717229799673 1743.3006936903107
1875.4633226068036 1908.6628634849465
1876.1547554827175 1820.2054231491322
1876.8460216493859 1687.459678457108
1877.5371211484617 1760.4230373709956
1878.2280540215852 1890.0999530451304
1878.9188203103804 1590.624847893982
1879.6094200564548 1870.0465958595025
1880.299853301396 1525.7151745527874
1880.9901200867826 1894.1987117590445
1881.6802204541673 1738.4506088742496
1882.3701544450942 1761.936686660755
1883.059922101087 1700.9541911369583
1883.7495234636517 1858.7562993066163
1884.4389585742792 1683.7195238435484
1885.1282274744517 1683.0672961736386
1885.8173302056166 1728.7695076006191
1886.506266809225 1774.5354400227243
1887.195037326701 1528.4260179696046
1887.8836417994517 1802.8918597981979
1888.5720802688702 2031.2959599962614
1889.260352776333 1748.273396030682
1889.9484593632042 1758.5744999704777
1890.63640007082 1752.7991389878996
1891.3241749405151 1643.0060207221686
1892.0117840135954 1706.3011056231378
1892.6992273313572 1675.382420710276
1893.3865049350788 1635.409221748383
1894.0736168660223 1898.5895796303707
1894.7605631654333 1792.8907703109198
1895.4473438745408 1529.2371248873555
1896.133959034556 1772.8561235046927
1896.820408686679 1683.7285189084173
1897.506692872088 1886.0769533019054
1898.192811631945 1669.4325955682398
1898.8787650073991 1778.8855308634525
1899.5645530395832 1870.4381208702102
1900.2501757696118 1849.9733407280764
1900.9356332385796 1691.021737895118
1901.620925487574 1909.984303518267
1902.3060525576602 1787.3976538694928
1902.9910144898859 1943.539019591629
1903.6758113252872 1635.514174036636
1904.3604431048789 1721.9192335547643
1905.0449098696663 1814.021506235958
1905.7292116606295 1711.1334561689703
1906.4133485187394 1783.3418260474828
1907.0973204849488 1766.5441819569446
1907.7811276001976 1749.6725509444236
1908.4647699053967 1767.0592656767853
1909.1482474414588 1489.1280234972419
1909.8315602492694 1477.6899504199105
1910.5147083696957 1700.418227135328
1911.1976918436012 1812.1813904711641
1911.880510711815 1728.95164145565
1912.5631650151681 1656.571904416493
1913.2456547944657 1760.0577198828664
1913.927980090495 1658.0143649455608
1914.6101409440362 1747.783240597602
1915.2921373958416 1640.986475602752
1915.9739694866603 1655.1321138448468
1916.655637257214 1782.162938069509
1917.3371407482136 1733.533320189065
1918.0184800003572 1738.541249635604
1918.6996550543154 1762.97849861826
1919.3806659507554 1736.3562939274514
1920.0615127303208 1768.0839269626995
1920.7421954336423 1900.063772652774
1921.4227141013343 1848.1311131394948
1922.103068773993 1678.0367766561599
1922.783259492202 1862.198558975926
1923.4632862965227 1605.4500535326151
1924.1431492275078 1739.6360177229167
1924.8228483256917 1669.052591863549
1925.5023836315922 1779.3865590119792
1926.1817551857057 1582.8786211427778
1926.8609630285227 1856.923537137522
1927.5400072005123 1788.3857858493207
1928.218887742125 1547.6410319487236
1928.8976046938005 1526.6603231416925
1929.5761580959588 1718.5858034170753
1930.2545479890086 1720.4856958322805
1930.9327744133352 1689.5835738665016
1931.6108374093164 1887.2851715082343
1932.2887370173066 1955.461137028502
1932.9664732776473 1925.198289510315
1933.6440462306673 1894.7956706415716
1934.3214559166754 1566.991878700428
1934.9987023759659 1805.1961474771094
1935.675785648813 1720.8836347600422
1936.3527057754836 1783.830035108084
1937.029462796223 1846.9275462151024
1937.70605675126 1591.4201636926728
1938.3824876808085 1739.6648946615467
1939.058755625072 1460.6987400171417
1939.7348606242267 1662.580332777551
1940.4108027184448 1703.630770876248
1941.0865819478713 1828.8647082004245
1941.7621983526478 1603.275081572519
1942.4376519728921 1496.8737930756429
1943.1129428487038 1544.5798258032607
1943.7880710201734 1838.0917779687315
1944.4630365273733 1742.051253830337
1945.1378394103576 1419.6942451195648
1945.8124797091714 1398.9801844888361
1946.4869574638324 1378.176072744936
1947.161272714353 1613.9162536182557
1947.8354255007234 1708.1069775396104
1948.5094158629272 1636.1979572966816
1949.1832438409183 1750.8517979944986
1949.8569094746435 1736.9285827000288
1950.530412804037 1786.9375101204503
1951.2037538690092 1856.430062123598
1951.8769327094578 1592.052455229462
1952.5499493652678 1793.5749809366396
1953.222803876306 1690.9798251114157
1953.895496282421 1608.5818961859275
1954.5680266234522 1649.662006982843
1955.2403949392155 1697.5496129386127
1955.9126012695142 1462.6463903530787
1956.5846456541403 1679.225303751336
1957.2565281328643 1561.1879684330618
1957.9282487454457 1618.9195827595859
1958.5998075316202 1956.4494639874392
1959.27120453112 1751.4702523768829
1959.9424397836501 1663.7452098813496
1960.613513328908 1893.4585003397085
1961.2844252065697 1902.8245555835542
1961.9551754563017 1706.9839006802547
1962.6257641177453 1578.559685563247
1963.29619123054 1581.6054312886802
1963.966456834296 1472.4353410288606
1964.6365609686181 1361.1060413370503
1965.306503673086 1462.8116367993982
1965.976284987275 1564.590142672026
1966.645904950734 1489.4732311559642
1967.315363603002 1448.7516479288265
1967.9846609836077 1680.2605534973015
1968.6537971320486 1732.2223823979068
1969.3227720878222 1570.8628146408223
1969.9915858904042 1534.8116352675208
1970.660238579252 1738.8661050915002
1971.3287301938108 1663.4444942468458
1971.997060773514 1487.2433224994027
1972.665230357772 1606.9027215692663
1973.3332389859843 1410.020884827465
1974.0010866975335 1620.2946126394218
1974.6687735317864 1691.1392443322034
1975.3362995280932 1815.7177633219424
1976.003664725793 1649.295442211902
1976.6708691642052 1401.950097983774
1977.3379128826364 1638.7279593727992
1978.004795920373 1725.358572203886
1978.6715183166925 1602.8131540510494
1979.3380801108524 1480.1228891934675
1980.0044813420973 1640.5915436757107
1980.6707220496555 1500.942375998448
1981.3368022727373 1642.8702530876458
1982.0027220505417 1695.1907992066845
1982.66848142225 1284.5052814843357
1983.3340804270283 1437.9582427172354
1983.999519104027 1724.0916327773946
1984.6647974923835 1924.5250333765846
1985.329915631215 1680.3599773596547
1985.99487355963 1693.0558776764476
1986.6596713167146 1838.545040973401
1987.3243089415428 1663.904331934757
1987.9887864731754 1838.7407762530906
1988.6531039506553 1561.815539289964
1989.3172614130071 1783.301721538352
1989.9812588992481 1706.0168682913568
1990.645096448372 1651.8932382058435
1991.3087740993633 1490.3683165615862
1991.9722918911848 1555.591278643084
1992.635649862792 1622.982247201202
1993.2988480531185 1800.1976123733107
1993.9618865010852 1935.1285031589919
1994.6247652455968 1508.776643737259
1995.287484325545 1510.4169779064798
1995.9500437798033 1694.666866534048
1996.6124436472292 1717.5934015316245
1997.2746839666706 1740.6130160309629
1997.936764776954 1669.0395751752894
1998.598686116895 1767.3621735819556
1999.2604480252903 1827.9206400403066
1999.9220505409212 1564.012511437593
2000.5834937025593 1380.6504285518952
2001.2447775489582 1586.8668780475462
2001.9059021188514 1682.1057886078797
2002.5668674509616 1550.5418550700056
2003.2276735839987 1647.6982802135767
2003.8883205566508 1675.7146919090737
2004.5488084075987 1541.4934855149197
2005.2091371755014 1465.0032564145881
2005.8693068990033 1589.2042061844481
2006.5293176167397 1722.0008260827599
2007.1891693673224 1316.206792931795
2007.848862189354 1428.5208957889017
2008.5083961214223 1652.323951457231
2009.1677712020955 1508.648235770802
2009.8269874699254 1410.540240375132
2010.4860449634598 1825.1421931906218
2011.1449437212177 1785.8355658595908
2011.8036837817108 1746.5172910869078
2012.4622651834325 1660.0717413223388
2013.1206879648653 1599.648355400284
2013.7789521644736 1492.3605969106852
2014.4370578207036 1384.7552371770194
2015.0950049719922 1594.3263898078042
2015.7527936567585 1546.0831716916794
2016.4104239134067 1622.2840338279789
2017.067895780323 1916.549141797485
2017.725209295886 1871.041305688276
2018.3823644984514 1825.361194143087
2019.0393614263648 1531.505751895595
2019.6962001179545 1370.8454052793
2020.3528806115355 1700.727956129523
2021.0094029454067 1318.0377917786411
2021.6657671578487 1634.8982653352948
2022.321973287133 1625.4446841300191
2022.9780213715148 1633.1732811224988
2023.6339114492293 1524.0983338754472
2024.2896435585026 1621.049852921648
2024.9452177375442 1631.2326138608828
2025.600634024544 1575.7679959093061
2026.2558924576842 1706.946736208704
2026.9109930751292 1617.9501908157188
2027.565935915025 1471.2194359844698
2028.2207210155066 1759.1824515634878
2028.8753484146964 1667.5746845917681
2029.529818150695 1698.6460223540562
2030.1841302615903 1729.7091278469366
2030.8382847854573 1591.4080253859015
2031.4922817603601 1366.1174665078606
2032.1461212243357 1630.7462237850177
2032.7998032154192 1310.2529979172182
2033.4533277716218 1643.1201649702539
2034.1066949309443 1460.060633567876
2034.7599047313688 1651.5253698718127
2035.4129572108704 1804.6827288733925
2036.0658524074006 1765.2945547402433
2036.7185903589016 1579.2759336540162
2037.3711711032956 1565.1146932998413
2038.023594678496 1552.1533975795587
2038.675861122394 1328.240903987738
2039.3279704728757 1521.0907416723453
2039.9799227678031 1481.911557036496
2040.6317180450278 1442.7340851174379
2041.2833563423865 1615.6017876114704
2041.9348376977014 1557.6241497932292
2042.5861621487784 1483.8497981365558
2043.2373297334088 1522.364997386252
2043.8883404893695 1527.3607387437266
2044.5391944544208 1719.8546176903474
2045.1898916663158 1621.8890442927718
2045.8404321627804 1681.3480424383692
2046.4908159815368 1525.792775100987
2047.1410431602853 1393.4327524904
2047.7911137367173 1285.482016850541
2048.441027748504 1533.9616520855438
2049.090785233302 1466.2371860410472
2049.7403862287592 1384.954252994988
2050.389830772503 1777.4971187965252
2051.0391189021466 1691.8488964002142
2051.688250655294 1606.1971397382217
2052.337226069527 1539.67434997809
2052.986045182417 1664.5314090892625
2053.634708031521 1338.0196335562082
2054.283214654375 1582.6355166336184
2054.931565088511 1225.2105847320115
2055.579759371436 1348.2444506090646
2056.2277975406523 1481.5934896429812
2056.8756796336384 1376.3629981731776
2057.5234056878617 1270.8144089749626
2058.1709757407752 1389.1643524103551
2058.8183898298194 1485.8940262339877
2059.465647992416 1512.2702558362016
2060.1127502659747 1660.9094067520175
2060.759696687888 1454.8451576583043
2061.4064872955405 1773.4659539387164
2062.053122126292 1672.8581690260028
2062.699601217497 1615.9616242446032
2063.345924606485 1559.141378191271
2063.992092330587 1602.7729965704407
2064.638104427102 1464.9317208160915
2065.283960933324 1680.0964977861688
2065.92966188653 1768.2555756137037
2066.5752073239855 1687.2019735440795
2067.2205972829397 1618.5939687219131
2067.86583180062 1549.9367563527908
2068.5109109142522 1464.1698341480353
2069.15583466104 1540.5470347804007
2069.8006030781708 1616.9968828337283
2070.445216202821 1580.144306604166
2071.089674072153 1726.763888692849
2071.7339767233116 1637.4570068878254
2072.3781241934303 1554.9268728007632
2073.0221165196253 1654.9861229074643
2073.6659537390024 1508.5182962581634
2074.3096358886505 1678.4774933618305
2074.953163005637 1398.2084059215751
2075.596535127028 1289.2471832619308
2076.2397522898664 1350.748573202728
2076.882814531182 1532.617661400797
2077.5257218879924 1567.9912965343096
2078.1684743973 1370.55193470442
2078.8110720960885 1281.8786275495718
2079.453515021336 1630.618139515224
2080.095803209997 1532.7281852817757
2080.7379366990135 1595.6362263076487
2081.37991552532 1469.9218420247023
2082.0217397258275 1505.1820997383295
2082.6634093374414 1419.5950843141966
2083.3049243970418 1609.3241015881104
2083.9462849415067 1557.2959489397008
2084.587491007689 1631.0664097191286
2085.2285426324324 1513.422793656692
2085.869439852564 1729.6093012989083
2086.510182704902 1639.1716482029904
2087.1507712262483 1548.5824410982736
2087.791205453381 1326.3189138208086
2088.4314854230743 1499.0220288412306
2089.0716111720867 1474.7213537415441
2089.7115827371617 1269.2219988374084
2090.351400155023 1312.743578425272
2090.991063462385 1356.4092370407393
2091.6305726959527 1427.6021264339543
2092.2699278924047 1776.4557300676522
2092.9091290884153 1555.4489850024477
2093.548176320641 1401.761504598901
2094.187069625721 1378.7383029780312
2094.8258090402887 1421.230043619089
2095.464394600951 1464.9889169525086
2096.102826344313 1567.5173697882449
2096.741104306955 1393.0527956639346
2097.379228525453 1218.202780755148
2098.017199036358 1405.5748729941247
2098.6550158762147 1735.9601686732174
2099.2926790815527 1530.1946153318693
2099.9301886888825 1670.0425932602889
2100.5675447347076 1671.8219648019563
2101.2047472555114 1799.0656880057536
2101.841796287761 1381.505468747586
2102.47869186792 1614.294234310894
2103.1154340324265 1345.2890048666911
2103.752022817709 1429.3758966612327
2104.388458260184 1513.656820683702
2105.024740396251 1492.6997993317923
2105.660869262292 1330.970115038955
2106.296844894685 1701.4749303839503
2106.93266732978 1601.8439026510616
2107.5683366039284 1190.8114010165204
2108.2038527534532 1328.8826413169083
2108.8392158146726 1712.0987123047714
2109.4744258238843 1560.4794495518945
2110.1094828173755 1442.1789390077045
2110.744386831422 1722.2883518521362
2111.3791379022787 1548.4631452121266
2112.01373606619 1736.4991447718808
2112.648181359389 1484.8468962052489
2113.28247381809 1616.3457185586037
2113.916613478492 1397.7402668489174
2114.550600376786 1532.9706595934856
2115.1844345491445 1613.7487588917215
2115.818116031729 1454.9381333677063
2116.451644860679 1435.7575551258265
2117.085021072133 1438.4048092598453
2117.718244702204 1353.1246702415858
2118.3513157869984 1382.4270834612998
2118.984234362604 1357.9305579898064
2119.617000465092 1406.7430388584876
2120.249614130529 1397.4440097081338
2120.8820753949585 1388.1327289105297
2121.5143842944162 1394.1816823583029
2122.14654086492 1351.2373672054414
2122.7785451424734 1433.6649788422355
2123.4103971630702 1518.2756019010542
2124.042096962681 1603.2499840119735
2124.6736445772767 1304.4718622381902
2125.305040042802 1261.795402626873
2125.936283395191 1408.178778545251
2126.567374670365 1431.0719337935045
2127.198313904233 1329.9327873176592
2127.8291011326855 1350.6365742096382
2128.4597363916037 1371.2231749197265
2129.0902197168507 1352.5302987788034
2129.720551144279 1302.574172578777
2130.3507307097225 1551.276891399725
2130.980758449008 1764.0807258781995
2131.6106343979427 1751.4057764147826
2132.2403585923203 1738.6258942737982
2132.8699310679276 1622.1890414031068
2133.499351860526 1510.6032179605368
2134.1286210058715 1561.3038286688065
2134.7577385397053 1354.6375079441364
2135.3867044977487 1566.7327396089775
2136.0155189157176 1578.9684256649732
2136.644181829308 1518.698964782066
2137.2726932742025 1318.0897113390974
2137.901053286074 1316.0132744317875
2138.5292619005777 1313.9896524233577
2139.1573191533535 1351.5744519511377
2139.7852250800315 1502.4217240487385
2140.4129797162295 1502.5476113835623
2141.0405830975433 1268.388707869914
2141.6680352595613 1227.9848691510529
2142.2953362378576 1187.5175891951617
2142.9224860679915 1369.3362185843869
2143.549484785508 1277.095037308518
2144.1763324259373 1261.2487499950487
2144.803029024799 1245.3358584568434
2145.429574617594 1214.7476946413506
2146.0559692398165 1202.4275033764175
2146.682212926942 1189.9891190652188
2147.308305714432 1289.9238456552239
2147.9342476377333 1629.006870485355
2148.5600387322847 1521.7930845801804
2149.185679033506 1517.6205143150585
2149.8111685768017 1442.1830806721557
2150.4365073975678 1262.2082055121177
2151.061695531187 1448.353681084498
2151.686733013021 1502.1235630637545
2152.311619878423 1599.5775911498913
2152.9363561627342 1486.03819418468
2153.560941901278 1286.3556898387237
2154.1853771293663 1440.1643776794094
2154.809661882293 1624.8703920615087
2155.433796195348 1542.464468983374
2156.0577801037944 1428.9212667908619
2156.681613642895 1394.8362956895367
2157.3052968478896 1212.7257587697043
2157.928829754006 1556.7123454543816
2158.552212396462 1453.0729221177467
2159.1754448104566 1318.5395726970876
2159.7985270311783 1171.1100984143418
2160.4214590938027 982.3571499661266
2161.0442410334927 1135.3815137942884
2161.6668728853874 1417.896129771007
2162.289354684628 1235.6150700781789
2162.911686466332 1403.6489191544954
2163.533868265602 1445.0525926438365
2164.1559001175337 1664.0426220405504
2164.7777820572046 1491.5839538198704
2165.399514119681 1200.6626000994502
2166.021096340013 1184.7031869625316
2166.6425287532384 1285.7633601989105
2167.263811394385 1387.064354739563
2167.8849442984574 1532.947825568804
2168.505927500455 1469.9998193414435
2169.126761035366 1407.074568061367
2169.7474449381552 1419.2917275219475
2170.367979243778 1275.8984845686555
2170.9883639871823 1517.482018913337
2171.608599203293 1621.2877288059226
2172.2286849270276 1725.3501681914622
2172.8486211932886 1717.1196175493174
2173.4684080369625 1531.579830440903
2174.0880454929265 1345.5119199596913
2174.7075335960417 1274.5355845022427
2175.3268723811543 1299.2705041609977
2175.9460618831 1324.08654002556
2176.565102136701 1260.8195932812682
2177.1839931767627 1270.4405868043702
2177.802735038078 1280.1052537697935
2178.421327755432 1136.7016852479926
2179.0397713635866 1137.5250160640649
2179.658065897298 1138.308737648204
2180.276211391305 1328.126235610915
2180.8942078803357 1249.417301830537
2181.5120553991 1438.353809515826
2182.129753982299 1289.7751648950418
2182.7473036646206 1421.4317928899304
2183.3647044807367 1463.3789952026198
2183.9819564653044 1286.1584284762343
2184.599059652968 1461.5151903294127
2185.216014078367 1729.0416815275512
2185.832819776113 1644.035169143838
2186.4494767808137 1558.7328081490432
2187.065985127063 1490.0239271172018
2187.682344849436 1255.742880244036
2188.298555982501 1323.3059573241521
2188.9146185608097 1390.9011284026706
2189.530532618901 1362.1385606750198
2190.1462981912937 1292.5542089599703
2190.761915312507 1401.118468523168
2191.377384017036 1441.8457756049734
2191.9927043393654 1353.2341725847602
2192.6078763139667 1081.6961223948997
2193.2228999753006 1090.2894510228348
2193.837775357808 1098.9192446652992
2194.452502495922 1069.9361287559257
2195.0670814240602 1343.6187378798227
2195.6815121766285 1335.3773622721153
2196.2957947880186 1589.2763061157245
2196.9099292926057 1555.8470304457508
2197.523915724758 1522.3752022194205
2198.137754118825 1284.4211151703082
2198.7514445091456 1664.885800840647
2199.3649869300443 1673.6925254859011
2199.9783814158327 1682.590110500371
2200.5916280008096 1719.2287939736248
2201.2047267192593 1447.1434655330634
2201.8176776054515 1546.0401960973734
2202.430480693649 1255.0358909953623
2203.0431360180955 1385.952884253334
2203.6556436130195 1600.772455865434
2204.268003512645 1597.3592855228094
2204.8802157511727 1594.0091596841598
2205.492280362796 1469.0956836855303
2206.1041973816937 1370.4542433869321
2206.715966842032 1291.146110173957
2207.3275887779655 1208.7350379286172
2207.93906322363 1279.2249992065165
2208.550390213153 1452.463283372717
2209.1615697806465 1272.169525082084
2209.7726019602105 1257.0455244708073
2210.3834867859277 1241.6882719452262
2210.9942242918787 1441.4715292812155
2211.6048145121167 1279.6808257352236
2212.2152574806914 1347.3410923691176
2212.825553231638 1415.0750468864492
2213.435701798975 1779.308385873422
2214.045703216707 1416.6258049031317
2214.655557518832 1081.978386681793
2215.2652647393297 1033.3252158721157
2215.874824912169 1064.2013010244812
2216.4842380713 1396.483380440568
2217.09350425067 1335.6163823772877
2217.7026234842033 1367.2248245418264
2218.311595805819 1541.511163531686
2218.9204212494133 1244.9430014572783
2219.52909984888 1668.0702012096692
2220.137631638092 1621.1925494955974
2220.7460166509154 1574.1150687317536
2221.354254921198 1488.1569647590863
2221.9623464827764 1486.674507385212
2222.5702913694713 1265.3922646370565
2223.178089615096 1354.2786902087903
2223.7857412534486 1272.0671147735998
2224.39324631831 1134.9543203038056
2225.000604843457 1147.5125761356608
2225.607816862641 1336.0970732674443
2226.214882409611 1524.9172055275167
2226.8218015180973 1429.2038145251743
2227.4285742218217 1239.2407879484158
2228.0352005544864 1226.9554047292181
2228.6416805497847 1189.9845057409018
2229.248014241399 1309.399096580179
2229.8542016629945 1549.2436285019758
2230.460242848223 1333.2838867324144
2231.0661378307304 1619.1837629078022
2231.671886644139 1264.4436338979942
2232.277489322065 1375.6506839046674
2232.8829458981127 1091.5936155129505
2233.48825640587 1249.4060699178583
2234.0934208789095 1649.0702105523335
2234.6984393507955 1575.8874096403324
2235.3033118550793 1673.1890669248805
2235.9080384252975 1556.2569739652108
2236.5126190949723 1287.3851462946332
2237.1170538976166 1158.385306827458
2237.721342866729 1227.323087756881
2238.32548603579 1296.3755471783693
2238.9294834382763 1438.0212988815006
2239.533335107646 1248.6188469307167
2240.1370410773434 1570.8450918361973
2240.740601380803 1508.9477321220834
2241.3440160514474 1419.0533521391012
2241.9472851226783 1377.5628725996908
2242.550408627896 1178.5670787075537
2243.1533866004793 1268.671439896129
2243.756219073799 1358.9514021974178
2244.3589060812064 1138.8320100552062
2244.961447656049 1173.8157386079886
2245.5638438316564 1393.650446516869
2246.166094641343 1357.2419817357418
2246.7682001184166 1320.7980850731878
2247.3701602961664 1298.3856432891698
2247.971975207871 1482.1853502744602
2248.5736448867974 1546.0072414872643
2249.175169366197 1635.1598696947174
2249.7765486793123 1359.8252863756306
2250.3777828593684 1411.5541912259748
2250.9788719395783 1552.6854346817845
2251.579815953146 1544.800012711039
2252.1806149332606 1154.8174316622749
2252.781268913097 1419.8160387771882
2253.381777925817 1090.483462486795
2253.9821420045737 1001.4464428970439
2254.5823611825035 1519.6567312036866
2255.1824354927303 1438.310054628732
2255.782364968365 1415.3161133735173
2256.38214964251 1392.3344468152923
2256.9817895482483 1286.8637759944352
2257.5812847186553 1259.3402749228067
2258.180635186791 1231.8160291807221
2258.779840985704 1246.3914137811466
2259.37890214843 1279.0846024366776
2259.97781870799 1320.1406657658104
2260.5765906973957 1361.2809728642096
2261.175218149645 1342.8809579218191
2261.773701097718 1328.2017654408555
2262.3720395745895 1313.4621368318917
2262.970233613216 1181.4005925079598
2263.568283246548 1248.9431003112068
2264.1661885075137 1286.2329100834208
2264.763949429038 1422.0956033352738
2265.3615660440246 1380.5957372262114
2265.959038385374 1329.9339163378258
2266.5563664859637 1408.391869295389
2267.153550378669 1310.6357983029325
2267.7505900963424 1393.9210287876945
2268.3474856718312 1223.0527426227861
2268.9442371379664 1129.7095446956903
2269.5408445275643 1199.562075597698
2270.1373078734377 1474.3526199198473
2270.7336272083758 1465.2166231517658
2271.32980256516 1458.3455783275306
2271.925833976562 1451.4228402122096
2272.5217214753357 1555.6963887905717
2273.117465094223 1357.569907168629
2273.7130648659586 1232.8327238042132
2274.308520823257 1354.074514558487
2274.903832998827 1740.50473879848
2275.4990014253563 1665.8631905589332
2276.094026135528 1591.0472420231856
2276.6889071620117 1332.9770158647727
2277.2836445374614 1555.2390366719887
2277.878238294519 1384.746783003695
2278.472688465812 1333.162799782161
2279.066995083962 1281.4560608718073
2279.6611581815705 1533.6367120059226
2280.255177791232 1645.7586125041514
2280.8490539455233 1758.1232660807013
2281.442786677013 1562.1895321100556
2282.0363760182554 1543.4031258017592
2282.6298220017943 1253.6662249509866
2283.223124660155 1474.8430684700309
2283.816284025859 1317.2635741212794
2284.4093001314086 1765.7365028954027
2285.002173009292 1569.8909957022029
2285.5949026919952 1373.5822857953158
2286.1874892119777 1204.2289084751594
2286.7799326016993 1444.2113305700002
2287.3722328936 1307.423966744244
2287.964390120109 1214.3165690498884
2288.556404313642 1248.4901683606442
2289.1482755066027 1268.4610008734808
2289.7400037313873 1288.409875617608
2290.3315890203703 1486.732071608895
2290.9230314059205 1417.6150143075458
2291.5143309203904 1348.4299792607126
2292.1054875961236 1306.8840137975708
2292.6965014654506 1479.1671228065786
2293.287372560684 1363.3157090636323
2293.878100914131 1366.3350841910421
2294.468686558086 1369.4049024638985
2295.059129524827 1222.9876947807309
2295.649429846617 1643.1183827537006
2296.239587555716 1630.526592598874
2296.8296026843636 1375.2787536204246
2297.419475264791 1432.5035465541987
2298.0092053292137 1489.7460259569548
2298.598792909839 1255.7941616091368
2299.1882380388597 1253.5611732323446
2299.777540748455 1387.440819200052
2300.3667010707904 1521.4119997161595
2300.9557190380256 1419.6262653405927
2301.544594682302 1770.3337519773809
2302.1333280357503 1726.302696963549
2302.721919130485 1682.255051388934
2303.3103679986198 1581.9807140709327
2303.898674672242 1529.9961201357914
2304.486839183437 1365.3884406404425
2305.0748615642697 1516.5816285675116
2305.6627418468015 1274.5134631082553
2306.2504800630704 1440.696357424265
2306.8380762451143 1388.9749197530032
2307.425530424949 1475.573317461698
2308.012842634582 1562.3589859415108
2308.6000129060103 1700.4460749288082
2309.187041271214 1778.742023290186
2309.773927762164 1341.6517607590226
2310.3606724108213 1388.8397722962177
2310.9472752491274 1243.7884947010923
2311.5337363090184 1206.1472173511788
2312.120055622414 1464.2557131789497
2312.706233221221 1323.7097392349956
2313.2922691373424 1028.7790313159928
2313.8781634026564 1120.270943697646
2314.463916049037 1211.9692052132004
2315.049527108342 1492.9856449898757
2315.6349966124235 1545.7883294110143
2316.2203245931123 1343.1913389805072
2316.8055110822315 1667.3378169531602
2317.3905561115935 1498.2170273959266
2317.9754597129977 1400.6513629950025
2318.560221918229 1566.144707291895
2319.1448427590603 1473.4528763092953
2319.729322267256 1096.8055176397938
2320.313660474563 1613.285318541449
2320.8978574127195 2136.157384239989
2321.481913113452 1662.5384153363277
2322.0658276084705 1598.1137223635571
2322.6496009294806 1533.5465083665013
2323.233233108165 1599.3085296769386
2323.8167241762058 1417.2546209312643
2324.4000741652617 1383.9587838651632
2324.983283106987 1736.8677098810979
2325.5663510330232 1717.0962334406845
2326.1492779749933 1828.4160655934934
2326.7320639645204 1417.2457560075327
2327.3147090332004 1168.775892146377
2327.897213212629 1253.1849040851498
2328.4795765343843 1337.6147363112693
2329.0617990300307 1287.7320127560322
2329.643880731124 1357.0379341380199
2330.22582166921 1426.5029621789758
2330.807621875816 1491.9351330669792
2331.3892813824623 1492.3354217562553
2331.9708002206517 1492.8503545200965
2332.5521784218818 1788.127599342573
2333.133416017634 1667.5618408223581
2333.7145130393765 1473.6080571327277
2334.295469518571 1648.975378313888
2334.876285486658 1452.9297092411784
2335.456960975076 1285.501006884388
2336.037496015242 1374.9818906790072
2336.6178906385667 1464.692858631475
2337.198144876451 1661.7243707343725
2337.778258760278 1390.9363422757165
2338.3582323214214 1498.1863266920689
2338.938065591243 1605.6479718895694
2339.517758601087 1488.6782842289617
2340.0973113822965 1354.160230308396
2340.676723966193 1219.3077951905566
2341.255996384094 1394.9520971338495
2341.835128667295 1627.983726385694
2342.4141208470883 1622.7172594676645
2342.992972954751 1302.2269909845436
2343.5716850215467 1495.988183910778
2344.1502570787306 1426.3060381087198
2344.7286891575386 1356.4192697832423
2345.3069812892045 1348.905333811914
2345.885133504944 1407.396982698273
2346.4631458359618 1431.0509643814758
2347.04101831345 1566.1606917617676
2347.6187509685915 1622.9273702819926
2348.196343832553 1426.7806863650974
2348.7737969364935 1439.8663301559375
2349.351110311558 1154.3198562519378
2349.9282839888765 1377.0510374424698
2350.5053179995757 1421.7474775152507
2351.0822123747585 1532.2191946862931
2351.658967145526 1642.9475197884155
2352.2355823429643 1474.3066253794098
2352.812057998144 1628.3492521837866
2353.3883941421263 1354.1504556748591
2353.9645908059647 1621.0619142650983
2354.540648020693 1517.169627151508
2355.116565817336 1448.3348734419365
2355.6923442269126 1379.3662284430252
2356.2679832804224 1179.544128630412
2356.8434830088518 1400.0427369786717
2357.41884344318 1534.2267138885898
2357.994064614377 1259.3766843788735
