#exp_cfg={"servo_angle": 0.0, "laser_lim": 100.0, "servo_angle_to": 18.0, "laser_wup": 0.0, "bt_dev": "EnSpectr-25AE3", "laser_wdn_max": 0.0, "frames": 10.0, "servo_used": 0, "servo_calib_use": 0, "laser_wdn_min": 0.0, "servo_pix_from": 90.0, "cooler_tout": 300.0, "servo_angle_from": 0.0, "servo_calib": "[-1.9174921013161362e-09, 3.9322238269163779e-05, -0.27385609119055809, 653.59552119713567]", "laser_autoctl": 0, "servo_pix_to": 3682.0, "laser_pw": 100.0, "cooler_on": 0, "laser_volt": 4.0, "cooler_autoctl": 0, "cooler_curr": 70.0, "cooler_startup": 10.0, "laser_fixed_pw": 0, "gain": 1.3, "offset": 2.53059635486, "servo_calib_degree": 3.0, "laser_curr": 55.0, "shutter": 8200.0, "servo_calib_step": 1.0, "laser_fixed_curr": 0, "exp": 2000.0, "ccd_volt": 4.7, "bt_addr": "00:06:66:62:5A:E3", "servo_delay": 500.0, "laser_autooff": 1}
#proc_cfg={"flat_auto_wnd": 200.0, "flat_auto_fr": 200.0, "flat_auto_shift": 5.0, "yconv": 1, "flatten": 1, "flatten_strength": 100.0, "xfrom": 300.0, "auto_max_frame": 2000.0, "auto_signal": 48000.0, "flat_auto_tol": 0.1, "autoclip": 1, "xrel_range": 0.0, "flat_auto_to": 4000.0, "intensity_adj": 1.0, "xrel": 7852.0, "rmhot": 1, "flat_auto_slit": 4.999999999999997, "auto_ini_exp": 300.0, "auto_off": 0, "xto": 2860.0, "flat_auto_ref": "", "flat_auto_rank": 1, "autobackg": 0, "xrel_adj": 0.0, "auto_black_lvl": 1, "base_wnd": 100.0, "sub_baseline": 0, "xconv": 2, "auto_max_exp": 1000.0, "auto_total_exp": 10000.0, "auto_exp": 0, "rmripple": 0, "black_lvl": 8260.55, "shutter_clip_adj": 0.0, "auto_bckg": 0, "flat_auto_thr": 0.9, "subbackg": 1}
316.8218498245369 36813.33372090135
317.89969571804795 36850.69235340196
318.977263876126 36766.83648628665
320.05455438786703 36674.821344967866
321.1315673423287 36615.67220438831
322.2083028285215 36637.09241409515
323.2847609354267 36606.243090666525
324.3609417519747 36446.15239100109
325.43684536705587 36516.7921949213
326.5124718695279 36298.30623521669
327.58782134820103 36257.310267734036
328.66289389184385 36276.44652712828
329.7376895891921 36048.51186441835
330.8122085289342 36154.4295767625
331.88645079971866 36050.06448524064
332.9604164901575 35847.36993483487
334.03410568881554 35868.26759516583
335.1075184842266 36062.581935311595
336.18065496487543 35579.47990988118
337.2535152192122 35727.979279773936
338.32609933564163 35621.79581887329
339.39840740253203 35554.51536838383
340.4704395082099 35451.915518227266
341.5421957409617 35503.15529879196
342.6136761890357 35511.320243234964
343.6848809406365 35448.472603580754
344.75581008392874 35320.22093973912
345.82646370703696 35248.59024949975
346.8968418980512 35141.16925793325
347.96694474501055 35245.9863758934
349.0367723359268 35151.1270332649
350.106324758759 35114.62549296179
351.1756021014353 35085.89081263038
352.2446044518383 35082.3456262129
353.31333189781435 34985.76617309123
354.38178452716966 34978.13199921074
355.449962427665 34974.12841430251
356.51786568702846 34931.523408266534
357.58549439294256 35178.5639640888
358.6528486330535 34918.62334932155
359.71992849496564 34834.17386456419
360.7867340662433 34776.85966566901
361.8532654344144 34850.236744565256
362.9195226869597 34938.50725224932
363.9855059113288 34659.600730280596
365.05121519492604 34670.42886247802
366.11665062511565 34854.541406588876
367.1818122892273 34803.708026898494
368.2467002745434 34823.38508816217
369.31131466831175 34828.83682086159
370.375655557742 34827.22322068362
371.4397230299983 34766.39582089948
372.5035171722102 34613.202559439305
373.5670380714637 34583.00707264499
374.6302858148101 34705.76748117393
375.6932604892554 34658.7645535863
376.7559621817709 34706.92217959785
377.81839097928605 34573.92977806428
378.8805469686886 34581.47715684467
379.94243023683157 34570.57034160954
381.0040408705263 34579.602147622645
382.0653789565458 34384.51552265694
383.1264445816196 34559.80144542846
384.1872378324406 34547.48862986667
385.2477587956637 34603.449307676994
386.3080075579037 34507.96109062277
387.3679842057336 34479.92019575738
388.4276888256918 34408.058994267834
389.48712150426945 34381.749197459765
390.54628232792857 34447.955496784125
391.6051713830857 34328.41687606661
392.66378875611736 34351.853945621515
393.7221345333637 34295.16987025658
394.7802088011249 34273.14582255594
395.838011645661 34141.1604812584
396.89554315319765 34050.91132315244
397.9528034099112 34082.670238602055
399.00979250194723 34012.4966012623
400.06651051541485 33810.85477906773
401.1229575363741 33979.5768335345
402.17913365085224 33947.91465116784
403.23503894483656 34040.84711426699
404.2906735042761 33825.19517850838
405.3460374150818 33824.44773971805
406.401130763119 33768.92283681412
407.455953634224 33846.79019816923
408.5105061141876 33754.22142318329
409.56478828876243 33522.09341097646
410.6188002436629 33482.30486637571
411.6725420645689 33559.39271391685
412.72601383711117 33582.073590565626
413.77921564689314 33719.4853603852
414.8321475794728 33441.31489679573
415.88480972036814 33281.7690901996
416.93720215506437 33520.266582031254
417.9893249690049 33253.114813555774
419.04117824759123 33092.70071289792
420.09276207619223 33160.30172262017
421.144076540133 33188.79974988419
422.1951217247042 33083.89297997712
423.24589771515275 33119.89265761189
424.2964045966928 33054.89156819806
425.34664245449494 33092.419614708386
426.3966113736933 33068.45555915947
427.4463114393875 33055.155663600715
428.49574273662984 32898.12672760743
429.5449053504417 32971.937738686705
430.5937993658026 33041.06173237588
431.6424248676558 32865.15806558227
432.6907819409007 32896.164468593226
433.73887067040596 32821.56376149881
434.7866911409965 32835.67328694115
435.8342434374608 32875.128007114756
436.88152764455117 32698.855001527438
437.9285438469724 32677.33915583965
438.9752921294057 32570.076351142598
440.02177257648145 32575.676286901224
441.06798527279716 32536.203706867305
442.1139303029122 32647.54567395563
443.1596077513459 32737.469169113087
444.2050177025794 32671.04449939481
445.25016024105753 32609.934327608302
446.2950354511886 32532.003964985197
447.33964341733736 32440.75904915958
448.383984223834 32480.139816146984
449.4280579549686 32356.25511442275
450.471864694995 32492.603329025656
451.5154045281306 32419.59750681002
452.5586775385509 32270.61838621532
453.60168381039693 32296.142654802068
454.64442342776783 32392.14878669486
455.6868964747264 32333.831342733425
456.7291030353008 32217.361714728013
457.77104319347563 32276.79626926024
458.8127170332027 32245.308760849264
459.854124638392 32207.638138839364
460.895266092919 32238.572464292578
461.93614148061897 32358.022111118917
462.97675088529104 32341.288794124084
464.01709439069236 32369.220388096834
465.0571720805492 32252.0046883612
466.0969840385442 32250.524042927056
467.1365303483253 32266.077672363346
468.17581109350067 32132.818671152432
469.2148263576437 32070.62691621104
470.2535762242878 32110.02627962245
471.29206077693016 32216.435478108597
472.33028009902773 32153.98298628083
473.3682342740012 32310.322178932704
474.40592338523857 32278.713682727404
475.4433475160804 32166.57335648606
476.4805067498364 32138.758196517756
477.51740116978 32222.058299040993
478.5540308591426 32345.534395575156
479.59039590112116 32435.553617251677
480.6264963788726 32280.268668953086
481.6623323755193 32519.39862561937
482.6979039741436 32446.09812058523
483.7332112577915 32579.45342973316
484.76825430947247 32659.934634397603
485.80303321215797 32670.61796536926
486.837548048783 32667.64306002931
487.8717989022425 32809.80525881981
488.90578585539697 32859.569858686635
489.9395089910686 32934.250025421774
490.97296839203955 32778.31607065313
492.00616414106116 32726.05446379532
493.0390963208429 32566.342597873107
494.0717650140559 32837.386835053956
495.10417030333883 32615.329630646207
496.1363122712901 32496.24895423641
497.16819100046814 32385.999991245706
498.1998065734024 32299.202246061788
499.2311590725767 32187.429485300276
500.26224858044407 32046.359965017356
501.2930751794156 31897.544377943104
502.3236389518679 31881.099462081464
503.35393998014115 31709.03695654843
504.38397834653733 31718.181424910104
505.4137541333221 31581.412816241405
506.4432674227228 31679.676577867987
507.4725182969323 31506.183634059773
508.5015068381035 31340.662269213557
509.53023312835467 31384.460846315906
510.55869724976765 31414.81084934884
511.58689928438434 31148.79863529087
512.6148393142121 31168.279873225627
513.6425174212218 31282.01741655135
514.6699336873462 31360.57877935021
515.6970881944835 31338.09412311909
516.7239810244901 31078.80161547784
517.7506122591931 31049.710025847657
518.7769819803761 31132.48170485912
519.8030902697901 31041.485906262777
520.8289372091476 31167.899314562055
521.8545228801249 31197.950363255688
522.8798473643619 31039.52135696329
523.9049107434621 31088.26803431703
524.9297130989908 31072.479642728722
525.9542545124805 30970.022586585663
526.9785350654201 30963.927929198668
528.0025548392696 30795.77846588441
529.0263139154504 30749.486158733325
530.0498123753423 30919.28704294316
531.073050300296 30679.51085692657
532.0960277716204 30692.087485459087
533.1187448705896 30907.646242406256
534.1412016784416 30664.107729642717
535.1633982763833 30743.950884607788
536.1853347455726 30547.342481174448
537.2070111671401 30536.529405021487
538.2284276221817 30604.96816790488
539.2495841917516 30459.184193187924
540.2704809568677 30358.864295434953
541.2911179985167 30516.99791973482
542.3114953976419 30246.359072572046
543.3316132351592 30272.596824564855
544.3514715919409 30166.438263364522
545.3710705488247 30190.883772391157
546.3904101866156 30089.804001573393
547.4094905860784 30354.965577771807
548.4283118279418 30179.85773211347
549.4468739929034 30136.72365436376
550.4651771616191 29977.729826343497
551.4832214147063 30003.802858285846
552.501006832761 30092.398913241417
553.5185334963226 30043.924177191533
554.5358014859103 29964.286369597125
555.5528108820035 29956.67218343453
556.5695617650363 30057.297696406742
557.5860542154242 30201.89179922001
558.6022883135283 30045.955363477853
559.6182641396881 29891.10560910134
560.6339817741991 29928.85925978013
561.6494412973225 30061.005656407702
562.6646427892883 29973.44414549066
563.6795863302796 30003.82048509848
564.694272000459 29925.577704261486
565.7086998799423 29982.678029214032
566.7228700488104 29863.792998686276
567.7367825871115 29849.00693485909
568.7504375748576 29823.122400161163
569.7638350920224 29800.063387799328
570.7769752185486 29837.49455295367
571.7898580343353 29905.71305514903
572.802483619258 29674.532458931946
573.8148520531431 30001.632593180013
574.8269634157932 29880.76387599233
575.8388177869692 29781.593181468423
576.8504152463938 29793.267342293762
577.8617558737587 29846.110316901886
578.8728397487175 29814.637382891553
579.883666950891 29917.043825030025
580.8942375598654 29785.192247618143
581.9045516551851 30019.129543241834
582.9146093163617 30168.022906940903
583.924410622878 30061.16307067573
584.9339556541727 30024.500279401564
585.9432444896538 30063.53782581596
586.9522772086875 29867.213993004145
587.9610538906127 29999.88044389191
588.9695746147318 29941.454986890032
589.9778394603054 29989.81852645911
590.985848506567 29962.858195805173
591.9936018327098 30009.326452376634
593.0010995178891 29785.95449039636
594.0083416412344 29912.572041286076
595.0153282818283 29714.847535932873
596.0220595187293 29731.0218199969
597.0285354309508 29632.160199375463
598.0347560974806 29727.966595565355
599.0407215972609 29727.709092783964
600.0464320092051 29836.791993096384
601.0518874121954 29659.129790275776
602.0570878850685 29700.09532886698
603.062033506636 29683.255970293074
604.0667243556636 29649.09807175487
605.0711605108936 29546.217436965886
606.0753420510264 29753.932304014634
607.0792690547278 29653.413977793924
608.082941600629 29822.367750127083
609.0863597673306 29438.987589653356
610.0895236333909 29834.63051590544
611.0924332773357 29929.5109601687
612.0950887776617 29933.526041593403
613.0974902128219 30028.31999196702
614.0996376612384 30263.824704283255
615.1015312013005 30160.162514714313
616.1031709113595 30315.47966895164
617.1045568697336 30151.51008531276
618.1056891547069 30260.77270488317
619.1065678445229 30487.167674152653
620.1071930173985 30754.156930876594
621.1075647515099 30717.651035770436
622.1076831250048 30770.606611278596
623.1075482159849 30893.32108999848
624.1071601025305 30937.754532692266
625.1065188626781 31108.209515586954
626.105624574433 31307.982876633305
627.1044773157682 31211.44502817264
628.1030771646128 31342.19881952194
629.1014241988742 31360.279651846176
630.0995184964158 31582.853433975008
631.0973601350688 31566.001043939224
632.0949491926294 31820.363911916582
633.0922857468631 31483.44270468804
634.089369875499 31483.70799055393
635.0862016562278 31495.47015064324
636.0827811667077 31248.88668784058
637.0791084845641 31539.382397420537
638.0751836873878 31264.867120147177
639.0710068527369 31222.30136702075
640.0665780581294 30984.19029122236
641.0618973810506 30913.74732576263
642.0569648989604 30794.380188293395
643.0517806892676 30549.417682401825
644.0463448293649 30519.8882279797
645.040657396592 30436.288826267737
646.0347184682723 30364.058473542544
647.0285281216875 30132.012068187905
648.0220864340772 30109.265262772573
649.0153934826558 30030.314406237798
650.0084493446047 29978.619794020466
651.0012540970674 29808.595024050144
651.9938078171526 29797.65481755633
652.9861105819346 29714.575007817
653.9781624684565 29825.782745672284
654.9699635537254 29641.62256501137
655.9615139147136 29707.1990269329
656.9528136283589 29521.224900660884
657.9438627715699 29679.712392217392
658.9346614212154 29476.186737644523
659.925209654135 29341.800438108992
660.9155075471263 29387.944227777578
661.9055551769616 29272.902832234995
662.895352620375 29409.451683098734
663.8848999540678 29283.762789094937
664.8741972547068 29153.903165572632
665.863244598926 29227.097510251264
666.8520420633213 29161.264100277524
667.8405897244611 29270.925074520095
668.8288876588758 29048.07103022639
669.8169359430613 29274.849164225852
670.8047346534822 29092.49171227853
671.7922838665672 29034.731727646704
672.7795836587156 29014.241379355866
673.766634106285 29129.572361382867
674.7534352856092 28931.42197695258
675.7399872729766 28998.336350526748
676.7262901446538 29004.01980116415
677.712343976862 28917.76669020871
678.6981488457986 28999.341937398247
679.6837048276229 28821.668708317815
680.6690119984596 28764.0249348777
681.6540704344043 28669.901146357763
682.6388802115107 28612.480016447196
683.6234414058108 28658.42961687256
684.6077540932874 28566.809812738946
685.591818349907 28655.73257834247
686.575634251587 28518.80597238007
687.5592018742263 28443.660195857996
688.5425212936734 28390.38276089747
689.5255925857564 28324.059187197516
690.5084158262707 28346.76125057491
691.4909910909646 28388.59630326141
692.4733184555644 28321.329997649347
693.4553979957618 28344.61383930446
694.4372297872123 28516.42000660411
695.4188139055404 28435.64354542124
696.4001504263324 28119.56238717037
697.3812394251509 28271.107695254825
698.3620809775111 28091.350151969964
699.3426751589104 28334.076263778046
700.3230220448004 28187.569457593636
701.3031217106054 28361.59832012165
702.2829742317172 28279.025446703523
703.2625796834873 28120.308803718443
704.2419381412474 28037.22325598958
705.22104968028 28172.791061023723
706.1999143758458 28046.14708493235
707.178532303169 28063.879053563916
708.1569035374378 28019.401063807534
709.1350281538107 28138.753048496746
710.1129062274158 28181.994796293187
711.0905378333373 28335.63178875856
712.0679230466376 28172.69363341688
713.0450619423427 28469.60177830007
714.0219545954424 28574.106420752796
714.9986010808989 28550.68800774299
715.9750014736292 28754.954610467474
716.9511558485392 28927.645531187532
717.9270642804786 28853.76367962216
718.9027268442787 29149.481420096545
719.8781436147328 29044.074644800265
720.8533146666014 29002.62503253754
721.828240074612 28997.038925708173
722.8029199134635 29120.213417605217
723.7773542578125 28959.130820019713
724.751543182294 28937.907157066667
725.7254867615029 28722.420927101186
726.6991850700015 28728.950911710603
727.6726381823228 28639.824401355487
728.6458461729599 28741.059460642457
729.6188091163858 28594.71693946945
730.5915270870246 28530.78053597628
731.5640001592856 28305.666830238035
732.536228407529 28526.34593892734
733.5082119060917 28439.23326224724
734.4799507292755 28459.961416341357
735.4514449513481 28358.313339106273
736.4226946465496 28567.88533198823
737.3936998890786 28529.794150994712
738.3644607531078 28307.321638050616
739.3349773127793 28294.223378455743
740.3052496421951 28269.43799071291
741.27527781543 27960.565083881484
742.2450619065221 27889.901816344987
743.2146019894826 27677.05430326368
744.183898138288 27715.647916627164
745.1529504268801 27683.67399056386
746.1217589291682 27472.512304504526
747.0903237190341 27186.46032357701
748.058644870318 27451.754719199896
749.0267224568397 27200.712388011376
749.994556552374 27120.94173380067
750.9621472306771 27103.084742070623
751.9294945654583 27045.57030601888
752.8965986304011 26996.864937643048
753.8634594991636 27006.96185841108
754.8300772453586 26988.72171588301
755.7964519425768 26973.618694259872
756.762583664371 26948.844589812994
757.7284724842611 26874.10838631167
758.6941184757416 26748.714999794764
759.6595217122667 26870.146923999702
760.6246822672638 26812.818465403638
761.5896002141235 26809.611146580468
762.5542756262093 26746.626449646974
763.5187085768503 26735.91864897437
764.4828991393406 26736.082964261783
765.4468473869474 26742.83777814633
766.4105533929032 26617.02262486987
767.3740172304078 26674.22821237006
768.3372389726283 26645.848378923787
769.3002186926988 26553.146790431092
770.2629564637282 26469.067907015444
771.2254523587872 26657.28302547764
772.1877064509154 26399.51233636624
773.1497188131179 26344.330983396183
774.1114895183728 26217.21145343726
775.0730186396268 26281.257341996155
776.0343062497905 26216.20470310563
776.9953524217381 26038.371982853896
777.9561572283274 26137.834647973206
778.9167207423689 26161.97667097761
779.8770430366476 25933.624697974556
780.8371241839159 26060.148727181564
781.7969642568951 25932.01145278988
782.7565633282757 26265.66484066943
783.7159214707099 25899.217098486813
784.6750387568281 26130.264090969526
785.6339152592227 26008.15281438019
786.5925510504512 25933.60321578772
787.5509462030477 25842.23019223889
788.5091007895098 25887.32232878457
789.4670148823006 25882.22274663617
790.4246885538596 25850.818431539323
791.3821218765861 25753.49886747399
792.3393149228505 25787.35002622907
793.2962677649975 25753.089116729054
794.2529804753303 25815.852305229448
795.20945312613 25893.676887257676
796.1656857896378 25726.4761524748
797.1216785380675 25729.07676397747
798.0774314435985 25886.959641763562
799.0329445783846 25925.0722413111
799.9882180145414 25934.68642161687
800.9432518241574 25898.553787619694
801.89804607929 26095.884106702404
802.852600851962 26050.83586982867
803.8069162141637 26067.78617683246
804.760992237856 26059.551579006395
805.714828994971 26103.693317299018
806.6684265574077 26196.477828711842
807.6217849970271 26119.1938770467
808.574904385674 25934.263783841634
809.527784795142 26045.733726165734
810.4804262972102 26082.909899894184
811.4328289636178 26028.63774534153
812.3849928660748 25862.205769313186
813.3369180762638 25896.983681458732
814.2886046658241 25775.459930960642
815.2400527063783 25600.26651011558
816.1912622695108 25656.945884544286
817.1422334267718 25566.30175538948
818.0929662496856 25430.299385385137
819.0434608097457 25336.177447732705
819.9937171784059 25240.591846420448
820.9437354271013 25129.580652388307
821.8935156272255 25248.09195414409
822.8430578501484 25046.56739372917
823.7923621672016 24962.15317903735
824.7414286496896 25099.117256039353
825.6902573688876 24892.558567045446
826.6388483960363 24969.415921923446
827.5872018023492 24940.0741243671
828.5353176590033 24944.34772661271
829.4831960371503 24897.54966008373
830.4308370079016 24675.037858859978
831.3782406423525 24751.26087816238
832.3254070115545 24760.880868157838
833.2723361865319 24521.899043729503
834.2190282382799 24813.31760272032
835.1654832377644 24715.032842826513
836.1117012559116 24660.735510248076
837.0576823636256 24791.192835374466
838.003426631778 24503.167863720442
838.9489341312074 24337.982179527557
839.8942049327197 24570.702380007064
840.8392391070975 24619.98462740678
841.7840367250865 24564.452662257278
842.7285978573982 24374.064417491805
843.672922574724 24648.34418374384
844.6170109477152 24503.622409815685
845.560863046996 24532.7468856581
846.5044789431595 24303.70566074423
847.4478587067697 24376.520334202167
848.3910024083561 24571.537015339625
849.333910118421 24426.70920866686
850.2765819074339 24406.390436123613
851.2190178458332 24503.050127666873
852.161218004032 24436.473370952637
853.1031824524016 24469.63930460174
854.0449112612987 24252.511492147405
854.9864045010327 24444.707795396043
855.9276622418947 24228.509182023732
856.8686845541379 24265.61372787691
857.8094715079915 24246.338067231693
858.7500231736467 24490.96757073632
859.690339621271 24360.67834961677
860.6304209209939 24498.555119406123
861.5702671429244 24163.014210103865
862.5098783571284 24377.447689510784
863.4492546336569 24385.342464400757
864.3883960425155 24320.46420049929
865.3273026536863 24189.438590004364
866.2659745371238 24364.734087090095
867.2044117627465 24440.971889231765
868.1426144004472 24303.118475187737
869.0805825200823 24337.306949766502
870.0183161914847 24418.737458425538
870.9558154844526 24471.913367846133
871.8930804687552 24354.14230337808
872.8301112141307 24304.644464243374
873.7669077902865 24471.29889284244
874.7034702669062 24464.361336962138
875.6397987136315 24455.335951765715
876.5758932000863 24463.544213925583
877.5117537958522 24622.694085945124
878.4473805704911 24469.718764301862
879.3827735935283 24674.287927093275
880.3179329344603 24458.744835647587
881.2528586627541 24558.842590991266
882.1875508478479 24627.978029841164
883.1220095591489 24385.911456694877
884.0562348660296 24276.96448963276
884.9902268378391 24561.321796914068
885.9239855438955 24432.352332662493
886.8575110534839 24314.561616810824
887.7908034358588 24324.990651060685
888.7238627602474 24243.051054247397
889.6566890958475 24309.52653978683
890.5892825118208 24167.103879664435
891.5216430773125 24181.562177858075
892.4537708614189 24097.263388907722
893.3856659332196 23949.407566584985
894.3173283617652 23927.072783841846
895.2487582160684 23985.915538854875
896.179955565116 24047.05843841922
897.110920477864 23768.70888251672
898.0416530232451 23814.474315125386
898.9721532701478 23717.869358497268
899.9024212874428 23902.51400543325
900.8324571439662 23592.79083815894
901.7622609085302 23562.540078792463
902.6918326499072 23470.28183613372
903.6211724368477 23697.575726419975
904.5502803380696 23590.64549552687
905.4791564222614 23722.603009918075
906.4078007580792 23392.88276197351
907.3362134141571 23565.619276627585
908.2643944590909 23556.38792913455
909.1923439614493 23492.046137119134
910.1200619897754 23449.523825046268
911.0475486125779 23573.99401633945
911.9748038983344 23515.8972253745
912.9018279155007 23366.505803826996
913.8286207324982 23288.13059632901
914.7551824177117 23400.35317819236
915.6815130395116 23391.464954820018
916.6076126662283 23366.783889006918
917.533481366163 23457.370863234035
918.4591192075914 23378.806013819605
919.3845262587565 23384.279567601345
920.3097025878706 23326.82901783591
921.2346482631237 23201.057150327313
922.1593633526682 23428.526620289922
923.0838479246304 23272.77786136005
924.0081020471061 23332.67352698549
924.9321257881656 23222.399372306645
925.8559192158464 23208.94111531475
926.7794823981512 23178.94121668014
927.7028154030686 23249.993721702984
928.6259182985414 23103.527008922618
929.5487911524906 23299.645207590675
930.4714340328119 23237.529360948793
931.3938470073608 23156.44658302804
932.3160301439748 23160.497882085918
933.2379835104548 23161.323144828995
934.1597071745709 23188.02340678445
935.0812012040769 23161.965817680495
936.002465666681 23071.998834936698
936.9235006300696 23097.66111023317
937.8443061619055 23208.152304373878
938.7648823298077 22999.789143377
939.6852292013809 23093.13608433155
940.6053468441951 23279.311010322377
941.5252353257874 23020.069117856718
942.4448947136698 23036.613462167374
943.364325075323 22897.63686521863
944.2835264782043 23164.190936874573
945.2024989897309 22931.537582843353
946.1212426773054 23013.308490140902
947.0397576082851 22876.31382232035
947.9580438500125 23150.729555779355
948.8761014697939 23158.307074232325
949.7939305349064 23231.947845505085
950.7115311125999 22954.1010065909
951.6289032700952 22954.84447596837
952.5460470745875 23016.635074275484
953.4629625932339 23063.359038692935
954.3796498931715 23032.446632690007
955.2961090415029 23085.36101076754
956.2123401053068 22959.21107600517
957.1283431516276 22979.74341839593
958.0441182474842 22914.7446718362
958.9596654598663 23184.12388444767
959.8749848557309 22868.409337611163
960.7900765020167 22897.022244188694
961.7049404656209 22898.40148574751
962.6195768134185 22975.013742600742
963.5339856122537 22863.00028967299
964.4481669289453 22950.34729571823
965.3621208302793 22746.566156422345
966.2758473830145 22824.88307362004
967.1893466538822 22887.545263060223
968.1026187095813 22788.341115735002
969.0156636167867 22719.731074463547
969.9284814421426 22797.39141910685
970.8410722522622 22651.765298917446
971.753436113735 22783.791924209123
972.6655730931161 22663.885053621907
973.5774832569368 22756.07209638466
974.4891666716958 22624.70931501428
975.4006234038698 22617.84387766433
976.3118535198955 22639.87453996952
977.2228570861935 22761.555579576325
978.1336341691494 22647.785291574757
979.0441848351202 22569.73898752781
979.9545091504333 22702.443698165305
980.864607181391 22698.96054145846
981.7744789942699 22686.774687733454
982.6841246553086 22752.07670259932
983.5935442307236 22728.55383842963
984.5027377867027 22819.173899715955
985.4117053894024 22692.946481758234
986.3204471049557 22666.812932746943
987.2289629994648 22726.59012188498
988.1372531390007 22917.185928344796
989.0453175896091 22593.116017824646
989.9531564173067 22845.130369959832
990.860769688079 22587.22986918564
991.7681574678918 22781.816337364005
992.6753198226706 22820.504189019644
993.582256818323 22791.847488546588
994.4889685207218 22768.373005352987
995.3954549957143 23064.499006841164
996.301716309119 22835.38032748152
997.2077525267232 23029.898841402013
998.1135637142943 22844.886999485498
999.0191499375615 23047.962733971028
999.924511262232 22908.898002801132
1000.8296477539861 22959.027957154383
1001.7345594784656 22787.53420913179
1002.6392465012996 22950.07428839675
1003.5437088880753 22746.413900437932
1004.4479467043584 22791.74874278682
1005.3519600156869 22558.03306071886
1006.2557488875718 22703.458180690734
1007.1593133854858 22691.368594594136
1008.0626535748888 22836.33737766461
1008.9657695212009 22465.289180524218
1009.8686612898182 22893.71043790158
1010.7713289461135 22781.446247597327
1011.6737725554212 22727.11961468195
1012.5759921830577 22662.832078530533
1013.4779878943027 22735.83050637011
1014.379759754418 22567.688504611266
1015.2813078286254 22509.418333850837
1016.18263218213 22364.50279494166
1017.0837328801026 22579.34375056078
1017.9846099876886 22707.780351828198
1018.8852635700023 22408.299928006752
1019.7856936921362 22313.409556425497
1020.6859004191447 22587.309261976523
1021.5858838160675 22422.723092720298
1022.4856439479063 22410.856824122464
1023.3851808796389 22215.245489953242
1024.2844946762143 22424.02054395907
1025.183585402554 22342.26510206364
1026.082453123554 22296.35840566579
1026.9810979040776 22090.84484500347
1027.8795198089647 22289.036851811397
1028.777718903024 22347.446185028246
1029.6756952510368 22335.38050137493
1030.5734489177648 22163.686493628382
1031.4709799679313 22411.494359654826
1032.3682884662358 22246.97235217568
1033.2653744773506 22315.02317461739
1034.1622380659192 22253.20993746541
1035.058879296559 22451.5244826254
1035.9552982338591 22394.398735122926
1036.8514949423825 22376.20034867187
1037.7474694866614 22397.25567944756
1038.6432219312028 22459.634151644303
1039.5387523404825 22457.0390040379
1040.4340607789582 22522.240485016773
1041.3291473110476 22490.000543918628
1042.2240120011465 22766.999238464454
1043.1186549136273 22810.11583257823
1044.0130761128294 22613.304929304428
1044.9072756630649 22838.208322258015
1045.8012536286205 23062.194679450055
1046.6950100737577 22774.705603829807
1047.588545062701 22968.11460917569
1048.481858659663 22965.69698291153
1049.3749509288118 23113.311118999096
1050.2678219343034 22910.931188598806
1051.1604717402515 23073.713932879287
1052.0529004107575 22943.092166317852
1052.9451080098825 23057.744255733516
1053.8370946016694 22976.252795363547
1054.7288602501267 23050.596209857635
1055.6204050192446 22798.212527836433
1056.511728972977 23093.634801236785
1057.402832175254 22853.347660204032
1058.2937146899785 22709.522473262583
1059.1843765810263 22674.66716495449
1060.0748179122456 22878.10076648824
1060.9650387474576 22782.51133841314
1061.855039150456 22696.468615791724
1062.7448191850071 22753.053484736763
1063.6343789148505 22590.097542102856
1064.5237184037014 22679.49989456978
1065.412837715241 22608.596889024317
1066.3017369131267 22453.043354498317
1067.190416060992 22572.973462101938
1068.0788752224398 22405.637240940458
1068.9671144610438 22480.644638232938
1069.8551338403558 22416.91543029363
1070.7429334239023 22647.318629863345
1071.6305132751695 22417.058533210195
1072.517873457633 22526.173646834
1073.4050140347335 22307.471328580414
1074.2919350698776 22481.174245946575
1075.1786366264623 22333.204922734836
1076.0651187678395 22488.203810110183
1076.95138155735 22280.776300209705
1077.8374250582929 22422.226495213486
1078.7232493339507 22404.4102613931
1079.608854447577 22414.541651600368
1080.4942404623907 22374.797475267904
1081.3794074415982 22527.03932772578
1082.2643554483657 22278.32539254554
1083.149084545841 22479.091533316237
1084.033594797138 22194.81201006943
1084.9178862653516 22327.673369840486
1085.8019590135427 22329.14172004772
1086.6858131047484 22203.490929621425
1087.5694486019802 22430.540849736546
1088.4528655682225 22263.615930761564
1089.3360640664287 22458.73238973294
1090.2190441595321 22390.519616528552
1091.1018059104317 22359.198903094366
1091.98434938201 22550.30491364729
1092.866674637111 22394.902199280776
1093.748781738559 22457.757007705317
1094.6306707491512 22326.649315633684
1095.5123417316554 22357.637297190722
1096.3937947488157 22301.91167815903
1097.2750298633455 22449.98174255407
1098.156047137938 22384.417739391
1099.0368466352556 22517.496603082058
1099.9174284179317 22423.10889969245
1100.7977925485757 22259.659098537064
1101.6779390897755 22352.160024835575
1102.5578681040806 22354.70384541162
1103.4375796540226 22251.126392031132
1104.3170738021054 22416.86067516065
1105.1963506108077 22228.605637026372
1106.0754101425773 22231.418412039144
1106.9542524598382 22247.220048310475
1107.8328776249855 22213.237678717276
1108.7112857003904 22153.055813199153
1109.5894767483987 22185.489958609756
1110.4674508313292 22268.343895595284
1111.3452080114657 22279.719941621
1112.2227483510815 22096.370563461103
1113.1000719124077 22396.25850458831
1113.9771787576592 22311.657164750966
1114.854068949022 22418.668111018334
1115.7307425486542 22272.680126587216
1116.6071996186893 22515.997288273786
1117.483440221229 22569.3613365678
1118.3594644183577 22647.656607806184
1119.235272272128 22592.74131579665
1120.1108638445658 22975.137829332325
1120.9862391976712 23048.28665426994
1121.8613983934229 22970.554187901696
1122.7363414937627 22894.94633518648
1123.6110685606182 23088.591283977417
1124.485579655884 23075.433528795482
1125.359874841426 23205.802982553883
1126.2339541790916 23155.331725375796
1127.1078177306936 23261.090357303892
1127.9814655580267 23119.933183020657
1128.854897722851 23373.826033385885
1129.7281142869106 23445.64782825173
1130.6011153119125 23505.107590872165
1131.473900859548 23429.089824861825
1132.3464709914697 23290.644609267747
1133.2188257693178 23192.092158385967
1134.0909652546961 23382.165552893544
1134.96288950919 23182.571030838666
1135.8345985943506 23467.592213370986
1136.7060925717087 23177.64321259564
1137.57737150277 23286.504943046104
1138.4484354490069 23020.801254253256
1139.3192844718778 23070.880536509445
1140.1899186327992 22895.173925276096
1141.060337993178 22916.67152781874
1141.930542614382 22827.959620859478
1142.8005325577597 22876.711299334198
1143.670307884635 22543.201556973745
1144.5398686563003 22613.046243226076
1145.409214934025 22418.407587005044
1146.2783467790541 22364.65065070868
1147.1472642526023 22297.465710905002
1148.0159674158622 22429.03263132658
1148.8844563300026 22092.935063380068
1149.7527310561618 22244.424060294747
1150.6207916554504 22045.665096697387
1151.4886381889592 22181.752579920147
1152.3562707177498 22116.107364968422
1153.2236893028585 22140.59875212277
1154.090894005296 22022.195770962222
1154.9578848860474 22036.098994678454
1155.8246620060709 22039.64081105179
1156.6912254262988 22080.343899094587
1157.5575752076438 21978.627238018427
1158.42371141098 22191.601767717355
1159.2896340971656 21956.277570925096
1160.1553433270346 21778.313689862225
1161.0208391613887 21764.46362236647
1161.8861216610057 21955.44110771093
1162.75119088664 22045.200398025903
1163.6160468990201 21882.660565914328
1164.4806897588442 21757.77199774285
1165.3451195267917 22120.272571337875
1166.2093362635114 21855.76124341617
1167.0733400296285 22024.029657155676
1167.9371308857444 21819.104770781716
1168.8007088924278 22050.94973311169
1169.6640741102328 21864.023464045455
1170.5272265996773 21899.944904392793
1171.390166421259 21701.459504805774
1172.252893635452 22006.24740255405
1173.1154083026995 22059.285139543226
1173.977710483421 22041.51670475513
1174.8398002380145 21745.357237363583
1175.7016776268483 21904.80055585546
1176.563342710264 21908.59008574337
1177.4247955485826 21773.514354661624
1178.2860362020947 21794.47308440954
1179.147064731069 21913.584806081068
1180.0078811957483 21841.51010102686
1180.8684856563486 21855.763784144237
1181.7288781730604 21934.961789649464
1182.589058806052 22152.435061406308
1183.4490276154593 22043.266250911336
1184.3087846614017 21997.41024760098
1185.1683300039676 21893.071589191688
1186.027663703222 22267.758251769454
1186.8867858192025 22091.852971317836
1187.7456964119228 21961.856822272028
1188.6043955413716 22091.99693957672
1189.4628832675116 22135.249374286166
1190.3211596502842 22064.670728395322
1191.179224749596 22215.578145948635
1192.0370786253388 22058.36668980457
1192.8947213373758 22370.211713292607
1193.7521529455407 22293.050857245806
1194.6093735096438 22060.63886625239
1195.466383089477 22118.52210084967
1196.3231817447977 22272.789304489994
1197.1797695353398 22205.173718363865
1198.0361465208189 22116.697818594548
1198.8923127609214 22197.398905748178
1199.7482683153048 22237.525254119286
1200.6040132436028 22269.388359272285
1201.459547605431 22295.36529030202
1202.3148714603722 22027.622928773686
1203.1699848679855 22187.025477066523
1204.0248878878065 22140.32125110484
1204.8795805793507 22063.946099721532
1205.7340630020935 22061.99382287176
1206.5883352155033 22249.333363658843
1207.4423972790064 22039.841589495965
1208.2962492520237 21964.022868199652
1209.1498911939307 21975.85645413234
1210.0033231640937 22161.89129749646
1210.8565452218427 21801.973154295123
1211.7095574264913 21924.894174521636
1212.5623598373222 21636.54477238514
1213.4149525135963 21857.492337553147
1214.2673355145507 21871.936663203716
1215.1195088993936 21719.504905385307
1215.9714727273113 21615.154054446535
1216.8232270574663 21936.778678118506
1217.6747719489904 21583.448712645517
1218.5261074609934 21574.6402382216
1219.3772336525653 21618.551863877587
1220.2281505827668 21753.63432384818
1221.0788583106296 21756.346436871052
1221.9293568951707 21758.56090837411
1222.7796463953746 21569.58631549307
1223.629726870202 21671.116128520116
1224.4795983785934 21768.462424251244
1225.3292609794553 21689.308219156104
1226.1787147316809 21589.595748126307
1227.0279596941327 21988.24125547632
1227.8769959256424 21804.657626207474
1228.7258234850306 21755.38165684176
1229.5744424310833 21681.38104458124
1230.422852822563 21768.228664003036
1231.2710547182105 21793.71817471375
1232.119048176739 21685.344304754297
1232.9668332568417 21705.74732679433
1233.8144100171812 21836.98448493648
1234.6617785163999 21908.148159216766
1235.508938813111 21744.002567584277
1236.3558909659114 21860.325205886147
1237.2026350333617 21996.930715954317
1238.049171074008 22002.132376214435
1238.8954991463652 21868.520619095707
1239.741619308932 21613.171795669045
1240.587531620169 22038.230194967975
1241.4332361385277 21629.520380356207
1242.2787329224248 21597.30982125259
1243.1240220302534 21434.779287113633
1243.9691035203869 21623.173564470337
1244.813977451171 21568.490203585832
1245.6586438809263 21676.88645886007
1246.5031028679496 21237.186311669753
1247.3473544705157 21603.69410601127
1248.1913987468706 21599.547912103015
1249.0352357552383 21545.31130670729
1249.8788655538228 21496.106585363923
1250.7222882007918 21712.658881931427
1251.565503754302 21552.410811293368
1252.4085122724755 21622.445991418932
1253.2513138134182 21568.22692888234
1254.0939084352049 21497.40351932224
1254.9362961958905 21483.424068772547
1255.7784771535007 21492.42380708154
1256.6204513660432 21448.11929890053
1257.4622188915 21633.221521518426
1258.3037797878242 21447.13787728819
1259.1451341129468 21458.52649577326
1259.9862819247755 21388.229969566204
1260.8272232811978 21286.742677769107
1261.6679582400666 21488.273815230896
1262.5084868592203 21236.472651073793
1263.34880919647 21255.116994721233
1264.1889253095997 21236.8419874957
1265.0288352563712 21207.212731549374
1265.8685390945266 21181.009580296875
1266.7080368817751 21178.886721425395
1267.5473286758115 21130.383081463915
1268.386414534294 21322.21571041816
1269.2252945148703 20980.90195894788
1270.0639686751547 21041.74882036299
1270.9024370727402 21100.982286705228
1271.7406997651997 20895.54868811937
1272.5787568100714 21004.06558312047
1273.4166082648808 20956.81359062104
1274.2542541871244 21191.098290166272
1275.091694634275 21083.997094260907
1275.9289296637817 20878.925502811144
1276.7659593330663 20798.443116913957
1277.6027836995308 21043.734996811247
1278.4394028205552 20863.032220356097
1279.2758167534867 20962.587569397925
1280.112025555658 20919.274993877032
1280.9480292843746 21076.487511441042
1281.7838279969128 20780.597114177384
1282.6194217505326 20820.07796401939
1283.4548106024686 20712.66866874114
1284.289994609926 20935.90523416074
1285.1249738300921 20914.081979998344
1285.959748320127 20767.614285892963
1286.7943181371702 20832.244636598487
1287.6286833383328 20845.958468745823
1288.4628439807038 20985.12962465344
1289.2968001213521 20754.650410827173
1290.1305518173194 20860.911785876386
1290.9640991256183 21022.537250384266
1291.7974421032523 20922.744934548413
1292.630580807183 20977.36960602432
1293.463515294361 20816.216635802408
1294.29624562171 20998.532596195055
1295.12877184613 20889.675374994193
1295.961094024493 21006.159828726428
1296.79321221365 21000.273326276023
1297.6251264704333 21120.98263899216
1298.4568368516466 21109.705493550322
1299.2883434140658 21256.058400899896
1300.1196462144526 20860.701301874127
1300.9507453095375 21155.247135446967
1301.7816407560313 21155.37112894806
1302.6123326106172 21160.58467389797
1303.4428209299622 21010.55415248245
1304.2731057707024 21338.061515624642
1305.1031871894502 21000.717363104388
1305.933065242798 21201.17017019306
1306.7627399873181 21209.275906080748
1307.5922114795467 21432.081022846636
1308.4214797760123 21506.167572022554
1309.2505449332057 21276.693082040852
1310.0794070076026 21307.039160646353
1310.9080660556538 21411.613208010524
1311.736522133786 21173.210957530777
1312.5647752983987 21277.67379447051
1313.3928256058734 21281.77056809583
1314.2206731125661 21403.402135398726
1315.048317874809 21427.855891947573
1315.8757599489109 21398.486632313277
1316.7029993911547 21267.73454458261
1317.5300362578055 21607.441087302315
1318.356870605101 21404.330071776338
1319.183502489257 21501.05684019253
1320.0099319664623 21512.843314843016
1320.836159092889 21598.6933876939
1321.66218392468 21572.801557517356
1322.4880065179532 21552.1299695941
1323.3136269288134 21440.11212301842
1324.1390452133292 21688.68013917821
1324.9642614275563 21651.112368185808
1325.7892756275214 21681.175567592945
1326.6140878692295 21509.71025559636
1327.4386982086617 21819.339494264023
1328.2631067017755 21564.063842876094
1329.0873134045069 21677.24932112917
1329.911318372764 21460.659818834978
1330.735121662441 21582.402043527436
1331.558723329399 21441.67897868891
1332.3821234294774 21483.36468110151
1333.2053220185007 21280.067359260465
1334.0283191522612 21553.344697881963
1334.851114886529 21352.753171878732
1335.6737092770582 21436.725478971657
1336.4961023795695 21292.03987459471
1337.3182942497697 21184.817401348817
1338.1402849433325 21384.226206344014
1338.962074515921 21042.275030392084
1339.7836630231632 20916.7545277728
1340.6050505206676 21194.23231490369
1341.426237064028 21046.498267018087
1342.2472227088037 21249.87090963756
1343.0680075105338 20694.67267080176
1343.888591524741 20743.875300183336
1344.7089748069138 20813.28795993357
1345.5291574125276 20549.06966873468
1346.3491393970307 20365.80507117584
1347.168920815846 20800.78574988147
1347.9885017243778 20614.068005883535
1348.8078821780036 20670.073976856045
1349.6270622320844 20346.67853258113
1350.4460419419447 20355.683143158592
1351.2648213629054 20349.39613285222
1352.0834005502438 20211.1746894773
1352.90177955923 20206.4862057191
1353.7199584451064 20461.0269340992
1354.5379372630887 20262.44763090829
1355.355716068374 20106.51894123237
1356.1732949161305 20139.39720901858
1356.9906738615155 20022.175123693694
1357.8078529596478 20096.765393512906
1358.6248322656375 20095.5629682301
1359.441611834567 19757.229883958997
1360.2581917214866 20155.145056610727
1361.0745719814367 19723.123151117332
1361.890752669433 19678.413661663602
1362.7067338404577 19671.7867172338
1363.5225155494845 19846.742508957384
1364.3380978514506 19862.41191455572
1365.1534808012839 19644.336225274456
1365.9686644538815 19296.212319959704
1366.783648864117 19848.395753451165
1367.5984340868417 19622.29701127463
1368.413020176893 19659.391496941513
1369.2274071890715 19348.63558131321
1370.0415951781652 19491.90727977398
1370.8555841989346 19279.418721951355
1371.6693743061223 19449.3691514553
1372.48296555444 19255.34844260079
1373.2963579985844 19563.387320968755
1374.1095516932255 19408.572796920205
1374.9225466930166 19470.5288731732
1375.7353430525782 19205.204289537163
1376.5479408265164 19281.890313798434
1377.36034006941 19245.099118558308
1378.1725408358216 19301.395964761876
1378.9845431802805 19000.66976582916
1379.796347157304 19236.186605922725
1380.6079528213813 19281.92972496873
1381.4193602269788 19038.448453162688
1382.230569428546 19011.678230995072
1383.0415804805016 19192.937460107463
1383.852393437246 19004.087924613057
1384.6630083531563 19130.73405729232
1385.4734252825892 18879.18051327396
1386.2836442798798 19124.879001234352
1387.0936653993322 18856.908490887883
1387.9034886952395 18844.4281725846
1388.713114221864 18812.65318768793
1389.5225420334482 18890.398509208488
1390.331772184214 18718.347917708423
1391.1408047283585 18613.2524482941
1391.9496397200564 18495.327892783214
1392.758277213461 18794.169159438145
1393.5667172627054 18694.536458697003
1394.3749599218918 18607.96640823667
1395.1830052451114 18112.542520413394
1395.9908532864265 18600.135027775254
1396.7985040998774 18597.51333177846
1397.6059577394808 18370.430011827637
1398.4132142592352 18474.96743796742
1399.2202737131156 18369.45015777852
1400.027136155073 18411.940645320996
1400.8338016390353 18319.17621342843
1401.6402702189134 18179.169213031528
1402.446541948586 18308.8667089669
1403.2526168819204 18211.65777165939
1404.058495072757 18263.31323329117
1404.8641765749107 18171.097876092583
1405.6696614421799 18194.77564356985
1406.4749497283356 18243.576935098008
1407.280041487129 18207.58975128657
1408.084936772295 17967.278697352518
1408.8896356375335 18049.019626775604
1409.6941381365323 18005.338522448736
1410.498444322955 17926.005223673823
1411.3025542504402 17976.68906900452
1412.106467972606 18147.477363676495
1412.9101855430508 17876.471821293722
1413.7137070153458 17867.983424200804
1414.5170324430437 17627.875668475812
1415.320161879672 17856.27705052895
1416.1230953787435 17945.125575933842
1416.925832993742 17738.80826907864
1417.7283747781275 17540.734271164234
1418.5307207853439 17793.39993567141
1419.3328710688093 17698.320316602116
1420.134825681922 17590.071702003195
1420.9365846780584 17569.88974286959
1421.7381481105713 17834.079079359908
1422.539516032788 17755.61968824602
1423.3406884980232 17565.02858983173
1424.1416655595604 17515.96928924
1424.942447270665 17656.995342615162
1425.7430336845828 17667.7106126308
1426.5434248545298 17646.278188584954
1427.3436208337116 17638.382050984343
1428.143621675301 17794.09327039982
1428.9434274324558 17849.688649726384
1429.7430381583108 17529.148696147968
1430.5424539059713 17583.0135526546
1431.3416747285337 18001.328234129287
1432.1407006790632 17745.670206555053
1432.9395318106053 17638.122852204826
1433.7381681761835 17430.389663758146
1434.5366098288014 17756.72476601132
1435.3348568214424 17606.95250728502
1436.1329092070573 17525.294565533903
1436.9307670385879 17717.040449525004
1437.7284303689503 17906.757980482398
1438.5258992510335 17835.614580949918
1439.3231737377118 17638.891028717502
1440.1202538818306 17712.89501436926
1440.9171397362225 17720.68221772429
1441.7138313536925 17746.722179674325
1442.5103287870243 17533.17046724021
1443.3066320889775 17590.275465254083
1444.1027413122956 17834.641965461815
1444.8986565096966 17775.247521249672
1445.694377733882 17838.065633228267
1446.4899050375207 17565.35590066945
1447.2852384732687 17561.96960716838
1448.0803780937622 17659.306254522602
1448.8753239516063 17726.672958727515
1449.6700760993954 17536.871713157656
1450.464634589689 17630.606040509745
1451.2589994750397 17734.44646509132
1452.0531708079689 17794.312670524036
1452.8471486409799 17436.296362085992
1453.6409330265524 17735.768391017515
1454.4345240171442 17712.492639643886
1455.2279216651987 17641.120117727136
1456.0211260231263 17532.708359850218
1456.8141371433194 17675.647054923582
1457.6069550781594 17685.1522757056
1458.3995798799897 17667.65985172732
1459.1920116011424 17418.153863901272
1459.98425029393 17429.59815432413
1460.7762960106338 17332.746737503003
1461.5681488035225 17244.76846093845
1462.3598087248392 17291.861972641604
1463.1512758268036 17346.265594296616
1463.942550161617 17372.514523756796
1464.7336317814625 17128.084125691574
1465.524520738496 17014.0590081293
1466.3152170848552 17056.417370927524
1467.1057208726506 17186.998851620676
1467.8960321539817 16918.654693064367
1468.6861509809169 16713.73285199563
1469.4760774055085 16868.998126749488
1470.265811479785 16949.122746354355
1471.055353255755 16819.905453475956
1471.844702785409 16747.573213875417
1472.6338601207044 16831.77220132773
1473.4228253135934 17333.19810324824
1474.2115984159936 16694.131016940224
1475.0001794798063 16406.809074134544
1475.7885685569145 16776.891201114686
1476.576765699172 16618.25544884638
1477.3647709584238 16613.37021913975
1478.1525843864802 16735.498580776155
1478.9402060351367 16607.16272160317
1479.7276359561693 16614.56631619605
1480.514874201328 16586.817797633492
1481.3019208223468 16562.938870081416
1482.0887758709323 16467.70112200203
1482.8754393987747 16651.1811001394
1483.6619114575406 16335.282235605637
1484.4481920988783 16568.549745274002
1485.2342813744108 16759.3479666118
1486.0201793357446 16569.371512203787
1486.8058860344572 16379.0852125805
1487.591401522117 16336.698183134602
1488.3767258502594 16508.261502862115
1489.1618590704056 16420.696674480016
1489.9468012340494 16457.343386210163
1490.7315523926754 16242.934739557753
1491.5161125977356 16622.531884782038
1492.3004819006637 16223.39281671232
1493.084660352877 16294.709265226096
1493.8686480057622 16309.20690389055
1494.6524449106964 16492.338372175713
1495.4360511190262 16470.221815358585
1496.219466682087 16367.461710284906
1497.0026916511779 16367.921964702418
1497.7857260775945 16276.890287133636
1498.5685700125996 16382.541434573548
1499.3512235074395 16351.89215900407
1500.133686613337 16116.482086874006
1500.9159593814966 16394.720224265646
1501.698041863101 16520.25655368322
1502.4799341093094 16163.640529802937
1503.2616361712662 16016.931422095997
1504.043148100087 16229.250498019192
1504.8244699468742 16143.910090480795
1505.6056017626997 15952.27086663625
1506.3865435986281 15869.645348385351
1507.1672955056893 16217.103286659825
1507.9478575348967 15950.854090901932
1508.7282297372512 16128.392414570224
1509.5084121637192 15903.932851345966
1510.2884048652577 16081.549052166072
1511.0682078927948 15966.320189918688
1511.8478212972423 15865.564366568704
1512.6272451294917 15744.00304098602
1513.4064794404076 15977.203896830873
1514.1855242808433 15840.999936100523
1514.9643797016215 15857.035105054389
1515.743045753552 15784.67865410902
1516.5215224874191 15937.110131097093
1517.2998099539836 15688.036170165287
1518.077908203999 15683.471213868277
1518.8558172881785 15771.512503029691
1519.633537257234 15917.496907052362
1520.4110681618404 15708.802604772878
1521.1884100526604 15819.260963677832
1521.9655629803365 15713.818067003283
1522.7425269954856 15957.506180206929
1523.5193021487103 15857.327401370116
1524.2958884905856 15572.292635728305
1525.0722860716687 15729.782891047991
1525.848494942502 15804.411799535708
1526.624515153595 15537.475245146295
1527.4003467554485 15648.49404962992
1528.175989798534 15585.560493555691
1528.9514443333064 15604.233212421532
1529.726710410203 15827.14551205115
1530.5017880796331 15604.166851979904
1531.276677391992 15533.47743147274
1532.0513783976457 15714.092163715855
1532.825891146953 15526.020597334626
1533.6002156902414 15544.924362475092
1534.3743520778207 15564.9312573414
1535.1483003599806 15434.779210364615
1535.9220605869923 15522.035247052763
1536.6956328091019 15608.840875204556
1537.4690170765407 15402.408669491026
1538.242213439511 15563.63832014261
1539.015221948208 15576.28482040908
1539.78804265279 15305.533273212675
1540.560675603405 15326.439636939856
1541.3331208501804 15471.24914553983
1542.1053784432224 15535.125005741977
1542.8774484326168 15393.928006142154
1543.649330868422 15217.0186772499
1544.4210258006842 15351.562200040451
1545.1925332794308 15391.793114153988
1545.9638533546604 15295.537026115653
1546.7349860763552 15173.369036738954
1547.5059314944829 15477.61242701241
1548.27668965898 15237.809790024718
1549.0472606197673 15323.963037043513
1549.817644426752 15149.33983566093
1550.5878411298072 15369.888750366406
1551.3578507787988 15268.609858817425
1552.1276734235635 15148.729363212024
1552.8973091139233 15213.116901870173
1553.6667578996767 15279.546382628312
1554.436019830604 15431.859702162506
1555.20509495646 15243.06784736544
1555.9739833269869 15011.541920718297
1556.7426849919011 15144.975110645391
1557.511200000903 15380.648408173869
1558.2795284036674 15189.947386283882
1559.0476702498509 15038.957136284425
1559.8156255890954 15185.834653399561
1560.5833944710157 15246.464001101602
1561.3509769452048 14967.126043289089
1562.1183730612447 15101.835312793835
1562.8855828686865 15013.53820178468
1563.6526064170703 15068.254584237246
1564.4194437559127 15127.833299047143
1565.1860949347047 15043.150649738189
1565.9525600029283 15339.710021756171
1566.7188390100328 15147.928183854227
1567.4849320054564 14901.26458619925
1568.250839038612 14943.462643018682
1569.0165601588997 15008.509574508445
1569.7820954156887 14973.218627557313
1570.5474448583373 14750.763123386965
1571.31260853618 14720.290029046559
1572.0775864985299 14734.65146491433
1572.8423787946813 14969.399228534903
1573.6069854739108 14928.208350463983
1574.371406585471 14861.01852264351
1575.1356421785986 14815.813097915418
1575.899692302506 14797.339458757342
1576.6635570063845 14539.806256644608
1577.4272363394157 14699.375190716333
1578.190730350747 14795.387199395138
1578.9540390895163 14471.063769175034
1579.7171626048384 14457.496380354123
1580.480100945806 14523.442836661026
1581.2428541614918 14571.58852424961
1582.0054223009538 14520.64629012028
1582.767805413223 14556.53035734979
1583.5300035473156 14495.439844660254
1584.292016752228 14680.195181905714
1585.0538450769309 14445.020719260618
1585.8154885703807 14370.983200043313
1586.5769472815136 14325.681608876892
1587.3382212592405 14420.846742097661
1588.099310552463 14452.171622561646
1588.8602152100484 14156.319512319387
1589.6209352808564 14481.40244441396
1590.3814708137234 14310.259898124254
1591.14182185746 14255.90015423406
1591.9019884608679 14217.82213676945
1592.6619706727215 13917.521556155636
1593.4217685417734 14116.09725204813
1594.1813821167616 14467.035678006927
1594.9408114464022 14039.231504741265
1595.7000565793933 14113.80716907527
1596.459117564409 14147.557325981983
1597.2179944501113 13972.002327077067
1597.9766872851324 14038.69679421929
1598.735196118092 13881.085170458595
1599.4935209975883 14127.971544058204
1600.2516619721973 14028.747633381365
1601.0096190904787 13786.044304643676
1601.7673924009723 13917.020925066809
1602.524981952196 13806.270083044836
1603.2823877926476 13529.937813737255
1604.0396099708087 13411.519159246964
1604.7966485351371 13537.291598926211
1605.5535035340745 13609.907755593877
1606.3101750160404 13760.105841898441
1607.0666630294363 13638.505260938593
1607.822967622642 13341.436528615119
1608.5790888440224 13532.043010488895
1609.3350267419137 13410.057018762856
1610.0907813646445 13275.808547642984
1610.8463527605145 13370.127286647636
1611.601740977805 13514.746451165367
1612.356946064785 13235.207915227851
1613.1119680696902 13069.297023071165
1613.8668070407512 13009.927246124013
1614.6214630261748 13287.84795406018
1615.375936074137 13099.385137811481
1616.1302262328118 13160.112090129162
1616.8843335503425 13090.346908978509
1617.638258074854 13076.448074258784
1618.391999854457 13050.14353556875
1619.1455589372363 13086.40512393549
1619.8989353712623 13144.161684710107
1620.65212920458 12770.555833211107
1621.4051404852235 12775.395835000758
1622.1579692611976 12977.177072952112
1622.9106155804966 12649.849789119613
1623.663079491087 12838.811784348112
1624.4153610409248 12742.233980373301
1625.1674602779385 12692.861116645745
1625.9193772500403 12546.820426672506
1626.6711120051277 12702.424031324728
1627.4226645910676 12673.885661971166
1628.174035055721 12375.437960029683
1628.9252234469168 12422.501194137141
1629.676229812474 12509.644097974566
1630.4270542001905 12795.652025532192
1631.1776966578382 12396.652422540885
1631.9281572331747 12434.133148023735
1632.678435973945 12548.636721018443
1633.4285329278573 12412.826804487016
1634.1784481426203 12270.333445154158
1634.9281816659113 12386.54337778462
1635.677733545388 12422.360371593535
1636.4271038286934 12151.820044422584
1637.176292563452 12156.342630866386
1637.9252997972635 12209.293040619024
1638.674125577716 12301.390673841324
1639.4227699523672 12407.530866896226
1640.171232968767 11966.198722460706
1640.9195146744423 12093.002721127523
1641.6676151168977 12212.32234726229
1642.4155343436178 12191.65004759331
1643.1632724020765 11997.8455534551
1643.9108293397167 11963.538208023994
1644.658205203974 12050.472985228344
1645.4054000422566 12225.155136604348
1646.1524139019566 12011.378977584844
1646.8992468304423 11848.479863018812
1647.6458988750728 11944.095099635355
1648.3923700831765 11856.358221260776
1649.1386605020743 11757.477979928664
1649.8847701790564 11880.615858312489
1650.6306991614038 11659.878955116512
1651.3764474963682 11743.068191396287
1652.1220152311944 11550.948448975923
1652.867402413096 11678.845935110197
1653.6126090892776 11615.25284658107
1654.3576353069184 11750.507341436756
1655.1024811131829 11633.244629636747
1655.8471465552066 11581.58641674219
1656.5916316801213 11682.272671718954
1657.3359365350298 11541.193703035893
1658.0800611670165 11485.127771528749
1658.824005623148 11362.609387818422
1659.5677699504722 11108.735560662046
1660.3113541960192 11336.15096500485
1661.054758406799 11423.82468741298
1661.7979826297997 11248.575940183076
1662.5410269119966 11229.414527003853
1663.283891300338 11471.78785767977
1664.0265758417645 11204.723040192646
1664.7690805831826 11180.063825898058
1665.5114055714948 11247.306407558619
1666.2535508535748 11380.433180526694
1666.9955164762814 11060.935790569132
1667.7373024864555 11017.224450934325
1668.478908930916 11196.08975876266
1669.220335856462 10949.726555437726
1669.9615833098778 10979.631561143902
1670.7026513379296 10835.810352567798
1671.44353998736 11023.466281177381
1672.1842493048916 10970.43654601647
1672.9247793372379 10774.13990198582
1673.6651301310812 10799.589903086282
1674.4053017330934 10746.822814152185
1675.1452941899242 10814.028164899093
1675.885107548207 10621.380531667663
1676.6247418545518 10685.361509403685
1677.3641971555535 10655.942722224992
1678.1034734977893 10610.706374119061
1678.8425709278108 10629.213818053035
1679.5814894921605 10708.045977633783
1680.320229237359 10553.310924965504
1681.0587902098978 10635.28111450587
1681.7971724562685 10596.043759905637
1682.5353760229264 10713.585238961468
1683.2734009563173 10529.856698181567
1684.0112473028657 10576.762758582436
1684.7489151089794 10698.291348363398
1685.4864044210462 10576.835192957224
1686.2237152854377 10450.643735336706
1686.960847748498 10490.478006826992
1687.6978018565642 10410.756353609697
1688.434577655944 10392.998689154692
1689.1711751929379 10333.51542039636
1689.9075945138156 10533.991147497003
1690.6438356648396 10367.113684201637
1691.3798986922448 10002.57140059872
1692.1157836422499 10254.201337597331
1692.851490561059 10238.926857582517
1693.587019494853 10165.226855614072
1694.3223704897991 10113.283171616013
1695.0575435920364 10121.912123454822
1695.792538847696 10315.509054510216
1696.527356302886 10019.513363308391
1697.2619960036936 9969.436345280854
1697.9964579961907 10081.790460008922
1698.730742326432 9751.827027842657
1699.4648490404488 9819.231624302043
1700.1987781842563 9870.067577785205
1700.9325298038548 10025.2454689091
1701.6661039452174 9963.008224627289
1702.3995006543082 9916.42867614514
1703.1327199770658 9843.754698425075
1703.865761959416 9346.75331438325
1704.598626647261 9931.191565465157
1705.3313140864866 9600.833908941584
1706.0638243229587 9494.191734548074
1706.7961574025303 9975.11292753222
1707.528313371029 9759.476338162527
1708.260292274268 9362.895836735071
1708.9920941580403 9520.857336752753
1709.7237190681226 9555.584035449057
1710.4551670502697 9447.60963996201
1711.18643815022 9214.639759330601
1711.9175324136959 9492.445738095497
1712.6484498863938 9281.513650216852
1713.379190614005 9271.845515160585
1714.109754642188 9440.231761551597
1714.8401420165883 9175.026941305794
1715.570352782839 9429.733939528034
1716.3003869865497 9398.012204744318
1717.0302446733076 9195.824337446726
1717.7599258886876 8987.931747213068
1718.4894306782444 9345.106780513444
1719.2187590875183 9154.522401810564
1719.9479111620203 9210.901902661284
1720.6768869472544 9087.79668077741
1721.4056864887025 9358.40418755776
1722.1343098318284 9186.642214266714
1722.8627570220742 8897.610103392024
1723.591028104871 9105.707191473
1724.3191231256242 8932.19089460251
1725.0470421297232 8935.33684984814
1725.7747851625427 9158.311140223303
1726.5023522694337 8927.580346902652
1727.2297434957363 8972.411273901374
1727.9569588867635 8826.919364330057
1728.6839984878152 9077.14435570348
1729.4108623441734 8699.548262564585
1730.1375505011038 9111.293322096864
1730.8640630038426 8887.128307491903
1731.5903998976264 8852.92052623839
1732.316561227657 8896.24900842684
1733.0425470391274 8831.395142277617
1733.7683573772065 8832.871371494302
1734.4939922870508 8714.379922067277
1735.2194518137949 8801.477153638876
1735.9447360025606 8907.329870682186
1736.669844898439 8786.354653199864
1737.3947785465189 8765.17209310787
1738.1195369918605 8549.957749210735
1738.8441202795093 8792.267740871874
1739.5685284544943 8740.548475660315
1740.292761561821 8829.8075288531
1741.0168196464838 8769.414034136298
1741.7407027534518 8609.1428690187
1742.464410927687 8507.001537709533
1743.187944214118 8604.465324672281
1743.9113026576688 8571.989944198378
1744.634486303241 8601.495370598834
1745.3574951957125 8480.154720658433
1746.0803293799509 8562.3644922262
1746.8029889008048 8508.820672388996
1747.5254738031017 8638.264654664908
1748.2477841316504 8478.628109364232
1748.969919931249 8465.51949956901
1749.6918812466665 8554.44975015494
1750.4136681226646 8774.448953052315
1751.1352806039777 8557.867388709481
1751.856718735331 8489.288276322302
1752.5779825614281 8580.106191091389
1753.2990721269507 8598.329518084294
1754.0199874765676 8581.654600750946
1754.7407286549314 8409.697760216066
1755.4612957066693 8449.124543681482
1756.1816886763954 8524.580739470457
1756.9019076087097 8503.061808974813
1757.6219525481865 8537.609153391695
1758.3418235393856 8405.259624844917
1759.061520626854 8547.66315883816
1759.7810438551096 8383.278039244165
1760.5003932686614 8391.753327485168
1761.2195689119999 8533.582141099227
1761.938570829594 8299.232778664209
1762.657399065898 8346.964928285457
1763.376053665348 8281.421529428564
1764.0945346723602 8304.493984903309
1764.812842131334 8368.352611910817
1765.5309760866512 8280.926139055586
1766.2489365826787 8168.616939361564
1766.9667236637597 8294.71696675013
1767.684337374223 8117.430184463013
1768.401777758383 8128.225564680938
1769.1190448605284 8250.924122266186
1769.836138724937 8180.8638258522315
1770.5530593958665 8405.05290578202
1771.2698069175603 8181.173301437501
1771.9863813342326 8334.187345319962
1772.702782690094 8133.050140940725
1773.4190110293293 8250.353081835234
1774.1350663961111 8318.536969510496
1774.8509488345844 8021.467791885017
1775.5666583888924 8099.403201660643
1776.2821951031437 8468.690345862004
1776.9975590214362 8089.875607525086
1777.7127501878585 8350.763461416249
1778.4277686464684 8154.298170238455
1779.1426144413108 8330.655137349413
1779.8572876164162 8119.629179421909
1780.571788215797 8260.365857690853
1781.2861162834415 8181.577457008463
1782.0002718633277 8002.300696861794
1782.7142549994132 8035.199138054636
1783.4280657356376 8125.093773193925
1784.141704115922 7904.085834262708
1784.855170184177 7933.218682491635
1785.5684639842839 8026.510136276238
1786.2815855601148 7865.727671350849
1786.9945349555237 7999.174783570296
1787.707312214343 7938.773998422164
1788.4199173803918 8134.893862523803
1789.132350497468 8018.969508926748
1789.8446116093583 7988.796227279572
1790.556700759822 7913.622024723943
1791.2686179926077 7710.855990805397
1791.9803633514493 7979.4313775553865
1792.6919368800554 7751.047044847719
1793.4033386221236 7999.602126818982
1794.1145686213295 7888.888172195441
1794.8256269213307 8043.699766627857
1795.536513565774 8048.863720889788
1796.247228598284 7675.225364271025
1796.9577720624693 7853.08941119206
1797.6681440019165 7885.791849343649
1798.3783444602013 7897.760445843024
1799.0883734808776 7884.725697011559
1799.7982311074884 7926.428999563601
1800.5079173835475 7771.463884716363
1801.2174323525633 7829.501501796045
1801.9267760580187 7989.585030727785
1802.635948543386 7727.216317648143
1803.3449498521113 7753.667964572109
1804.0537800276325 7701.38085107393
1804.7624391133668 7576.141052163141
1805.47092715271 7705.997903618964
1806.1792441890484 7646.356872966407
1806.8873902657433 7837.373971705836
1807.5953654261448 7748.255424406158
1808.3031697135812 7752.997994323576
1809.0108031713662 7734.445790415906
1809.71826584279 7541.820452718472
1810.425557771141 7714.947377880182
1811.1326789996747 7960.347430691907
1811.839629571632 7707.193976628199
1812.5464095302468 7574.272355548155
1813.2530189187182 7777.9265288323095
1813.959457780249 7572.587072797169
1814.6657261580076 7751.88858828689
1815.371824095153 7631.515435537073
1816.0777516348262 7708.41733768814
1816.78350882015 7488.813367857265
1817.4890956942272 7526.903210300703
1818.1945123001533 7710.060627743769
1818.8997586809928 7615.550349081156
1819.6048348798067 7562.850618168852
1820.3097409396287 7592.105955768484
1821.0144769034796 7718.412745385375
1821.7190428143622 7555.778869132783
1822.423438715261 7883.65078128567
1823.1276646491478 7574.789203493392
1823.8317206589727 7712.233827045154
1824.5356067876692 7496.5764249331305
1825.2393230781581 7656.285734891113
1825.942869573335 7403.236942326121
1826.646246316086 7545.234772318142
1827.3494533492758 7551.962447924328
1828.052490715756 7657.238523313751
1828.7553584583547 7626.451379798025
1829.458056619891 7535.2714141340475
1830.1605852431585 7350.022086288553
1830.8629443709433 7399.092195454247
1831.5651340460063 7517.653804148172
1832.2671543110919 7721.879746372509
1832.9690052089318 7359.160514330599
1833.6706867822395 7383.9466101834
1834.3721990737104 7625.672335666399
1835.0735421260233 7444.452868767183
1835.774715981841 7500.250097208025
1836.4757206838058 7589.17938668017
1837.1765562745459 7093.264058785609
1837.8772227966747 7217.428756483345
1838.5777202927839 7565.608157492196
1839.2780488054523 7361.360966852759
1839.9782083772352 7360.900459851107
1840.6781990506806 7520.235571135007
1841.378020868313 7353.51584240856
1842.0776738726418 7447.11929111294
1842.777158106157 7334.63629753584
1843.4764736113375 7152.0211351667895
1844.1756204306403 7354.277660285923
1844.8745986065078 7311.825421330608
1845.5734081813607 7169.2702282258615
1846.2720491976124 7102.127057671261
1846.970521697649 7221.726623208592
1847.6688257238511 7204.97611843692
1848.3669613185684 7278.270350666322
1849.0649285241452 7212.38116873542
1849.7627273829057 7393.646365756262
1850.460357937156 7560.016548345595
1851.1578202291857 7166.690177869343
1851.8551143012664 7315.859116245432
1852.5522401956569 7204.767526262457
1853.2491979545957 7355.224705855335
1853.9459876203055 7244.4600281704425
1854.6426092349902 7106.391174224025
1855.3390628408451 7288.134874595878
1856.0353484800362 7351.753639518525
1856.7314661947203 7345.14499645364
1857.4274160270397 7010.41461903842
1858.123198019115 7142.221448224342
1858.8188122130487 7192.01944365708
1859.5142586509319 7250.5056424122085
1860.209537374838 7101.868721800618
1860.9046484268183 7118.602512888172
1861.599591848917 7408.724316460083
1862.294367683151 7090.199876591563
1862.988975971528 7160.560144259565
1863.6834167560355 7198.7454731536245
1864.3776900786452 7081.085695085288
1865.0717959813119 7039.921686580327
1865.7657345059724 7079.871016148549
1866.4595056945564 7146.228400005746
1867.1531095889586 7262.7043612105435
1867.846546231076 7104.341629432733
1868.5398156627743 7225.821078849813
1869.2329179259123 7025.449440607573
1869.9258530623283 7300.4810424151565
1870.618621113843 7063.721497479455
1871.3112221222636 6994.855848624311
1872.0036561293764 6959.035913349039
1872.695923176956 7162.955408680308
1873.3880233067594 7250.122017928288
1874.0799565605212 7046.076980197143
1874.7717229799673 7026.830937090041
1875.4633226068036 7114.367524237585
1876.1547554827175 7097.179807512404
1876.8460216493859 7005.8221634485035
1877.5371211484617 7016.835219241844
1878.2280540215852 7256.015771774951
1878.9188203103804 6999.745200203508
1879.6094200564548 7004.341637633054
1880.299853301396 7011.507368957013
1880.9901200867826 7063.845081717038
1881.6802204541673 6904.855444594008
1882.3701544450942 7106.281742159015
1883.059922101087 7101.592120886846
1883.7495234636517 7184.870034929739
1884.4389585742792 6918.198387287351
1885.1282274744517 6930.86021037635
1885.8173302056166 7388.424951863364
1886.506266809225 7033.789616989074
1887.195037326701 6776.9706527322605
1887.8836417994517 7027.402867749613
1888.5720802688702 7163.908651433308
1889.260352776333 7003.719006208514
1889.9484593632042 6957.176376148242
1890.63640007082 6735.063758763308
1891.3241749405151 6891.207852318631
1892.0117840135954 7035.139936967523
1892.6992273313572 6888.2822108685305
1893.3865049350788 6819.3563692930475
1894.0736168660223 7146.116155192669
1894.7605631654333 6873.367083845951
1895.4473438745408 6838.70336210215
1896.133959034556 7002.032053887835
1896.820408686679 6799.772647240311
1897.506692872088 6998.834178158366
1898.192811631945 6795.967271102016
1898.8787650073991 6851.472029721491
1899.5645530395832 7132.4939840933
1900.2501757696118 7173.497628413078
1900.9356332385796 6632.632231948987
1901.620925487574 7049.660842846332
1902.3060525576602 7021.5385848149435
1902.9910144898859 7070.149684272954
1903.6758113252872 6616.496400405735
1904.3604431048789 6800.187281717992
1905.0449098696663 6682.847484045636
1905.7292116606295 6875.433882423718
1906.4133485187394 6821.856080783186
1907.0973204849488 6523.951995090492
1907.7811276001976 6779.852440459181
1908.4647699053967 6799.702685284288
1909.1482474414588 6725.778368000976
1909.8315602492694 6628.4359131693955
1910.5147083696957 6866.78651256547
1911.1976918436012 6835.763823065421
1911.880510711815 6720.607913999685
1912.5631650151681 6645.511264948131
1913.2456547944657 6789.452317047992
1913.927980090495 6736.151666244446
1914.6101409440362 6917.188730509802
1915.2921373958416 6634.941799878169
1915.9739694866603 6729.468888362962
1916.655637257214 6876.9638692954
1917.3371407482136 6828.4991673388795
1918.0184800003572 6820.662630188779
1918.6996550543154 6689.353381776587
1919.3806659507554 6722.684578672434
1920.0615127303208 6759.420007934898
1920.7421954336423 6798.6457333576345
1921.4227141013343 6730.793389044957
1922.103068773993 6711.101166394021
1922.783259492202 6780.774834010686
1923.4632862965227 6619.93641538896
1924.1431492275078 6592.409072849869
1924.8228483256917 6496.222494596712
1925.5023836315922 6582.08646630789
1926.1817551857057 6434.068498574538
1926.8609630285227 6782.0970764986905
1927.5400072005123 6718.68831041386
1928.218887742125 6420.64574746409
1928.8976046938005 6303.225592172176
1929.5761580959588 6599.496067176244
1930.2545479890086 6707.230705234989
1930.9327744133352 6574.022494910035
1931.6108374093164 6678.710228356584
1932.2887370173066 6807.199602140949
1932.9664732776473 6271.8954501755725
1933.6440462306673 6750.098933811566
1934.3214559166754 6463.501825232927
1934.9987023759659 6600.917394145644
1935.675785648813 6556.64360573625
1936.3527057754836 6437.361527931406
1937.029462796223 6649.152725157897
1937.70605675126 6409.269818146704
1938.3824876808085 6452.490932854771
1939.058755625072 6221.688619059241
1939.7348606242267 6533.889463493282
1940.4108027184448 6480.335129921101
1941.0865819478713 6729.567552433134
1941.7621983526478 6410.110703179812
1942.4376519728921 6329.299113695113
1943.1129428487038 6322.026233541134
1943.7880710201734 6416.342961477767
1944.4630365273733 6562.571209613215
1945.1378394103576 6284.675117274861
1945.8124797091714 6692.548842651016
1946.4869574638324 6157.395274916989
1947.161272714353 6433.355031141978
1947.8354255007234 6457.636576312035
1948.5094158629272 6311.739635461164
1949.1832438409183 6704.363301071136
1949.8569094746435 6474.11656450472
1950.530412804037 6539.021073743597
1951.2037538690092 6503.143255306588
1951.8769327094578 6418.5720260341095
1952.5499493652678 6564.943542669893
1953.222803876306 6533.325617156441
1953.895496282421 6374.840588809738
1954.5680266234522 6317.06967783534
1955.2403949392155 6524.023646998737
1955.9126012695142 6153.744289040292
1956.5846456541403 6356.710009806122
1957.2565281328643 6277.828407189002
1957.9282487454457 6373.938609239873
1958.5998075316202 6699.253549735462
1959.27120453112 6512.572850569339
1959.9424397836501 6289.57141773923
1960.613513328908 6382.87249493358
1961.2844252065697 6636.160411228089
1961.9551754563017 6294.77155639396
1962.6257641177453 6193.283371558332
1963.29619123054 6323.349692229367
1963.966456834296 6059.793813104412
1964.6365609686181 6152.967028229886
1965.306503673086 6375.042180840733
1965.976284987275 6279.914792129308
1966.645904950734 6231.831783965274
1967.315363603002 6116.417156446006
1967.9846609836077 6201.904236328623
1968.6537971320486 6269.388950211557
1969.3227720878222 6249.755529137899
1969.9915858904042 6084.797829691032
1970.660238579252 6379.300603315652
1971.3287301938108 6293.857170945559
1971.997060773514 6024.998112816756
1972.665230357772 6240.46256684559
1973.3332389859843 6059.8342916977035
1974.0010866975335 6223.373336336214
1974.6687735317864 6363.687912373463
1975.3362995280932 6452.617394841391
1976.003664725793 6135.021339562986
1976.6708691642052 5927.866133783506
1977.3379128826364 6245.325963420692
1978.004795920373 6315.860308997375
1978.6715183166925 6565.544085232963
1979.3380801108524 6050.94771175203
1980.0044813420973 6307.905551506389
1980.6707220496555 5968.712999326219
1981.3368022727373 6173.841240629013
1982.0027220505417 6279.840375715246
1982.66848142225 5919.27947404684
1983.3340804270283 5986.047288978452
1983.999519104027 6070.221016544468
1984.6647974923835 6341.286779792297
1985.329915631215 6112.602912485994
1985.99487355963 6237.197241589271
1986.6596713167146 6369.806920950267
1987.3243089415428 6118.6099894339395
1987.9887864731754 6327.531568531556
1988.6531039506553 5962.596270688286
1989.3172614130071 6347.402878467683
1989.9812588992481 6156.847219781242
1990.645096448372 6045.9823633054875
1991.3087740993633 6122.344445044627
1991.9722918911848 5908.054343148483
1992.635649862792 6035.302762367467
1993.2988480531185 6259.377089063655
1993.9618865010852 6364.160058547507
1994.6247652455968 5937.302542323735
1995.287484325545 5866.345971258625
1995.9500437798033 6210.54935976972
1996.6124436472292 5844.20758029131
1997.2746839666706 6069.9774317391875
1997.936764776954 6224.710407638109
1998.598686116895 5836.6882826511555
1999.2604480252903 6265.196390861406
1999.9220505409212 5887.223981122596
2000.5834937025593 5916.247089117239
2001.2447775489582 5959.3380131168615
2001.9059021188514 6116.38542854518
2002.5668674509616 6009.235730724724
2003.2276735839987 5994.268303164461
2003.8883205566508 6282.478058127873
2004.5488084075987 6000.523321620248
2005.2091371755014 5703.754628039894
2005.8693068990033 5973.840210876626
2006.5293176167397 6138.131036008299
2007.1891693673224 5903.172566822657
2007.848862189354 5831.192468212109
2008.5083961214223 5936.136405474894
2009.1677712020955 5820.260131780886
2009.8269874699254 5851.288940675991
2010.4860449634598 6230.918436223485
2011.1449437212177 5594.1915603295065
2011.8036837817108 6182.125056316081
2012.4622651834325 6017.318449451438
2013.1206879648653 6161.535678099937
2013.7789521644736 6418.686106156968
2014.4370578207036 5722.910134926458
2015.0950049719922 5885.356280169887
2015.7527936567585 5897.317843688967
2016.4104239134067 6018.968198104995
2017.067895780323 6036.03897014122
2017.725209295886 5682.24029676685
2018.3823644984514 5986.023231784554
2019.0393614263648 5909.2090593513
2019.6962001179545 5738.512290570306
2020.3528806115355 5933.710037780741
2021.0094029454067 5759.399890584872
2021.6657671578487 5841.0201355226445
2022.321973287133 5815.052086106728
2022.9780213715148 5953.136838402669
2023.6339114492293 5713.324017310343
2024.2896435585026 5879.2098012639235
2024.9452177375442 5822.102847014149
2025.600634024544 6140.173009113551
2026.2558924576842 5971.411753782058
2026.9109930751292 5864.8835403522235
2027.565935915025 5736.3066566438565
2028.2207210155066 6096.69932835749
2028.8753484146964 5875.445480264452
2029.529818150695 5605.300469149585
2030.1841302615903 5768.014823978903
2030.8382847854573 5670.765053822555
2031.4922817603601 5659.043497784089
2032.1461212243357 5796.672350670293
2032.7998032154192 5599.450279099936
2033.4533277716218 5897.257751169649
2034.1066949309443 5651.125471678806
2034.7599047313688 5831.815802542771
2035.4129572108704 6064.168666584783
2036.0658524074006 5987.243662185753
2036.7185903589016 5818.783831272562
2037.3711711032956 5924.988413865517
2038.023594678496 5803.289990363477
2038.675861122394 5707.360681045595
2039.3279704728757 5878.44387273992
2039.9799227678031 5543.149508171178
2040.6317180450278 5715.345260606958
2041.2833563423865 5751.564573389575
2041.9348376977014 5776.704964562861
2042.5861621487784 5805.0074396761165
2043.2373297334088 5858.604420709187
2043.8883404893695 5946.399880955053
2044.5391944544208 5846.165444904886
2045.1898916663158 5896.063429304171
2045.8404321627804 6096.512343849347
2046.4908159815368 5659.693405797416
2047.1410431602853 5457.086503597968
2047.7911137367173 5536.329361945409
2048.441027748504 5846.380208675115
2049.090785233302 5616.859448888567
2049.7403862287592 5633.961911560505
2050.389830772503 6046.4098864534735
2051.0391189021466 5494.33090179012
2051.688250655294 5565.83631372327
2052.337226069527 5649.034399394546
2052.986045182417 5732.791930196955
2053.634708031521 5508.507010798646
2054.283214654375 5862.557688407837
2054.931565088511 5361.054395792389
2055.579759371436 5607.40386467845
2056.2277975406523 5701.316417902404
2056.8756796336384 5841.236494044666
2057.5234056878617 5538.079891811517
2058.1709757407752 5515.753843890367
2058.8183898298194 5669.333443781569
2059.465647992416 5838.221353812069
2060.1127502659747 5802.773028399157
2060.759696687888 5501.952142821683
2061.4064872955405 5799.498577226384
2062.053122126292 5881.994315839291
2062.699601217497 5322.059001886
2063.345924606485 5645.597206039072
2063.992092330587 5731.441364981035
2064.638104427102 5390.897664972783
2065.283960933324 5827.90124795883
2065.92966188653 5821.259202480023
2066.5752073239855 5883.973075007204
2067.2205972829397 5443.1989430103
2067.86583180062 5663.957643159152
2068.5109109142522 5816.715108967508
2069.15583466104 5033.990352220911
2069.8006030781708 5647.887254725607
2070.445216202821 5686.952889320501
2071.089674072153 5885.587585628807
2071.7339767233116 5633.952579718597
2072.3781241934303 5523.605678294631
2073.0221165196253 5775.115382763999
2073.6659537390024 5668.471277517071
2074.3096358886505 5679.627314147432
2074.953163005637 5366.301851899968
2075.596535127028 5367.3584065450395
2076.2397522898664 5369.651309702931
2076.882814531182 5665.229612071356
2077.5257218879924 5764.012234824607
2078.1684743973 5502.710817242488
2078.8110720960885 5464.805685729238
2079.453515021336 5811.454718020495
2080.095803209997 5520.607984378695
2080.7379366990135 5541.972421426808
2081.37991552532 5498.798885312599
2082.0217397258275 5819.1838972106625
2082.6634093374414 5267.168418379602
2083.3049243970418 5717.096868809521
2083.9462849415067 5471.646569555786
2084.587491007689 5665.832402464352
2085.2285426324324 5715.27442521083
2085.869439852564 5626.465998505134
2086.510182704902 5182.638924043162
2087.1507712262483 5628.170454665211
2087.791205453381 5262.266951559599
2088.4314854230743 5682.892078980325
2089.0716111720867 5421.816610750977
2089.7115827371617 5257.915083597402
2090.351400155023 5961.032738467476
2090.991063462385 5267.265589833659
2091.6305726959527 5420.288077675975
2092.2699278924047 5804.701337646208
2092.9091290884153 5257.718068690164
2093.548176320641 5419.97898147601
2094.187069625721 5599.013706473928
2094.8258090402887 5267.961633206581
2095.464394600951 5491.7671341265
2096.102826344313 5398.085689184689
2096.741104306955 5842.246398343098
2097.379228525453 5368.941735431431
2098.017199036358 5350.191027923925
2098.6550158762147 5667.2477135154595
2099.2926790815527 5400.886421092792
2099.9301886888825 5563.806475274287
2100.5675447347076 5546.085720560854
2101.2047472555114 5825.398075703144
2101.841796287761 5393.159174715166
2102.47869186792 5489.07488380224
2103.1154340324265 5333.507584008063
2103.752022817709 5285.822852701602
2104.388458260184 5416.5856017606175
2105.024740396251 5436.894300529357
2105.660869262292 5304.647218883273
2106.296844894685 5537.592634644633
2106.93266732978 5301.372557752254
2107.5683366039284 5132.952221971826
2108.2038527534532 5262.650893033965
2108.8392158146726 5491.1647793420925
2109.4744258238843 5406.788723146651
2110.1094828173755 5348.738091903144
2110.744386831422 5757.974774008326
2111.3791379022787 5429.043551965135
2112.01373606619 5524.401130394417
2112.648181359389 5349.106903798752
2113.28247381809 5454.164057333017
2113.916613478492 5287.710685311241
2114.550600376786 5540.574446704556
2115.1844345491445 5373.238007225745
2115.818116031729 5384.046695475792
2116.451644860679 5308.08595849562
2117.085021072133 5113.430805669468
2117.718244702204 5113.380489291926
2118.3513157869984 5384.213799274397
2118.984234362604 5204.203541642266
2119.617000465092 5385.811836673232
2120.249614130529 5573.706427506355
2120.8820753949585 5271.779807610232
2121.5143842944162 5326.402519725558
2122.14654086492 5174.040846402759
2122.7785451424734 5434.719079409769
2123.4103971630702 5103.712263808151
2124.042096962681 5446.123973534288
2124.6736445772767 5348.4425319393795
2125.305040042802 5156.923082222197
2125.936283395191 5236.891839913153
2126.567374670365 5293.279263711391
2127.198313904233 5082.813144865569
2127.8291011326855 5734.970114287875
2128.4597363916037 5129.470907425339
2129.0902197168507 5234.663685369003
2129.720551144279 5152.905661099399
2130.3507307097225 5359.508353100183
2130.980758449008 5632.069505600188
2131.6106343979427 4871.180101872915
2132.2403585923203 5472.5163898409155
2132.8699310679276 5405.372869858549
2133.499351860526 5431.710279438017
2134.1286210058715 5469.3258532635555
2134.7577385397053 5069.6968942792255
2135.3867044977487 5392.668141651214
2136.0155189157176 5567.447361222856
2136.644181829308 5261.9953104203105
2137.2726932742025 5111.807216821324
2137.901053286074 5593.722652954077
2138.5292619005777 5221.912549445566
2139.1573191533535 5034.288992111249
2139.7852250800315 5368.261741278865
2140.4129797162295 5247.353740728586
2141.0405830975433 5167.876971270355
2141.6680352595613 5385.890253338548
2142.2953362378576 4988.457373822482
2142.9224860679915 5251.043547935584
2143.549484785508 5127.1911789951455
2144.1763324259373 5349.903586260518
2144.803029024799 5110.422503475386
2145.429574617594 5103.588937619506
2146.0559692398165 5474.622754850248
2146.682212926942 4886.814555798315
2147.308305714432 5087.088510165613
2147.9342476377333 5467.911711754054
2148.5600387322847 5300.586490798092
2149.185679033506 5282.147038130451
2149.8111685768017 5362.117921257809
2150.4365073975678 4982.367255474592
2151.061695531187 5231.717036145623
2151.686733013021 5249.528238090883
2152.311619878423 5194.830831895704
2152.9363561627342 5195.133202389793
2153.560941901278 5261.869103087027
2154.1853771293663 5285.946754588424
2154.809661882293 5310.712462411759
2155.433796195348 5184.523802221518
2156.0577801037944 5331.265888812629
2156.681613642895 5153.613952514848
2157.3052968478896 4857.1732597363825
2157.928829754006 5046.810278749152
2158.552212396462 5091.306220193983
2159.1754448104566 5182.563977900468
2159.7985270311783 4894.30925051803
2160.4214590938027 4733.849360402806
2161.0442410334927 4892.350716706145
2161.6668728853874 5042.466766867517
2162.289354684628 4999.175448299827
2162.911686466332 5093.018563555042
2163.533868265602 5353.995127332239
2164.1559001175337 5547.834826845932
2164.7777820572046 5352.612012126073
2165.399514119681 4841.433798346681
2166.021096340013 4769.8310218336555
2166.6425287532384 5452.345271722014
2167.263811394385 5039.271331708329
2167.8849442984574 5161.22284893314
2168.505927500455 4895.381369766078
2169.126761035366 5150.353078014719
2169.7474449381552 5082.296278119629
2170.367979243778 4774.92615323828
2170.9883639871823 5151.051184356262
2171.608599203293 5001.991716990932
2172.2286849270276 5474.040146114834
2172.8486211932886 5572.1263573602
2173.4684080369625 4826.971727146096
2174.0880454929265 4835.69628986126
2174.7075335960417 4873.418548592265
2175.3268723811543 5200.884437002269
2175.9460618831 5030.005962214864
2176.565102136701 5002.007953941817
2177.1839931767627 5494.510321010096
2177.802735038078 4912.858836452863
2178.421327755432 4932.696245909274
2179.0397713635866 4996.479076712042
2179.658065897298 4815.998582689537
2180.276211391305 4825.920648098975
2180.8942078803357 4870.402902049355
2181.5120553991 4863.882728465169
2182.129753982299 4760.686680768535
2182.7473036646206 5132.491352747527
2183.3647044807367 5150.469132581462
2183.9819564653044 4726.0057122732715
2184.599059652968 5118.418505595402
2185.216014078367 5223.206460462409
2185.832819776113 4806.848900438525
2186.4494767808137 5163.9467584293625
2187.065985127063 4887.961993680377
2187.682344849436 4866.998602202745
2188.298555982501 5210.337110565789
2188.9146185608097 5013.792273440777
2189.530532618901 4973.002689858158
2190.1462981912937 4996.0525050677015
2190.761915312507 4975.764688738849
2191.377384017036 4974.716855578628
2191.9927043393654 5149.717906926797
2192.6078763139667 4523.068934932986
2193.2228999753006 5334.685397512856
2193.837775357808 4664.81052093267
2194.452502495922 4685.995243368279
2195.0670814240602 4857.882912245246
2195.6815121766285 4897.069261645052
2196.2957947880186 5326.125917170511
2196.9099292926057 4783.297896560835
2197.523915724758 5192.58026342554
2198.137754118825 4992.943986628141
2198.7514445091456 5205.201793355768
2199.3649869300443 4919.997104445467
2199.9783814158327 5061.240723435736
2200.5916280008096 5139.3580854146685
2201.2047267192593 5023.8851807996125
2201.8176776054515 5020.513757099252
2202.430480693649 4792.2550112395165
2203.0431360180955 5002.811997366864
2203.6556436130195 5087.3554459425995
2204.268003512645 4570.08203135232
2204.8802157511727 4950.589367202989
2205.492280362796 5110.118363032707
2206.1041973816937 4804.027510562466
2206.715966842032 4792.856342463309
2207.3275887779655 4702.78137669483
2207.93906322363 4918.487436844728
2208.550390213153 5032.684105912759
2209.1615697806465 4713.702478163064
2209.7726019602105 4562.6292679677335
2210.3834867859277 4467.008397566268
2210.9942242918787 4849.324141912745
2211.6048145121167 4645.3102639183835
2212.2152574806914 5434.411174059416
2212.825553231638 4972.998219600074
2213.435701798975 5517.217486277291
2214.045703216707 4897.770970042887
2214.655557518832 4473.629176286837
2215.2652647393297 4583.951870856459
2215.874824912169 4407.059996891347
2216.4842380713 4834.144872467483
2217.09350425067 4559.873637771374
2217.7026234842033 4500.144216733254
2218.311595805819 5016.373612885176
2218.9204212494133 4509.817178182229
2219.52909984888 5109.637643662613
2220.137631638092 4494.0108596466835
2220.7460166509154 4858.0725662337845
2221.354254921198 4868.458103547038
2221.9623464827764 4957.674672570331
2222.5702913694713 4988.1271064783305
2223.178089615096 4877.73979742221
2223.7857412534486 4464.917794027149
2224.39324631831 4567.007207022913
2225.000604843457 4588.428251270266
2225.607816862641 5233.091966053979
2226.214882409611 4831.4619594569585
2226.8218015180973 4914.5027640662765
2227.4285742218217 4751.41730556502
2228.0352005544864 4901.852353347646
2228.6416805497847 4636.686395829074
2229.248014241399 4727.4902799638685
2229.8542016629945 4370.530236270981
2230.460242848223 4855.836230306076
2231.0661378307304 4980.527270716404
2231.671886644139 4838.352639024921
2232.277489322065 4486.891280162721
2232.8829458981127 4194.648814197675
2233.48825640587 4795.239043778756
2234.0934208789095 4945.39106836609
2234.6984393507955 4988.034152177575
2235.3033118550793 4987.134700076325
2235.9080384252975 4748.635075919858
2236.5126190949723 4488.056367557265
2237.1170538976166 4387.911676989332
2237.721342866729 4271.596110791671
2238.32548603579 4781.425204980301
2238.9294834382763 4690.0913629592815
2239.533335107646 4353.768108527457
2240.1370410773434 4647.625836672358
2240.740601380803 4664.4706801424345
2241.3440160514474 4480.109554216821
2241.9472851226783 4871.922490193462
2242.550408627896 4563.981237679588
2243.1533866004793 4741.638794735858
2243.756219073799 4750.15704369454
2244.3589060812064 4594.979681056755
2244.961447656049 4488.3361667327
2245.5638438316564 4621.051480555934
2246.166094641343 4782.248317986721
2246.7682001184166 4507.003640823673
2247.3701602961664 4603.367280752512
2247.971975207871 4692.504965160001
2248.5736448867974 4778.753499296348
2249.175169366197 4586.9588661978305
2249.7765486793123 4644.535251824083
2250.3777828593684 4788.264336134215
2250.9788719395783 4821.614529798276
2251.579815953146 4604.20122045975
2252.1806149332606 4287.802988470476
2252.781268913097 4589.064933011005
2253.381777925817 4428.980187168067
2253.9821420045737 4507.910532189847
2254.5823611825035 4733.61758956827
2255.1824354927303 4663.327890140742
2255.782364968365 5244.66459210287
2256.38214964251 4390.978032716508
2256.9817895482483 4460.240221416236
2257.5812847186553 4723.417383412601
2258.180635186791 4381.689247875504
2258.779840985704 4607.945333862887
2259.37890214843 4557.785360087275
2259.97781870799 4896.251281116583
2260.5765906973957 4478.488129332994
2261.175218149645 4465.895024413411
2261.773701097718 4787.001529886694
2262.3720395745895 4302.812015220688
2262.970233613216 4108.142319681513
2263.568283246548 4386.915005624104
2264.1661885075137 4390.162365310502
2264.763949429038 4705.633419166313
2265.3615660440246 4669.444491657109
2265.959038385374 4367.505258862524
2266.5563664859637 4707.99855215439
2267.153550378669 4355.7968554186655
2267.7505900963424 4637.96925901668
2268.3474856718312 4240.030425032162
2268.9442371379664 4331.0932991598065
2269.5408445275643 4213.4450955024595
2270.1373078734377 4541.861763061802
2270.7336272083758 4271.3655415095
2271.32980256516 4533.140613142264
2271.925833976562 4381.47671117262
2272.5217214753357 4875.384848559677
2273.117465094223 4416.374002913303
2273.7130648659586 4262.353387568767
2274.308520823257 4478.891450840354
2274.903832998827 4712.783878979179
2275.4990014253563 3980.3009080449533
2276.094026135528 4945.616108798879
2276.6889071620117 4157.660166389167
2277.2836445374614 4427.222643599509
2277.878238294519 4505.117659301448
2278.472688465812 5076.936365599933
2279.066995083962 4197.3255435993115
2279.6611581815705 4313.60769546755
2280.255177791232 4222.167238468448
2280.8490539455233 4908.9597500075515
2281.442786677013 4897.6070130326825
2282.0363760182554 4502.224593942447
2282.6298220017943 4190.504450942705
2283.223124660155 4636.195595308131
2283.816284025859 4369.740444740935
2284.4093001314086 4635.76645095816
2285.002173009292 4038.8462628935076
2285.5949026919952 4493.170735872432
2286.1874892119777 4252.14541001704
2286.7799326016993 4512.792437349797
2287.3722328936 4134.052972531799
2287.964390120109 4257.679034250871
2288.556404313642 4231.6396231413355
2289.1482755066027 4898.714040801498
2289.7400037313873 4237.064519800768
2290.3315890203703 4444.016781532468
2290.9230314059205 3949.9307885769385
2291.5143309203904 4215.647059594058
2292.1054875961236 4171.861773120109
2292.6965014654506 4413.34685242691
2293.287372560684 4412.988936432606
2293.878100914131 4882.659032528785
2294.468686558086 4053.796006409084
2295.059129524827 4309.58515434439
2295.649429846617 4503.796444163293
2296.239587555716 4577.15096646569
2296.8296026843636 4391.91629818247
2297.419475264791 4980.719996639386
2298.0092053292137 4494.416883943376
2298.598792909839 4216.580396433417
2299.1882380388597 4452.013599905323
2299.777540748455 4804.467003053507
2300.3667010707904 4340.96462941013
2300.9557190380256 4234.412853887076
2301.544594682302 4761.621927708855
2302.1333280357503 4102.453263455067
2302.721919130485 4467.868550214216
2303.3103679986198 4522.040920579585
2303.898674672242 4475.344244661692
2304.486839183437 4012.0237373440445
2305.0748615642697 4449.405088834378
2305.6627418468015 4031.286688897721
2306.2504800630704 4223.148467488228
2306.8380762451143 4050.0818683235943
2307.425530424949 3491.3064462394395
2308.012842634582 4279.822183898656
2308.6000129060103 4610.860041656536
2309.187041271214 4872.806810006623
2309.773927762164 4356.352822819151
2310.3606724108213 4626.9554248959885
2310.9472752491274 3998.3428604851274
2311.5337363090184 4212.23092670959
2312.120055622414 4428.316252707372
2312.706233221221 3888.8959747483386
2313.2922691373424 3993.661622860949
2313.8781634026564 4635.087706461266
2314.463916049037 4210.3765020001865
2315.049527108342 4208.850486185833
2315.6349966124235 4376.818053732398
2316.2203245931123 4362.126681631587
2316.8055110822315 3855.525316920886
2317.3905561115935 4129.131559308277
2317.9754597129977 3804.6032521324028
2318.560221918229 4254.2757312521335
2319.1448427590603 4051.943607963475
2319.729322267256 3791.2087828385156
2320.313660474563 4443.960266537183
2320.8978574127195 4709.279685653399
2321.481913113452 4365.751321645426
2322.0658276084705 3821.2498675280513
2322.6496009294806 4281.107159880827
2323.233233108165 4449.495092046144
2323.8167241762058 4308.311631029561
2324.4000741652617 4233.66812697167
2324.983283106987 4509.640197037429
2325.5663510330232 4483.120238233833
2326.1492779749933 4304.470698452002
2326.7320639645204 4060.861000006718
2327.3147090332004 3957.981647389436
2327.897213212629 4620.895136312627
2328.4795765343843 3960.0575184716427
2329.0617990300307 4087.5719853635696
2329.643880731124 4453.765097131278
2330.22582166921 4395.863124887578
2330.807621875816 4292.4627249798505
2331.3892813824623 3790.9091339828433
2331.9708002206517 3965.7350162198154
2332.5521784218818 4577.632129244201
2333.133416017634 4118.221092557216
2333.7145130393765 4097.043102687918
2334.295469518571 4225.832162195851
2334.876285486658 4191.21719060489
2335.456960975076 3866.320893194536
2336.037496015242 4304.857832402479
2336.6178906385667 4109.568352149739
2337.198144876451 4318.256023600612
2337.778258760278 4014.56777191741
2338.3582323214214 3670.653102179064
2338.938065591243 4427.943403137572
2339.517758601087 4381.262596004386
2340.0973113822965 4165.437361847315
2340.676723966193 3930.0306247459375
2341.255996384094 3925.420670056216
2341.835128667295 4392.639302076647
2342.4141208470883 4147.953394552891
2342.992972954751 4072.517361165461
2343.5716850215467 4373.1052532428785
2344.1502570787306 3613.8147967837513
2344.7286891575386 3943.7559143705826
2345.3069812892045 4423.548907643227
2345.885133504944 4263.51461162637
2346.4631458359618 4256.152335890458
2347.04101831345 4076.0252185122345
2347.6187509685915 4179.686321288887
2348.196343832553 4271.183448545494
2348.7737969364935 3771.0577033012682
2349.351110311558 4229.303940884488
2349.9282839888765 3976.909413702249
2350.5053179995757 4012.944018113552
2351.0822123747585 3898.7025317885273
2351.658967145526 4364.332535906025
2352.2355823429643 4050.781827989837
2352.812057998144 4245.817024924853
2353.3883941421263 3870.538362604304
2353.9645908059647 4238.499917664257
2354.540648020693 4100.428716746679
2355.116565817336 3916.3415536006373
2355.6923442269126 4183.52625416349
2356.2679832804224 3990.316325097267
2356.8434830088518 3630.3870624070464
2357.41884344318 4011.112408004906
2357.994064614377 3623.5591149097077
