#exp_cfg={"servo_angle": 0.0, "laser_lim": 100.0, "servo_angle_to": 18.0, "laser_wup": 0.0, "bt_dev": "EnSpectr-25AE3", "laser_wdn_max": 0.0, "frames": 10.0, "servo_used": 0, "servo_calib_use": 0, "laser_wdn_min": 0.0, "servo_pix_from": 90.0, "cooler_tout": 300.0, "servo_angle_from": 0.0, "servo_calib": "[-1.9174921013161362e-09, 3.9322238269163779e-05, -0.27385609119055809, 653.59552119713567]", "laser_autoctl": 0, "servo_pix_to": 3682.0, "laser_pw": 100.0, "cooler_on": 0, "laser_volt": 4.0, "cooler_autoctl": 0, "cooler_curr": 70.0, "cooler_startup": 10.0, "laser_fixed_pw": 0, "gain": 1.3, "offset": 2.53059635486, "servo_calib_degree": 3.0, "laser_curr": 55.0, "shutter": 8200.0, "servo_calib_step": 1.0, "laser_fixed_curr": 0, "exp": 2000.0, "ccd_volt": 4.7, "bt_addr": "00:06:66:62:5A:E3", "servo_delay": 500.0, "laser_autooff": 1}
#proc_cfg={"flat_auto_wnd": 200.0, "flat_auto_fr": 200.0, "flat_auto_shift": 5.0, "yconv": 1, "flatten": 1, "flatten_strength": 100.0, "xfrom": 300.0, "auto_max_frame": 2000.0, "auto_signal": 48000.0, "flat_auto_tol": 0.1, "autoclip": 1, "xrel_range": 0.0, "flat_auto_to": 4000.0, "intensity_adj": 1.0, "xrel": 7852.0, "rmhot": 1, "flat_auto_slit": 4.999999999999997, "auto_ini_exp": 300.0, "auto_off": 0, "xto": 2860.0, "flat_auto_ref": "", "flat_auto_rank": 1, "autobackg": 0, "xrel_adj": 0.0, "auto_black_lvl": 1, "base_wnd": 100.0, "sub_baseline": 0, "xconv": 2, "auto_max_exp": 1000.0, "auto_total_exp": 10000.0, "auto_exp": 0, "rmripple": 0, "black_lvl": 8259.3375, "shutter_clip_adj": 0.0, "auto_bckg": 0, "flat_auto_thr": 0.9, "subbackg": 1}
316.8218498245369 10008.505088724414
317.89969571804795 9983.003568905759
318.977263876126 9914.621953314518
320.05455438786703 9793.177427773966
321.1315673423287 9816.546266580392
322.2083028285215 9845.713804983254
323.2847609354267 9820.846419219662
324.3609417519747 9783.80935316511
325.43684536705587 9690.480767139128
326.5124718695279 9638.049562805338
327.58782134820103 9737.464691424188
328.66289389184385 9640.82988695766
329.7376895891921 9534.456914119244
330.8122085289342 9561.705392226357
331.88645079971866 9595.11455931222
332.9604164901575 9546.582344484345
334.03410568881554 9540.641771058958
335.1075184842266 9675.43202956862
336.18065496487543 9509.875614764616
337.2535152192122 9485.434382884636
338.32609933564163 9590.693572776654
339.39840740253203 9496.539558194074
340.4704395082099 9425.532459235113
341.5421957409617 9367.304857394858
342.6136761890357 9477.75225006686
343.6848809406365 9395.221363663515
344.75581008392874 9348.871224767518
345.82646370703696 9346.307615706428
346.8968418980512 9250.566399475003
347.96694474501055 9316.489938347973
349.0367723359268 9282.912673256793
350.106324758759 9251.660407731339
351.1756021014353 9077.914612571007
352.2446044518383 9108.135502929774
353.31333189781435 9248.414129021105
354.38178452716966 9105.31449143944
355.449962427665 9046.846439323861
356.51786568702846 9091.383054686485
357.58549439294256 9104.965041222185
358.6528486330535 9109.197454182035
359.71992849496564 8976.608238948902
360.7867340662433 9026.60592335017
361.8532654344144 8986.147996588921
362.9195226869597 9128.599149179503
363.9855059113288 8766.068412235534
365.05121519492604 8815.480932051902
366.11665062511565 8924.418394247756
367.1818122892273 8927.229682939504
368.2467002745434 8844.14474482461
369.31131466831175 8833.057023669793
370.375655557742 8872.067789233392
371.4397230299983 8875.193024181643
372.5035171722102 8863.839830487368
373.5670380714637 8842.877897127068
374.6302858148101 8930.152940648837
375.6932604892554 8921.180721998027
376.7559621817709 8893.985923983195
377.81839097928605 8781.06521967648
378.8805469686886 8800.939713145128
379.94243023683157 8742.92261250511
381.0040408705263 8862.672725189672
382.0653789565458 8657.850183726781
383.1264445816196 8703.536415427498
384.1872378324406 8704.340801232112
385.2477587956637 8754.720191418144
386.3080075579037 8637.028837990923
387.3679842057336 8529.845786612796
388.4276888256918 8615.464287099112
389.48712150426945 8564.452884815364
390.54628232792857 8580.589573571136
391.6051713830857 8495.597577582808
392.66378875611736 8604.320769284332
393.7221345333637 8515.65636703245
394.7802088011249 8401.249901178566
395.838011645661 8483.409286763188
396.89554315319765 8429.687378788134
397.9528034099112 8425.776430461065
399.00979250194723 8328.191890326223
400.06651051541485 8332.178483561212
401.1229575363741 8383.351102645835
402.17913365085224 8285.077090612296
403.23503894483656 8298.766997833121
404.2906735042761 8245.402727587163
405.3460374150818 8252.674961246634
406.401130763119 8201.460302926786
407.455953634224 8206.984938029671
408.5105061141876 8240.486450413604
409.56478828876243 8124.647219819928
410.6188002436629 8133.380628160972
411.6725420645689 8091.502119465638
412.72601383711117 8180.1639064492465
413.77921564689314 8176.262524065956
414.8321475794728 8044.718448121697
415.88480972036814 8086.753183023973
416.93720215506437 8181.197306460059
417.9893249690049 8044.377061358713
419.04117824759123 8001.239879896119
420.09276207619223 8005.959781399278
421.144076540133 7996.604415251223
422.1951217247042 7951.411631694074
423.24589771515275 7969.783989268381
424.2964045966928 7950.711710453494
425.34664245449494 7943.698995700305
426.3966113736933 7922.423716985388
427.4463114393875 7877.018238271024
428.49574273662984 7893.4990151093825
429.5449053504417 7846.859912157529
430.5937993658026 7889.930512847321
431.6424248676558 7792.341131259517
432.6907819409007 7779.663325643089
433.73887067040596 7861.317080265137
434.7866911409965 7868.430256007317
435.8342434374608 7823.561164508833
436.88152764455117 7678.768791361678
437.9285438469724 7779.926882140344
438.9752921294057 7682.788658023592
440.02177257648145 7711.1939594862215
441.06798527279716 7660.562010567875
442.1139303029122 7708.186546409241
443.1596077513459 7724.818944351393
444.2050177025794 7631.572201362777
445.25016024105753 7682.553512365395
446.2950354511886 7675.073924910879
447.33964341733736 7707.853634788849
448.383984223834 7661.568094561908
449.4280579549686 7595.418105305003
450.471864694995 7597.18144308245
451.5154045281306 7687.9856159662595
452.5586775385509 7642.319891159053
453.60168381039693 7615.368541462408
454.64442342776783 7702.210406509567
455.6868964747264 7694.481317494006
456.7291030353008 7709.183439673366
457.77104319347563 7673.027143421923
458.8127170332027 7744.213136740014
459.854124638392 7675.692118751058
460.895266092919 7732.919021351828
461.93614148061897 7777.489796612431
462.97675088529104 7853.594684800599
464.01709439069236 7819.360216261829
465.0571720805492 7853.945065605423
466.0969840385442 7862.846959609467
467.1365303483253 7963.991110191708
468.17581109350067 7890.028167181797
469.2148263576437 7833.467716348676
470.2535762242878 7917.785855665634
471.29206077693016 7959.517914393592
472.33028009902773 7989.8051565728765
473.3682342740012 7996.690569340269
474.40592338523857 7879.966086553688
475.4433475160804 7922.542824676054
476.4805067498364 7881.647191933531
477.51740116978 7880.970199470228
478.5540308591426 7853.860094629247
479.59039590112116 7911.151486375801
480.6264963788726 7859.997980514604
481.6623323755193 7951.023028719287
482.6979039741436 7885.245494354776
483.7332112577915 7948.564198050774
484.76825430947247 8049.890411094442
485.80303321215797 7988.034307752709
486.837548048783 8004.617851979283
487.8717989022425 8106.024502693811
488.90578585539697 8093.478216488091
489.9395089910686 8150.3240031023815
490.97296839203955 7949.94200004508
492.00616414106116 7957.153637661463
493.0390963208429 7947.987193621519
494.0717650140559 7915.940997844875
495.10417030333883 7808.071019923581
496.1363122712901 7887.10546989088
497.16819100046814 7791.034690577886
498.1998065734024 7696.3520124046745
499.2311590725767 7720.69689224031
500.26224858044407 7678.349092900843
501.2930751794156 7575.429292562573
502.3236389518679 7590.50611340394
503.35393998014115 7487.217858726469
504.38397834653733 7563.577021406582
505.4137541333221 7530.691248734122
506.4432674227228 7404.243466679298
507.4725182969323 7402.775045595103
508.5015068381035 7407.0616525168225
509.53023312835467 7510.291738074768
510.55869724976765 7336.980255867937
511.58689928438434 7298.261318766975
512.6148393142121 7359.175899643832
513.6425174212218 7399.2082018378715
514.6699336873462 7365.8315497982085
515.6970881944835 7378.002311143519
516.7239810244901 7403.1910836663055
517.7506122591931 7436.427273639214
518.7769819803761 7430.866979924671
519.8030902697901 7455.560148796887
520.8289372091476 7503.895965272136
521.8545228801249 7521.476509247179
522.8798473643619 7511.773380366193
523.9049107434621 7485.988109799987
524.9297130989908 7461.850174630471
525.9542545124805 7494.714420512673
526.9785350654201 7463.388066209365
528.0025548392696 7481.162810421394
529.0263139154504 7428.5747245613165
530.0498123753423 7456.134924179858
531.073050300296 7388.094190923284
532.0960277716204 7401.743351539754
533.1187448705896 7248.756232116053
534.1412016784416 7389.764253871008
535.1633982763833 7380.5432866853425
536.1853347455726 7327.957239441715
537.2070111671401 7314.0832808225705
538.2284276221817 7270.281422816786
539.2495841917516 7239.84156346941
540.2704809568677 7144.577411653474
541.2911179985167 7163.172634339043
542.3114953976419 7078.0926976120945
543.3316132351592 7040.689850303688
544.3514715919409 6993.319147020989
545.3710705488247 7009.258511147044
546.3904101866156 6937.640603833532
547.4094905860784 7017.477374154747
548.4283118279418 6963.36476359878
549.4468739929034 6977.522466891662
550.4651771616191 6912.86534776241
551.4832214147063 6893.331734982889
552.501006832761 6905.680184080922
553.5185334963226 6903.672812069126
554.5358014859103 6960.565551365679
555.5528108820035 6938.55827331324
556.5695617650363 6793.993524344679
557.5860542154242 6934.675777051611
558.6022883135283 6879.322621583726
559.6182641396881 6847.705287694213
560.6339817741991 6845.424266103352
561.6494412973225 6920.6538180354355
562.6646427892883 6915.447708431049
563.6795863302796 6921.962838334982
564.694272000459 6877.3749195613445
565.7086998799423 6946.0774447371905
566.7228700488104 6894.394902783211
567.7367825871115 6826.474405970621
568.7504375748576 6885.2886133993425
569.7638350920224 6882.602901984392
570.7769752185486 6819.489984382963
571.7898580343353 6828.684026200695
572.802483619258 6734.190591902121
573.8148520531431 6852.341557449907
574.8269634157932 6793.685329057606
575.8388177869692 6785.089956503914
576.8504152463938 6800.678173543568
577.8617558737587 6814.05196269191
578.8728397487175 6753.043046412214
579.883666950891 6826.02473371753
580.8942375598654 6813.261943767466
581.9045516551851 6816.975095704642
582.9146093163617 6913.116207032916
583.924410622878 6831.916223579656
584.9339556541727 6850.9419844244285
585.9432444896538 7004.709612708854
586.9522772086875 6822.968398120582
587.9610538906127 6874.928700209714
588.9695746147318 6813.436004129377
589.9778394603054 6802.749222406094
590.985848506567 6826.683377130828
591.9936018327098 6732.9638710148765
593.0010995178891 6634.020568750042
594.0083416412344 6729.189217697921
595.0153282818283 6632.27380535656
596.0220595187293 6627.528831320027
597.0285354309508 6542.407776437355
598.0347560974806 6506.934547198659
599.0407215972609 6526.339779282702
600.0464320092051 6459.449187031913
601.0518874121954 6559.675437545008
602.0570878850685 6491.207244337678
603.062033506636 6502.320045568419
604.0667243556636 6498.280833224093
605.0711605108936 6416.517812541277
606.0753420510264 6578.4000703745505
607.0792690547278 6534.804961041148
608.082941600629 6566.196363765664
609.0863597673306 6559.064080538825
610.0895236333909 6549.309473840911
611.0924332773357 6647.565478775597
612.0950887776617 6652.094760026138
613.0974902128219 6709.635890002178
614.0996376612384 6898.403362129246
615.1015312013005 6865.662780542749
616.1031709113595 6842.772548373233
617.1045568697336 6856.2155433686885
618.1056891547069 6977.683624253225
619.1065678445229 6993.353001582992
620.1071930173985 7113.801573035959
621.1075647515099 7199.134850614604
622.1076831250048 7146.533895425423
623.1075482159849 7259.579776433927
624.1071601025305 7287.725774402567
625.1065188626781 7305.575959776403
626.105624574433 7443.567890286753
627.1044773157682 7498.356017816409
628.1030771646128 7482.738320913837
629.1014241988742 7527.86543861625
630.0995184964158 7641.80632627323
631.0973601350688 7513.664628628743
632.0949491926294 7683.091580863105
633.0922857468631 7486.219734883617
634.089369875499 7547.8095727574055
635.0862016562278 7510.337047967058
636.0827811667077 7405.898789458261
637.0791084845641 7458.139083616717
638.0751836873878 7335.190815295316
639.0710068527369 7412.650649355286
640.0665780581294 7242.6816478408755
641.0618973810506 7249.768303998308
642.0569648989604 7174.755925784339
643.0517806892676 7093.240923852705
644.0463448293649 7037.769125710908
645.040657396592 7040.973847455763
646.0347184682723 6998.363639393794
647.0285281216875 6877.745726541694
648.0220864340772 6872.524242039971
649.0153934826558 6756.764597318989
650.0084493446047 6757.8671847173555
651.0012540970674 6724.403362297031
651.9938078171526 6568.378124080879
652.9861105819346 6597.703869669154
653.9781624684565 6666.524560184362
654.9699635537254 6494.968147349303
655.9615139147136 6507.805231522446
656.9528136283589 6460.750680564389
657.9438627715699 6560.674663001222
658.9346614212154 6477.570357918366
659.925209654135 6316.358130491795
660.9155075471263 6413.1707949371275
661.9055551769616 6359.471510602102
662.895352620375 6449.98356909981
663.8848999540678 6382.345936610861
664.8741972547068 6204.962252250158
665.863244598926 6193.943333052634
666.8520420633213 6248.718371272188
667.8405897244611 6176.255048085939
668.8288876588758 6160.960251390023
669.8169359430613 6181.555986996069
670.8047346534822 6189.082113723418
671.7922838665672 6150.577214876912
672.7795836587156 6183.17129402619
673.766634106285 6268.385526148219
674.7534352856092 6112.367661310591
675.7399872729766 6133.006896302967
676.7262901446538 6208.232829108602
677.712343976862 6211.904815578256
678.6981488457986 6165.987722260021
679.6837048276229 6095.221607851974
680.6690119984596 6182.603938588721
681.6540704344043 6159.365056146466
682.6388802115107 6080.531751382207
683.6234414058108 6142.164116684429
684.6077540932874 6048.346906761415
685.591818349907 6055.417791418939
686.575634251587 6073.502612126883
687.5592018742263 6086.369672109355
688.5425212936734 6043.58204700221
689.5255925857564 6082.605276850697
690.5084158262707 6019.910726422683
691.4909910909646 6074.157648295797
692.4733184555644 5995.432614641237
693.4553979957618 6070.484268078467
694.4372297872123 6105.5608406966485
695.4188139055404 5989.13464931593
696.4001504263324 6012.569910151868
697.3812394251509 6162.785139185968
698.3620809775111 6056.918785224205
699.3426751589104 6100.538656063051
700.3230220448004 6032.977383709127
701.3031217106054 6122.911826260896
702.2829742317172 6270.43935487361
703.2625796834873 6114.118752270691
704.2419381412474 6053.873027813678
705.22104968028 6171.037182496504
706.1999143758458 6181.073942378764
707.178532303169 6217.363155034689
708.1569035374378 6284.9229636943555
709.1350281538107 6318.571946210791
710.1129062274158 6447.318092825133
711.0905378333373 6629.47738724806
712.0679230466376 6671.388158384858
713.0450619423427 6895.471348904143
714.0219545954424 7047.174355673528
714.9986010808989 7150.476106280401
715.9750014736292 7314.752235723283
716.9511558485392 7483.883411239542
717.9270642804786 7572.978492060238
718.9027268442787 7717.052628989106
719.8781436147328 7750.079283204385
720.8533146666014 7716.694716334806
721.828240074612 7699.061032866995
722.8029199134635 7569.17642502787
723.7773542578125 7472.828148857562
724.751543182294 7385.8722248466875
725.7254867615029 7201.189167798262
726.6991850700015 7087.830047207633
727.6726381823228 7016.865114649949
728.6458461729599 6993.494102157883
729.6188091163858 6905.335689882195
730.5915270870246 6874.973344345043
731.5640001592856 6834.01751357966
732.536228407529 7000.470809007253
733.5082119060917 6976.555256465251
734.4799507292755 6928.91434775679
735.4514449513481 6966.451014925289
736.4226946465496 7003.372637839343
737.3936998890786 6988.58757365519
738.3644607531078 6817.498590823016
739.3349773127793 6794.166869137671
740.3052496421951 6704.643751769165
741.27527781543 6582.994964149465
742.2450619065221 6491.557052184543
743.2146019894826 6419.273036553793
744.183898138288 6293.6922459259895
745.1529504268801 6212.5784837358115
746.1217589291682 6107.697218516745
747.0903237190341 6046.705445734091
748.058644870318 6036.227806864714
749.0267224568397 5861.277389481718
749.994556552374 5781.658994499279
750.9621472306771 5841.978283216657
751.9294945654583 5807.562953083489
752.8965986304011 5816.614652332506
753.8634594991636 5764.422472648871
754.8300772453586 5765.017027748702
755.7964519425768 5726.78395040903
756.762583664371 5772.565762138537
757.7284724842611 5690.873744124067
758.6941184757416 5684.028551815316
759.6595217122667 5713.8296340857005
760.6246822672638 5713.428016252116
761.5896002141235 5624.503216237993
762.5542756262093 5676.564536409567
763.5187085768503 5702.293779493721
764.4828991393406 5690.963596151294
765.4468473869474 5725.3058473312185
766.4105533929032 5662.552767763116
767.3740172304078 5622.196639492374
768.3372389726283 5703.513432164891
769.3002186926988 5600.815775894011
770.2629564637282 5577.0481336354005
771.2254523587872 5591.950777139867
772.1877064509154 5537.251199467943
773.1497188131179 5467.6033072588725
774.1114895183728 5436.406955996218
775.0730186396268 5461.314124076769
776.0343062497905 5518.791234752152
776.9953524217381 5416.052495234334
777.9561572283274 5437.082984606326
778.9167207423689 5440.589400808971
779.8770430366476 5400.932030741247
780.8371241839159 5444.306237601473
781.7969642568951 5402.075032819193
782.7565633282757 5526.226560417044
783.7159214707099 5398.495199137278
784.6750387568281 5327.825869483206
785.6339152592227 5393.13566260576
786.5925510504512 5377.720782711128
787.5509462030477 5405.275241608761
788.5091007895098 5407.3650015622825
789.4670148823006 5423.675822379287
790.4246885538596 5383.515470204021
791.3821218765861 5413.948260621346
792.3393149228505 5325.288469200251
793.2962677649975 5500.1903766564365
794.2529804753303 5472.200554598798
795.20945312613 5517.331417847585
796.1656857896378 5383.106087828263
797.1216785380675 5400.25784469129
798.0774314435985 5518.477400701909
799.0329445783846 5556.920054727054
799.9882180145414 5466.114894089136
800.9432518241574 5483.845579548432
801.89804607929 5496.394129371676
802.852600851962 5532.708064735036
803.8069162141637 5502.664087284377
804.760992237856 5593.6622098356875
805.714828994971 5496.829906742454
806.6684265574077 5566.108983767687
807.6217849970271 5499.320612341839
808.574904385674 5470.154271734181
809.527784795142 5479.966532827915
810.4804262972102 5635.877663790421
811.4328289636178 5435.739450098032
812.3849928660748 5363.103540535049
813.3369180762638 5387.204442311731
814.2886046658241 5395.854859073965
815.2400527063783 5314.2523213560735
816.1912622695108 5342.723140027533
817.1422334267718 5355.574512491992
818.0929662496856 5256.660421679038
819.0434608097457 5223.9825380607535
819.9937171784059 5204.414445658661
820.9437354271013 5194.945368864515
821.8935156272255 5278.546995668298
822.8430578501484 5149.2680005888005
823.7923621672016 5098.947659612854
824.7414286496896 5182.361266034725
825.6902573688876 5238.149895551397
826.6388483960363 5149.453789038006
827.5872018023492 5118.906107126719
828.5353176590033 5169.702170312962
829.4831960371503 5119.1724638177775
830.4308370079016 5079.345692773057
831.3782406423525 5191.892853487037
832.3254070115545 5176.940036913228
833.2723361865319 5009.768308846259
834.2190282382799 5025.993829822114
835.1654832377644 5139.006046682907
836.1117012559116 5066.092392519467
837.0576823636256 5205.518398133355
838.003426631778 4987.630923278057
838.9489341312074 4991.945236607118
839.8942049327197 5070.0839737400765
840.8392391070975 5150.541553166797
841.7840367250865 5010.972377711797
842.7285978573982 4990.935814025949
843.672922574724 5089.293314182622
844.6170109477152 5003.1274265509
845.560863046996 5132.916671983335
846.5044789431595 4982.918326294979
847.4478587067697 5007.711107261669
848.3910024083561 5115.71172811165
849.333910118421 5069.946274596605
850.2765819074339 5008.514217832818
851.2190178458332 5085.979015618153
852.161218004032 5159.822049538177
853.1031824524016 5114.0438083655345
854.0449112612987 5067.2260224893525
854.9864045010327 5113.4531024364405
855.9276622418947 5053.811214585285
856.8686845541379 5044.5482535754345
857.8094715079915 5040.089559951108
858.7500231736467 5109.190591610143
859.690339621271 5064.2119787401925
860.6304209209939 5094.089890180188
861.5702671429244 5011.655492192304
862.5098783571284 5064.9077631607015
863.4492546336569 5125.172869313906
864.3883960425155 4994.9182412703285
865.3273026536863 5030.371436785907
866.2659745371238 5025.609735651446
867.2044117627465 5155.25458556042
868.1426144004472 5016.297373587518
869.0805825200823 5104.295421464253
870.0183161914847 5112.004821134854
870.9558154844526 5199.0337469109845
871.8930804687552 5146.798834314907
872.8301112141307 5120.470236233538
873.7669077902865 5205.718411701989
874.7034702669062 5232.665838522582
875.6397987136315 5204.350510555378
876.5758932000863 5165.829845595663
877.5117537958522 5295.163792797849
878.4473805704911 5218.138480196965
879.3827735935283 5183.93856112184
880.3179329344603 5238.670113893985
881.2528586627541 5165.308741167819
882.1875508478479 5248.9089072795905
883.1220095591489 5224.530720083202
884.0562348660296 5192.543501921704
884.9902268378391 5286.904584411719
885.9239855438955 5228.088845623066
886.8575110534839 5215.218457382913
887.7908034358588 5133.227915885609
888.7238627602474 5216.588740614269
889.6566890958475 5149.257142857143
890.5892825118208 5076.787869757198
891.5216430773125 5142.776810378228
892.4537708614189 5081.952483950198
893.3856659332196 5065.456074099747
894.3173283617652 5036.636026336468
895.2487582160684 5065.644710499762
896.179955565116 4999.022650321289
897.110920477864 4885.098255987883
898.0416530232451 4958.154416485327
898.9721532701478 4967.430824525608
899.9024212874428 5038.074625626388
900.8324571439662 4975.444032540649
901.7622609085302 4926.485227214578
902.6918326499072 4849.095044649572
903.6211724368477 4956.828250343607
904.5502803380696 4926.824162642841
905.4791564222614 5047.199909672868
906.4078007580792 4921.160515032159
907.3362134141571 4923.005796956847
908.2643944590909 4992.111183604586
909.1923439614493 4923.739921422616
910.1200619897754 4901.061672805956
911.0475486125779 5076.525118652922
911.9748038983344 4968.072300348806
912.9018279155007 4954.713442438299
913.8286207324982 4920.553120911861
914.7551824177117 4881.707913480754
915.6815130395116 4916.055538077811
916.6076126662283 4892.621551944605
917.533481366163 4828.352245973747
918.4591192075914 4956.148041176268
919.3845262587565 4946.284064404388
920.3097025878706 4901.198441859249
921.2346482631237 4907.54382431894
922.1593633526682 4907.951237587256
923.0838479246304 4918.9251169260015
924.0081020471061 4988.195789487804
924.9321257881656 4809.224668751673
925.8559192158464 4881.021390910341
926.7794823981512 4815.38242293554
927.7028154030686 4799.608360106078
928.6259182985414 4765.349001905159
929.5487911524906 4863.6517009567215
930.4714340328119 4818.991084462568
931.3938470073608 4733.301380582278
932.3160301439748 4779.455221777023
933.2379835104548 4804.738787329855
934.1597071745709 4890.1012256198865
935.0812012040769 4874.198671315398
936.002465666681 4806.290599275437
936.9235006300696 4876.042688426283
937.8443061619055 4869.2528163856605
938.7648823298077 4783.5960404770685
939.6852292013809 4816.720996626569
940.6053468441951 4952.862588255137
941.5252353257874 4775.198676246543
942.4448947136698 4817.771501581407
943.364325075323 4809.610611683698
944.2835264782043 4839.446313471065
945.2024989897309 4891.811675622244
946.1212426773054 4870.851217555717
947.0397576082851 4882.867633989188
947.9580438500125 4950.804160722835
948.8761014697939 5002.811460772523
949.7939305349064 4990.641250714834
950.7115311125999 4877.791904650907
951.6289032700952 4875.60353741705
952.5460470745875 5034.860791012027
953.4629625932339 4961.610626765002
954.3796498931715 5034.796536532076
955.2961090415029 4988.166575173456
956.2123401053068 5073.035118316782
957.1283431516276 5011.881078620942
958.0441182474842 4915.0495584151495
958.9596654598663 4994.530851957901
959.8749848557309 4977.815995514151
960.7900765020167 4908.718446081671
961.7049404656209 4961.9583170232
962.6195768134185 4922.144401826183
963.5339856122537 4851.806438464938
964.4481669289453 4897.215520690385
965.3621208302793 4861.118114473212
966.2758473830145 4815.1877157362405
967.1893466538822 4944.921802803576
968.1026187095813 4796.875241486559
969.0156636167867 4856.227647057299
969.9284814421426 4823.2774473291265
970.8410722522622 4797.509841665317
971.753436113735 4760.655124966796
972.6655730931161 4740.8580049277725
973.5774832569368 4838.669828115022
974.4891666716958 4766.559673574723
975.4006234038698 4697.547148683703
976.3118535198955 4681.300179254586
977.2228570861935 4818.386695220364
978.1336341691494 4736.417657359338
979.0441848351202 4729.022468668037
979.9545091504333 4760.211732621248
980.864607181391 4846.249819371907
981.7744789942699 4772.582839702458
982.6841246553086 4817.674749643403
983.5935442307236 4801.632460418402
984.5027377867027 4827.839727623221
985.4117053894024 4822.038038654335
986.3204471049557 4784.867803884028
987.2289629994648 4875.0918408296375
988.1372531390007 4842.617937254852
989.0453175896091 4745.493395996618
989.9531564173067 4790.923332654261
990.860769688079 4781.679809075983
991.7681574678918 4785.321436592134
992.6753198226706 4863.94594015517
993.582256818323 4803.5988265067235
994.4889685207218 4870.447173574275
995.3954549957143 4976.947588245056
996.301716309119 5002.422373569663
997.2077525267232 4885.6702056195345
998.1135637142943 4883.5477243351625
999.0191499375615 4958.892450219434
999.924511262232 4888.150980038879
1000.8296477539861 4940.052040985659
1001.7345594784656 4818.045311788093
1002.6392465012996 4856.191276012545
1003.5437088880753 4937.982749648609
1004.4479467043584 4876.0317626855585
1005.3519600156869 4722.373126813541
1006.2557488875718 4829.983813990686
1007.1593133854858 4798.1238352339915
1008.0626535748888 4788.374178222798
1008.9657695212009 4704.319186932849
1009.8686612898182 4843.466573459787
1010.7713289461135 4795.776900649207
1011.6737725554212 4837.692786358855
1012.5759921830577 4842.376029139504
1013.4779878943027 4794.7503337249855
1014.379759754418 4773.992779790292
1015.2813078286254 4768.899348642708
1016.18263218213 4636.319958263784
1017.0837328801026 4818.745377617972
1017.9846099876886 4916.365706472558
1018.8852635700023 4708.720413098026
1019.7856936921362 4696.677737103048
1020.6859004191447 4778.794791583408
1021.5858838160675 4715.965648543172
1022.4856439479063 4649.576598378144
1023.3851808796389 4619.480568503301
1024.2844946762143 4676.497739751703
1025.183585402554 4639.4364118749345
1026.082453123554 4636.637666117015
1026.9810979040776 4654.523473072571
1027.8795198089647 4582.0023428073055
1028.777718903024 4652.601310762772
1029.6756952510368 4588.378984085304
1030.5734489177648 4589.283141416755
1031.4709799679313 4634.25577733587
1032.3682884662358 4716.729942106482
1033.2653744773506 4561.457054903215
1034.1622380659192 4611.795252201233
1035.058879296559 4658.949466776065
1035.9552982338591 4675.124291748986
1036.8514949423825 4675.284569137017
1037.7474694866614 4627.645148930598
1038.6432219312028 4652.028084017416
1039.5387523404825 4725.536278440242
1040.4340607789582 4724.413685872018
1041.3291473110476 4704.357429555172
1042.2240120011465 4789.7441799309545
1043.1186549136273 4812.214838062408
1044.0130761128294 4708.144134036045
1044.9072756630649 4855.610639748912
1045.8012536286205 4830.643418923907
1046.6950100737577 4805.981426397792
1047.588545062701 4896.1846027503025
1048.481858659663 4842.571485273859
1049.3749509288118 4909.717603985116
1050.2678219343034 4831.539344017543
1051.1604717402515 4806.020217403713
1052.0529004107575 4714.428541809182
1052.9451080098825 4833.629202090706
1053.8370946016694 4792.018006869847
1054.7288602501267 4880.155845331694
1055.6204050192446 4750.190595874206
1056.511728972977 4872.4019539819765
1057.402832175254 4731.837374047947
1058.2937146899785 4686.06440279591
1059.1843765810263 4695.53868719138
1060.0748179122456 4822.930109178707
1060.9650387474576 4789.272912497977
1061.855039150456 4734.6312522209955
1062.7448191850071 4727.802412623507
1063.6343789148505 4644.322889785278
1064.5237184037014 4773.478293621898
1065.412837715241 4588.597407108754
1066.3017369131267 4672.071463744905
1067.190416060992 4670.469086056111
1068.0788752224398 4562.795367437101
1068.9671144610438 4565.333981926952
1069.8551338403558 4641.068843168456
1070.7429334239023 4764.190745627421
1071.6305132751695 4575.312595195465
1072.517873457633 4716.7338897709615
1073.4050140347335 4567.814804013567
1074.2919350698776 4544.049064208791
1075.1786366264623 4537.16132385639
1076.0651187678395 4627.188236528609
1076.95138155735 4540.121233111246
1077.8374250582929 4611.793971529614
1078.7232493339507 4679.7676779249105
1079.608854447577 4679.029423339249
1080.4942404623907 4643.767065310207
1081.3794074415982 4679.632113962308
1082.2643554483657 4714.151430528351
1083.149084545841 4716.846816472295
1084.033594797138 4680.5605220894195
1084.9178862653516 4701.764545304807
1085.8019590135427 4854.118695504372
1086.6858131047484 4739.496694315896
1087.5694486019802 4810.062237837486
1088.4528655682225 4848.4706735943455
1089.3360640664287 4995.578685674553
1090.2190441595321 4753.0875368500765
1091.1018059104317 4926.50986396116
1091.98434938201 4916.804091722353
1092.866674637111 4887.018458144214
1093.748781738559 4853.69911162583
1094.6306707491512 4854.776297481188
1095.5123417316554 4844.619098716356
1096.3937947488157 4924.346035637137
1097.2750298633455 4778.52246926049
1098.156047137938 4764.103247377625
1099.0368466352556 4829.183243587997
1099.9174284179317 4864.567485368235
1100.7977925485757 4735.959424966904
1101.6779390897755 4772.82497367673
1102.5578681040806 4774.401571905229
1103.4375796540226 4659.263726634128
1104.3170738021054 4588.040595277387
1105.1963506108077 4503.412541545715
1106.0754101425773 4526.414539946702
1106.9542524598382 4509.823656969167
1107.8328776249855 4498.768898145412
1108.7112857003904 4484.068210943282
1109.5894767483987 4405.93553790661
1110.4674508313292 4548.625793351433
1111.3452080114657 4552.536249334497
1112.2227483510815 4514.6889656151925
1113.1000719124077 4533.335042600002
1113.9771787576592 4574.3632454178
1114.854068949022 4553.792749402966
1115.7307425486542 4635.2372888994505
1116.6071996186893 4622.140008334373
1117.483440221229 4687.330210738345
1118.3594644183577 4604.0128538829285
1119.235272272128 4697.823855601182
1120.1108638445658 4743.419472075403
1120.9862391976712 4923.731329633762
1121.8613983934229 4767.635306150426
1122.7363414937627 4685.112019519936
1123.6110685606182 4770.157787963736
1124.485579655884 4913.073571953527
1125.359874841426 4835.3481537401185
1126.2339541790916 4808.141634834658
1127.1078177306936 4988.357458752777
1127.9814655580267 4858.606434776718
1128.854897722851 4839.629497771891
1129.7281142869106 4812.15011697354
1130.6011153119125 4865.787053048765
1131.473900859548 4967.301665170891
1132.3464709914697 4837.997829606396
1133.2188257693178 4772.974564521031
1134.0909652546961 4707.826564345818
1134.96288950919 4687.015361763131
1135.8345985943506 4856.908263892936
1136.7060925717087 4583.977402513973
1137.57737150277 4701.043232591925
1138.4484354490069 4673.771496494071
1139.3192844718778 4568.374056930194
1140.1899186327992 4487.171674474279
1141.060337993178 4626.617572421578
1141.930542614382 4517.440214557669
1142.8005325577597 4473.321796262717
1143.670307884635 4245.203858421829
1144.5398686563003 4491.0810979151565
1145.409214934025 4447.994516891981
1146.2783467790541 4197.026717197937
1147.1472642526023 4336.050101133339
1148.0159674158622 4381.47685785899
1148.8844563300026 4327.079344987681
1149.7527310561618 4208.056055498908
1150.6207916554504 4245.106598256833
1151.4886381889592 4167.597561811935
1152.3562707177498 4267.6750087032815
1153.2236893028585 4225.568927084785
1154.090894005296 4102.983355742431
1154.9578848860474 4230.157034024341
1155.8246620060709 4123.296306139984
1156.6912254262988 4144.630119510952
1157.5575752076438 4141.321408759363
1158.42371141098 4295.932782866509
1159.2896340971656 4227.328591064616
1160.1553433270346 4196.745218892316
1161.0208391613887 4176.134487308704
1161.8861216610057 4178.791838374489
1162.75119088664 4280.339055162443
1163.6160468990201 4172.5133711370245
1164.4806897588442 4145.551890618689
1165.3451195267917 4318.631967145766
1166.2093362635114 4287.309809390678
1167.0733400296285 4127.679148082642
1167.9371308857444 4059.546818194963
1168.8007088924278 4187.97586247905
1169.6640741102328 4216.207167468458
1170.5272265996773 4106.935890377425
1171.390166421259 3989.1236417232512
1172.252893635452 4280.66789363039
1173.1154083026995 4281.428615326783
1173.977710483421 4185.605155807449
1174.8398002380145 4119.2612260992955
1175.7016776268483 4243.869534064876
1176.563342710264 4258.955462560437
1177.4247955485826 4148.050910145718
1178.2860362020947 4292.991316722002
1179.147064731069 4131.8465117742435
1180.0078811957483 4236.340711003467
1180.8684856563486 4123.633542789127
1181.7288781730604 4173.931001665106
1182.589058806052 4193.258042844524
1183.4490276154593 4394.142308345375
1184.3087846614017 4311.925495699228
1185.1683300039676 4327.092078767575
1186.027663703222 4408.3723562577225
1186.8867858192025 4348.714089022034
1187.7456964119228 4390.50849536374
1188.6043955413716 4408.902194208027
1189.4628832675116 4497.704970570112
1190.3211596502842 4407.992265639856
1191.179224749596 4497.684968814537
1192.0370786253388 4409.188513812491
1192.8947213373758 4523.39224012364
1193.7521529455407 4640.865618619272
1194.6093735096438 4423.824339914213
1195.466383089477 4464.15085129644
1196.3231817447977 4495.473423984123
1197.1797695353398 4588.372095846711
1198.0361465208189 4396.986691372133
1198.8923127609214 4389.674612249621
1199.7482683153048 4474.295184286589
1200.6040132436028 4539.3957006103
1201.459547605431 4431.13926424086
1202.3148714603722 4312.319394086002
1203.1699848679855 4426.471565936962
1204.0248878878065 4472.242490624001
1204.8795805793507 4251.594379958013
1205.7340630020935 4398.1611719414905
1206.5883352155033 4513.49350236492
1207.4423972790064 4384.196334881033
1208.2962492520237 4355.2190085612565
1209.1498911939307 4369.31518050337
1210.0033231640937 4476.489510121228
1210.8565452218427 4372.152015758972
1211.7095574264913 4257.49027849959
1212.5623598373222 4279.452138666914
1213.4149525135963 4231.595660407012
1214.2673355145507 4366.750823386414
1215.1195088993936 4216.47375896417
1215.9714727273113 4156.90492365862
1216.8232270574663 4416.433004665694
1217.6747719489904 4122.596628089095
1218.5261074609934 4302.760554876268
1219.3772336525653 4288.6641206357
1220.2281505827668 4280.3313100358055
1221.0788583106296 4253.406391895441
1221.9293568951707 4285.000344476777
1222.7796463953746 4083.9726211357483
1223.629726870202 4167.198654850758
1224.4795983785934 4313.248538493007
1225.3292609794553 4156.236598458083
1226.1787147316809 4081.318669606427
1227.0279596941327 4217.80020405513
1227.8769959256424 4218.956930863382
1228.7258234850306 4139.079799019154
1229.5744424310833 4073.0273788951467
1230.422852822563 4227.624913081875
1231.2710547182105 4249.966852658632
1232.119048176739 4067.022696222723
1232.9668332568417 4019.4815391223055
1233.8144100171812 4196.0548056798325
1234.6617785163999 4094.221535975994
1235.508938813111 3918.4118431081633
1236.3558909659114 4007.7291590644536
1237.2026350333617 4175.150699745884
1238.049171074008 4197.420536741928
1238.8954991463652 4006.266160909129
1239.741619308932 4036.00547429558
1240.587531620169 4206.489048220052
1241.4332361385277 4111.837332811474
1242.2787329224248 4033.823026334314
1243.1240220302534 4028.5410874251493
1243.9691035203869 3958.78963008719
1244.813977451171 3974.821179667918
1245.6586438809263 4090.7895691363765
1246.5031028679496 3847.811818894415
1247.3473544705157 4087.8587680055
1248.1913987468706 4117.7852550610605
1249.0352357552383 3878.2294368730095
1249.8788655538228 3904.7011094606833
1250.7222882007918 4095.9834332660785
1251.565503754302 4086.2159165266908
1252.4085122724755 3892.0577858000433
1253.2513138134182 4018.2550230609363
1254.0939084352049 3928.7316098640913
1254.9362961958905 4006.167596473543
1255.7784771535007 4016.646483657341
1256.6204513660432 4132.439962253201
1257.4622188915 4152.275166861769
1258.3037797878242 4043.288307322559
1259.1451341129468 4002.7270155652077
1259.9862819247755 4103.901346945612
1260.8272232811978 4032.6349891445557
1261.6679582400666 4234.33082357963
1262.5084868592203 3903.619467883087
1263.34880919647 4058.552191953006
1264.1889253095997 4121.508328107429
1265.0288352563712 4151.8831655698195
1265.8685390945266 4108.123482441817
1266.7080368817751 4178.358159306188
1267.5473286758115 4168.112214425435
1268.386414534294 4154.41253996863
1269.2252945148703 3917.6171054337756
1270.0639686751547 4089.643064008
1270.9024370727402 4088.8969348378014
1271.7406997651997 3975.16537629731
1272.5787568100714 3993.726132204117
1273.4166082648808 4026.7806955155693
1274.2542541871244 4028.5770166916145
1275.091694634275 4121.279260624665
1275.9289296637817 3992.549780128846
1276.7659593330663 4102.775553539823
1277.6027836995308 4012.8339266967732
1278.4394028205552 4108.317389467424
1279.2758167534867 4035.745107067886
1280.112025555658 4127.297908451231
1280.9480292843746 4005.9175340790634
1281.7838279969128 3937.706725899255
1282.6194217505326 3976.810100008281
1283.4548106024686 3900.653667569318
1284.289994609926 4013.853214724776
1285.1249738300921 4111.221503800256
1285.959748320127 3881.388303741459
1286.7943181371702 3988.7167172827053
1287.6286833383328 4027.858189296586
1288.4628439807038 4066.613356212889
1289.2968001213521 3905.0580953216
1290.1305518173194 4022.679738409441
1290.9640991256183 4053.583399146052
1291.7974421032523 4021.0983913740165
1292.630580807183 4048.492963948431
1293.463515294361 4057.674021991784
1294.29624562171 4079.1591709565932
1295.12877184613 3997.107525987819
1295.961094024493 3961.790609450426
1296.79321221365 4126.01430967643
1297.6251264704333 4256.416537080912
1298.4568368516466 4419.720642914987
1299.2883434140658 4225.620998846188
1300.1196462144526 4102.091102176475
1300.9507453095375 4246.909021594757
1301.7816407560313 4247.445669713877
1302.6123326106172 4224.134787775953
1303.4428209299622 4108.697679362015
1304.2731057707024 4331.865600125452
1305.1031871894502 4076.6270774200843
1305.933065242798 4322.081569985141
1306.7627399873181 4204.154021381566
1307.5922114795467 4564.567692342318
1308.4214797760123 4448.980126617696
1309.2505449332057 4327.559593282211
1310.0794070076026 4385.336765933365
1310.9080660556538 4458.643463341343
1311.736522133786 4377.250469253836
1312.5647752983987 4324.266655642166
1313.3928256058734 4295.259607790466
1314.2206731125661 4408.605423101524
1315.048317874809 4446.530534066841
1315.8757599489109 4378.16750236679
1316.7029993911547 4503.923943375279
1317.5300362578055 4608.698130384868
1318.356870605101 4356.51731740726
1319.183502489257 4392.70534056657
1320.0099319664623 4450.2853761724455
1320.836159092889 4530.872619647675
1321.66218392468 4500.734695677693
1322.4880065179532 4413.87915980946
1323.3136269288134 4442.7458646141
1324.1390452133292 4540.8798153357275
1324.9642614275563 4504.462417293761
1325.7892756275214 4459.827519630764
1326.6140878692295 4330.964206060234
1327.4386982086617 4645.501549860092
1328.2631067017755 4473.903676163505
1329.0873134045069 4461.214300993273
1329.911318372764 4366.96314488714
1330.735121662441 4310.723992850826
1331.558723329399 4268.5460958765525
1332.3821234294774 4214.36458034075
1333.2053220185007 4303.049742097361
1334.0283191522612 4178.4015161509915
1334.851114886529 4298.4468790285155
1335.6737092770582 4180.390976788096
1336.4961023795695 4165.056039502361
1337.3182942497697 4207.933936484663
1338.1402849433325 4187.174745287202
1338.962074515921 4059.394051362583
1339.7836630231632 3949.5560497310444
1340.6050505206676 4270.281906275268
1341.426237064028 4215.261267612784
1342.2472227088037 3974.2092945201357
1343.0680075105338 3929.7461339058036
1343.888591524741 4006.7847038887244
1344.7089748069138 4133.119132332207
1345.5291574125276 4074.1382631637875
1346.3491393970307 3785.8499720931322
1347.168920815846 4001.5358410902772
1347.9885017243778 3980.6910440768324
1348.8078821780036 3934.8211733535113
1349.6270622320844 3966.323766900183
1350.4460419419447 3772.9638904062967
1351.2648213629054 3979.3243193698363
1352.0834005502438 3777.8304604219384
1352.90177955923 3817.07559227039
1353.7199584451064 4003.6458396839143
1354.5379372630887 3932.5177294247273
1355.355716068374 3827.413733364777
1356.1732949161305 3821.1658856345407
1356.9906738615155 3805.084596959618
1357.8078529596478 3879.7899328238905
1358.6248322656375 3913.3129905627475
1359.441611834567 3756.3702222200654
1360.2581917214866 3949.310527894423
1361.0745719814367 3725.378691116029
1361.890752669433 3743.8202566820714
1362.7067338404577 3732.711693141555
1363.5225155494845 3866.0943282137914
1364.3380978514506 3952.594285505583
1365.1534808012839 3665.8615546194487
1365.9686644538815 3534.0968248754025
1366.783648864117 3814.5828373438962
1367.5984340868417 3818.212789790573
1368.413020176893 3809.528854750332
1369.2274071890715 3764.592188385087
1370.0415951781652 3856.494363908828
1370.8555841989346 3752.1997325833836
1371.6693743061223 3667.2974579326064
1372.48296555444 3568.328379137902
1373.2963579985844 3810.5135001781446
1374.1095516932255 3744.9672105652367
1374.9225466930166 3521.5402143988367
1375.7353430525782 3654.746342362562
1376.5479408265164 3545.29955873338
1377.36034006941 3741.759565217184
1378.1725408358216 3742.909584966523
1378.9845431802805 3582.0699244075613
1379.796347157304 3852.7744347387147
1380.6079528213813 3767.8195357601917
1381.4193602269788 3512.9621490355116
1382.230569428546 3611.513429983451
1383.0415804805016 3845.3175518525045
1383.852393437246 3858.8482015068976
1384.6630083531563 3834.817615889134
1385.4734252825892 3682.872857439384
1386.2836442798798 3725.294197375093
1387.0936653993322 3791.361353019455
1387.9034886952395 3644.880723879266
1388.713114221864 3786.7306113748746
1389.5225420334482 3764.909889897852
1390.331772184214 3623.3602020535072
1391.1408047283585 3588.3753638274766
1391.9496397200564 3578.1074893538907
1392.758277213461 3804.674749532918
1393.5667172627054 3754.967716152092
1394.3749599218918 3593.356058176807
1395.1830052451114 3465.0486541160644
1395.9908532864265 3584.6687879646183
1396.7985040998774 3778.4065848546697
1397.6059577394808 3562.8619187848576
1398.4132142592352 3679.9256282588394
1399.2202737131156 3576.33097541694
1400.027136155073 3621.7159766879063
1400.8338016390353 3599.6660172229904
1401.6402702189134 3581.167393155976
1402.446541948586 3542.9538977348466
1403.2526168819204 3482.26814269464
1404.058495072757 3603.2992200260937
1404.8641765749107 3558.9199564340815
1405.6696614421799 3627.8217060066845
1406.4749497283356 3787.873147391723
1407.280041487129 3601.7777695696104
1408.084936772295 3382.4429534866977
1408.8896356375335 3552.2809800846
1409.6941381365323 3654.5404452168414
1410.498444322955 3502.3861379113855
1411.3025542504402 3568.675336291742
1412.106467972606 3522.7161605440842
1412.9101855430508 3630.507343425198
1413.7137070153458 3477.4887431278103
1414.5170324430437 3518.3948763483518
1415.320161879672 3495.994559541779
1416.1230953787435 3751.8475102116195
1416.925832993742 3541.7746620405205
1417.7283747781275 3407.3827112473214
1418.5307207853439 3558.431247255636
1419.3328710688093 3586.328307001896
1420.134825681922 3410.0156314494975
1420.9365846780584 3588.212528679581
1421.7381481105713 3753.6196380294723
1422.539516032788 3656.379238389447
1423.3406884980232 3507.9749684819826
1424.1416655595604 3583.6355796943535
1424.942447270665 3578.1692455399184
1425.7430336845828 3700.947513294212
1426.5434248545298 3500.640240096726
1427.3436208337116 3670.962806012923
1428.143621675301 3803.5328116221885
1428.9434274324558 3753.1823693847664
1429.7430381583108 3592.26329622938
1430.5424539059713 3637.030177328111
1431.3416747285337 4012.898954705817
1432.1407006790632 3744.4089068808266
1432.9395318106053 3759.7127289390432
1433.7381681761835 3682.5620412821017
1434.5366098288014 3839.339502442012
1435.3348568214424 3809.3380153416597
1436.1329092070573 3686.4220872922574
1436.9307670385879 3757.8856814857013
1437.7284303689503 3918.9688389464673
1438.5258992510335 3980.600066061802
1439.3231737377118 3795.5598374833985
1440.1202538818306 3790.978172187436
1440.9171397362225 3733.645117629413
1441.7138313536925 3688.2675428105335
1442.5103287870243 3629.181781041136
1443.3066320889775 3709.2352823725073
1444.1027413122956 3856.835697758596
1444.8986565096966 3666.568916102288
1445.694377733882 3707.0804969412834
1446.4899050375207 3577.816233476761
1447.2852384732687 3527.2830853081387
1448.0803780937622 3844.585086659378
1448.8753239516063 3625.4286821289143
1449.6700760993954 3487.4424023840957
1450.464634589689 3542.5570493759433
1451.2589994750397 3689.278190686079
1452.0531708079689 3504.061352466918
1452.8471486409799 3466.805631255037
1453.6409330265524 3742.3966011883795
1454.4345240171442 3535.3049922645237
1455.2279216651987 3530.276636022918
1456.0211260231263 3547.8255655714174
1456.8141371433194 3589.76076828253
1457.6069550781594 3507.7970026586604
1458.3995798799897 3429.2391448449685
1459.1920116011424 3525.8495660617677
1459.98425029393 3348.481262805354
1460.7762960106338 3460.824533317814
1461.5681488035225 3461.0223764538664
1462.3598087248392 3325.5231678025666
1463.1512758268036 3467.0107482445537
1463.942550161617 3314.313165908051
1464.7336317814625 3275.7013454936628
1465.524520738496 3331.582796341149
1466.3152170848552 3344.91228521714
1467.1057208726506 3314.4158264497855
1467.8960321539817 3184.998383907706
1468.6861509809169 3145.998254656754
1469.4760774055085 3212.1841626389446
1470.265811479785 3307.5548607071164
1471.055353255755 3073.514653529189
1471.844702785409 3199.160756270938
1472.6338601207044 3100.8539480629242
1473.4228253135934 3739.600135852029
1474.2115984159936 3155.0246773696554
1475.0001794798063 2887.8375019149707
1475.7885685569145 3073.1706295550175
1476.576765699172 3214.7879013271436
1477.3647709584238 2965.172537661615
1478.1525843864802 3244.2053895425406
1478.9402060351367 3209.860826983512
1479.7276359561693 3240.1777888732254
1480.514874201328 3018.903985239911
1481.3019208223468 3005.115092690875
1482.0887758709323 2941.6025760669268
1482.8754393987747 3175.3305143458338
1483.6619114575406 2783.0075612630812
1484.4481920988783 3124.683080088661
1485.2342813744108 3096.7853592167708
1486.0201793357446 3154.254806671991
1486.8058860344572 3021.0235338644648
1487.591401522117 3005.1481865284977
1488.3767258502594 3119.888191716786
1489.1618590704056 3034.0727637217547
1489.9468012340494 2870.308789347776
1490.7315523926754 3106.540532594561
1491.5161125977356 3088.3412897242706
1492.3004819006637 2966.442035853438
1493.084660352877 2908.676248336791
1493.8686480057622 2980.16785951426
1494.6524449106964 3227.090928433874
1495.4360511190262 3189.5586911023215
1496.219466682087 2871.8813578219147
1497.0026916511779 3021.1370046156235
1497.7857260775945 2933.785050169468
1498.5685700125996 3104.1777739582567
1499.3512235074395 2966.493379171451
1500.133686613337 2965.2338487619336
1500.9159593814966 2852.5553112476205
1501.698041863101 3224.980407370964
1502.4799341093094 2776.4929895792834
1503.2616361712662 2791.738317591747
1504.043148100087 3101.091907687463
1504.8244699468742 3151.272842360512
1505.6056017626997 2969.934942173259
1506.3865435986281 2849.2903272297895
1507.1672955056893 3085.686189181978
1507.9478575348967 2945.7869832651854
1508.7282297372512 3070.99875152114
1509.5084121637192 3005.73626647575
1510.2884048652577 2958.9492949467394
1511.0682078927948 2926.3439966456876
1511.8478212972423 2820.5599450650543
1512.6272451294917 2933.4780239344836
1513.4064794404076 3077.8048939943533
1514.1855242808433 2896.26622753285
1514.9643797016215 2932.6824585980603
1515.743045753552 2971.5207432645907
1516.5215224874191 3038.4396824801006
1517.2998099539836 2744.5750208404274
1518.077908203999 3010.3451661750832
1518.8558172881785 2920.1313245520664
1519.633537257234 3019.0577364401724
1520.4110681618404 2948.027547488371
1521.1884100526604 3107.2662188911377
1521.9655629803365 3055.937905575179
1522.7425269954856 3106.6865298246075
1523.5193021487103 3120.745051154936
1524.2958884905856 2878.675059306829
1525.0722860716687 2922.5055713682464
1525.848494942502 3035.6846241145986
1526.624515153595 2893.5470933411407
1527.4003467554485 2985.891832358084
1528.175989798534 3042.0691163409283
1528.9514443333064 2969.088935268362
1529.726710410203 3156.4092510406163
1530.5017880796331 2894.201404923807
1531.276677391992 2984.844949686382
1532.0513783976457 3125.5148644020214
1532.825891146953 2953.328779955858
1533.6002156902414 3057.5686194821387
1534.3743520778207 2998.755310652909
1535.1483003599806 2949.7811634688483
1535.9220605869923 2931.7603978960533
1536.6956328091019 3021.567741894417
1537.4690170765407 3034.8532278920807
1538.242213439511 3066.940176193505
1539.015221948208 3048.9554275514793
1539.78804265279 2903.0854055696777
1540.560675603405 2759.4537179821914
1541.3331208501804 3139.255176648253
1542.1053784432224 3126.6653869943766
1542.8774484326168 3094.5773600826305
1543.649330868422 2935.781027813594
1544.4210258006842 3024.9963618193283
1545.1925332794308 2965.226700308819
1545.9638533546604 2902.4190928580397
1546.7349860763552 2757.210236232208
1547.5059314944829 3165.692187470282
1548.27668965898 2933.1752470957563
1549.0472606197673 3008.092619918202
1549.817644426752 2894.929685650873
1550.5878411298072 3010.1338021351394
1551.3578507787988 3002.8944489420437
1552.1276734235635 2964.146868052884
1552.8973091139233 2970.665459457486
1553.6667578996767 3084.372405027642
1554.436019830604 3086.59278881644
1555.20509495646 3002.8566559989185
1555.9739833269869 2892.922064895277
1556.7426849919011 2864.863767190217
1557.511200000903 3270.830048183299
1558.2795284036674 2998.6817161879417
1559.0476702498509 3048.70815389017
1559.8156255890954 3096.8830754908413
1560.5833944710157 3183.9396591521995
1561.3509769452048 2955.031473386606
1562.1183730612447 2956.1353775905054
1562.8855828686865 2919.9684414442104
1563.6526064170703 3311.9098740943346
1564.4194437559127 3182.739367778859
1565.1860949347047 2983.837278029139
1565.9525600029283 3291.763730767246
1566.7188390100328 3181.3758855715923
1567.4849320054564 3114.78272366303
1568.250839038612 3028.6440707316006
1569.0165601588997 3072.985100441901
1569.7820954156887 3216.690266867363
1570.5474448583373 3031.5682619803583
1571.31260853618 3033.760313022772
1572.0775864985299 2949.0851988729273
1572.8423787946813 3263.4392695551383
1573.6069854739108 2980.5845089018894
1574.371406585471 3186.8815773554916
1575.1356421785986 3282.8565180340543
1575.899692302506 3049.240264504145
1576.6635570063845 3196.4174497930303
1577.4272363394157 3108.4914947757907
1578.190730350747 3160.602424552596
1578.9540390895163 3114.840162751668
1579.7171626048384 2968.06406364802
1580.480100945806 2999.7065362344974
1581.2428541614918 3102.1216502264483
1582.0054223009538 3006.6534579574445
1582.767805413223 3142.4188536298575
1583.5300035473156 3077.4436206577248
1584.292016752228 3207.622361179937
1585.0538450769309 3066.2761742385837
1585.8154885703807 3013.73393695668
1586.5769472815136 2926.414078307236
1587.3382212592405 3109.0775030869636
1588.099310552463 3092.0044533649343
1588.8602152100484 2728.4615798671566
1589.6209352808564 3115.7108507735597
1590.3814708137234 3016.5727891826564
1591.14182185746 2679.921498871684
1591.9019884608679 3111.986302700606
1592.6619706727215 2711.0473107637345
1593.4217685417734 3014.507469831118
1594.1813821167616 3257.0050931758046
1594.9408114464022 2718.103135392036
1595.7000565793933 3002.2583495091394
1596.459117564409 3044.38599010473
1597.2179944501113 2906.1837534152282
1597.9766872851324 3054.895147784392
1598.735196118092 3008.7223775860375
1599.4935209975883 3105.6918350848828
1600.2516619721973 3133.3970994213496
1601.0096190904787 2909.2161292226187
1601.7673924009723 3011.366765455804
1602.524981952196 2922.299894661607
1603.2823877926476 2806.381136231873
1604.0396099708087 2821.24881771088
1604.7966485351371 2819.995012910207
1605.5535035340745 2931.9120890594436
1606.3101750160404 3093.883216416384
1607.0666630294363 2826.8428568530317
1607.822967622642 2700.9758160786314
1608.5790888440224 2806.7344284773962
1609.3350267419137 2905.7978670412263
1610.0907813646445 2869.6881413007045
1610.8463527605145 2900.280271483495
1611.601740977805 3089.3884932878595
1612.356946064785 2951.116842137925
1613.1119680696902 2708.2622137337157
1613.8668070407512 2798.256156055422
1614.6214630261748 2804.580299967043
1615.375936074137 2851.146665046891
1616.1302262328118 2977.517381975407
1616.8843335503425 2925.430348174654
1617.638258074854 2682.6300803950844
1618.391999854457 2950.438780166229
1619.1455589372363 3004.91073271197
1619.8989353712623 2974.270486409325
1620.65212920458 2606.618098207756
1621.4051404852235 2847.3331000690678
1622.1579692611976 2749.71760347958
1622.9106155804966 2731.775098989534
1623.663079491087 2806.4131913942883
1624.4153610409248 2938.0249402546774
1625.1674602779385 2685.8772407901656
1625.9193772500403 2677.0955038021693
1626.6711120051277 2983.9952061230006
1627.4226645910676 2836.0450269253593
1628.174035055721 2662.4600038970807
1628.9252234469168 2794.141218147167
1629.676229812474 2754.2124782117144
1630.4270542001905 3132.2597073962743
1631.1776966578382 2817.571464073352
1631.9281572331747 2730.9725337645345
1632.678435973945 2847.7252851814455
1633.4285329278573 2883.8103806882273
1634.1784481426203 2736.868805764143
1634.9281816659113 2874.5243486893983
1635.677733545388 2935.307804476266
1636.4271038286934 2654.9772136730776
1637.176292563452 2804.521846111763
1637.9252997972635 2815.0055378347893
1638.674125577716 2933.0803182521167
1639.4227699523672 3107.7243037612016
1640.171232968767 2630.358402330301
1640.9195146744423 2931.504478705133
1641.6676151168977 2950.2531262604034
1642.4155343436178 2924.878891065611
1643.1632724020765 2826.265440842501
1643.9108293397167 2895.882895132683
1644.658205203974 2697.9313601992485
1645.4054000422566 3234.3444757566663
1646.1524139019566 2843.3732410278685
1646.8992468304423 2736.1752790038636
1647.6458988750728 2835.228873255444
1648.3923700831765 2918.5373101598734
1649.1386605020743 2754.7670304998296
1649.8847701790564 2843.340246541672
1650.6306991614038 2881.1011305898237
1651.3764474963682 2845.1186351980527
1652.1220152311944 2693.6309925503324
1652.867402413096 2949.718239378359
1653.6126090892776 2631.814517673581
1654.3576353069184 2968.3838028682144
1655.1024811131829 2755.0294563990055
1655.8471465552066 2860.794775931728
1656.5916316801213 2966.222796420489
1657.3359365350298 2898.39766622673
1658.0800611670165 2755.910435027453
1658.824005623148 2885.945993763236
1659.5677699504722 2730.8242003675714
1660.3113541960192 2748.5322311431946
1661.054758406799 2774.0202158678408
1661.7979826297997 2724.2994948044916
1662.5410269119966 2646.195014915148
1663.283891300338 3035.693683825187
1664.0265758417645 2714.770431272639
1664.7690805831826 2860.55432255522
1665.5114055714948 2952.03894983013
1666.2535508535748 2939.4519525908095
1666.9955164762814 2624.0839335001947
1667.7373024864555 2775.9565707083398
1668.478908930916 2869.6572216860122
1669.220335856462 2467.587773204881
1669.9615833098778 2655.389644727674
1670.7026513379296 2645.6880666752563
1671.44353998736 2729.9175446645313
1672.1842493048916 2728.2128805607936
1672.9247793372379 2587.0298641169456
1673.6651301310812 2752.5150225560283
1674.4053017330934 2578.0489656459827
1675.1452941899242 2776.411856336059
1675.885107548207 2378.7350397324653
1676.6247418545518 2546.597125541835
1677.3641971555535 2528.366301750574
1678.1034734977893 2768.201406849736
1678.8425709278108 2640.6317794163356
1679.5814894921605 2688.7111109588213
1680.320229237359 2492.908800303811
1681.0587902098978 2757.96806573235
1681.7971724562685 2530.7625731358085
1682.5353760229264 2661.3066304575045
1683.2734009563173 2520.9185096089027
1684.0112473028657 2531.1332827808646
1684.7489151089794 2651.8566874746075
1685.4864044210462 2607.3918154246303
1686.2237152854377 2448.775243356419
1686.960847748498 2771.122553199379
1687.6978018565642 2525.0620508720317
1688.434577655944 2466.388597660718
1689.1711751929379 2536.8014720089714
1689.9075945138156 2560.924202282099
1690.6438356648396 2595.9792551903115
1691.3798986922448 2185.9346281130647
1692.1157836422499 2534.275103204984
1692.851490561059 2514.4071869162694
1693.587019494853 2493.5810398805884
1694.3223704897991 2317.169591491482
1695.0575435920364 2327.2360348383377
1695.792538847696 2604.4581487849855
1696.527356302886 2460.335501261371
1697.2619960036936 2278.767464488382
1697.9964579961907 2325.216961776092
1698.730742326432 2029.3480067975347
1699.4648490404488 2251.5045068443974
1700.1987781842563 2345.037159168228
1700.9325298038548 2563.3151502311466
1701.6661039452174 2485.6418105198977
1702.3995006543082 2379.3375228958153
1703.1327199770658 2510.891248424861
1703.865761959416 2288.5828084322143
1704.598626647261 2509.477346322892
1705.3313140864866 2340.0669982824093
1706.0638243229587 2322.930352236953
1706.7961574025303 2518.867378474711
1707.528313371029 2398.5708685667514
1708.260292274268 2143.5693082199523
1708.9920941580403 2262.726775430435
1709.7237190681226 2330.122922259353
1710.4551670502697 2394.4872323821032
1711.18643815022 1970.8434975182208
1711.9175324136959 2476.4874923893085
1712.6484498863938 2231.8147046860904
1713.379190614005 2100.4561873586954
1714.109754642188 2386.2475571002506
1714.8401420165883 2202.403914526376
1715.570352782839 2329.946087878141
1716.3003869865497 2401.992270766261
1717.0302446733076 2149.444678978541
1717.7599258886876 2191.6488589032874
1718.4894306782444 2470.4318233093973
1719.2187590875183 2165.609032876122
1719.9479111620203 2296.021388471132
1720.6768869472544 2205.95021458194
1721.4056864887025 2421.9891101986477
1722.1343098318284 2367.878646741715
1722.8627570220742 2223.675895659055
1723.591028104871 2150.517768918295
1724.3191231256242 2073.411824367708
1725.0470421297232 2279.53679635801
1725.7747851625427 2216.4258559464533
1726.5023522694337 2194.4611575994804
1727.2297434957363 2227.306485538755
1727.9569588867635 2036.2276869845075
1728.6839984878152 2363.7581803339203
1729.4108623441734 1926.683558166277
1730.1375505011038 2217.8265959853584
1730.8640630038426 2163.6279067400505
1731.5903998976264 2065.7854401969817
1732.316561227657 2272.3471449017
1733.0425470391274 2064.2494422283758
1733.7683573772065 2276.1553461738645
1734.4939922870508 2016.7963820378886
1735.2194518137949 2147.7197764261878
1735.9447360025606 2255.221434574777
1736.669844898439 2186.7028113379497
1737.3947785465189 2075.90910245479
1738.1195369918605 2060.9519315756565
1738.8441202795093 2033.5707875347216
1739.5685284544943 2143.6663863396
1740.292761561821 2250.720244837191
1741.0168196464838 2190.845716529035
1741.7407027534518 2091.7702679361487
1742.464410927687 2134.4421975466576
1743.187944214118 2068.275034571228
1743.9113026576688 2007.5050513664835
1744.634486303241 2121.9679216418963
1745.3574951957125 2039.1244753321546
1746.0803293799509 2148.6969628056377
1746.8029889008048 2030.5413828003166
1747.5254738031017 2249.239816398615
1748.2477841316504 1975.9052635853209
1748.969919931249 2092.2562883534833
1749.6918812466665 1889.3755588333163
1750.4136681226646 2300.1001485708894
1751.1352806039777 2185.4141206045415
1751.856718735331 1992.9668893323164
1752.5779825614281 2032.4242443574935
1753.2990721269507 2149.0234720641847
1754.0199874765676 2219.20048499354
1754.7407286549314 1927.0904787233303
1755.4612957066693 2022.7770780919677
1756.1816886763954 2121.602707315501
1756.9019076087097 2147.676027245285
1757.6219525481865 2056.9854407593325
1758.3418235393856 2208.5735215014415
1759.061520626854 2142.422358485634
1759.7810438551096 2132.4740083937522
1760.5003932686614 2032.3126906503726
1761.2195689119999 2240.27239974889
1761.938570829594 1951.843339299642
1762.657399065898 2114.635103159258
1763.376053665348 2029.5320266040503
1764.0945346723602 1978.2805111288922
1764.812842131334 2189.0726976080414
1765.5309760866512 1927.941408121797
1766.2489365826787 1935.9867432349627
1766.9667236637597 2088.4942295535648
1767.684337374223 1789.7372607379086
1768.401777758383 1726.7798533303605
1769.1190448605284 1905.8854327185313
1769.836138724937 1905.6236982840048
1770.5530593958665 2108.425469153028
1771.2698069175603 2179.892904301264
1771.9863813342326 2112.3845969844633
1772.702782690094 2038.2604656699598
1773.4190110293293 2096.065785317161
1774.1350663961111 2215.1872811650055
1774.8509488345844 1851.5989600052885
1775.5666583888924 2125.2861149883556
1776.2821951031437 2198.701222869783
1776.9975590214362 1973.1184517742095
1777.7127501878585 2293.7569134476626
1778.4277686464684 2098.455339450934
1779.1426144413108 2249.1757127437245
1779.8572876164162 2134.8026734837777
1780.571788215797 1976.2058535565325
1781.2861162834415 2053.6561995376114
1782.0002718633277 2032.37342764104
1782.7142549994132 1971.5853437133119
1783.4280657356376 2187.048650633804
1784.141704115922 1853.4323512774165
1784.855170184177 1947.8069709171875
1785.5684639842839 2008.2686890198554
1786.2815855601148 1856.90074788607
1786.9945349555237 2075.875414810539
1787.707312214343 1884.7186922243786
1788.4199173803918 2101.8206725877744
1789.132350497468 1831.1894943890707
1789.8446116093583 2001.081054605492
1790.556700759822 2010.53608564869
1791.2686179926077 1656.3729512902598
1791.9803633514493 1991.4211994289485
1792.6919368800554 1845.225258877998
1793.4033386221236 2072.5875412194205
1794.1145686213295 2003.713641995742
1794.8256269213307 2152.2887387151245
1795.536513565774 2152.0900072097616
1796.247228598284 1820.6510608253964
1796.9577720624693 1903.7947954000945
1797.6681440019165 1922.1790933903535
1798.3783444602013 1948.7659907564557
1799.0883734808776 1993.433005705625
1799.7982311074884 2056.197848008618
1800.5079173835475 1914.4425854610654
1801.2174323525633 2090.886124190095
1801.9267760580187 1949.522750892102
1802.635948543386 1941.7467898724935
1803.3449498521113 1738.7376362409173
1804.0537800276325 1957.43473061113
1804.7624391133668 1899.8568541529553
1805.47092715271 1774.292269727644
1806.1792441890484 1885.7082686295648
1806.8873902657433 1960.8211861890954
1807.5953654261448 1955.561003829457
1808.3031697135812 1883.0296766775525
1809.0108031713662 1951.719488758127
1809.71826584279 1889.0168432584292
1810.425557771141 1866.118390152623
1811.1326789996747 2280.4092697228743
1811.839629571632 1956.620258114522
1812.5464095302468 1897.5549868957598
1813.2530189187182 2070.2692879041633
1813.959457780249 1884.2009605272247
1814.6657261580076 1967.6385803429516
1815.371824095153 1990.1809486362502
1816.0777516348262 2061.2534633051027
1816.78350882015 1803.0463310350601
1817.4890956942272 1661.7593832401556
1818.1945123001533 1812.4642176374277
1818.8997586809928 1903.0763644649098
1819.6048348798067 1904.144619087506
1820.3097409396287 1767.694515850141
1821.0144769034796 2034.472070039028
1821.7190428143622 1956.5203476911752
1822.423438715261 2100.0053651072144
1823.1276646491478 1919.3356787533314
1823.8317206589727 1920.7348218286613
1824.5356067876692 1960.710927262593
1825.2393230781581 1901.491816847057
1825.942869573335 1714.4526205017858
1826.646246316086 1840.934292174899
1827.3494533492758 1887.596421048358
1828.052490715756 1938.5187726301458
1828.7553584583547 1989.5136282374576
1829.458056619891 1963.1661225397609
1830.1605852431585 1784.4927124721876
1830.8629443709433 1784.3178808638509
1831.5651340460063 1868.4864755655406
1832.2671543110919 1971.3801041835522
1832.9690052089318 1816.411565425582
1833.6706867822395 1750.8588026175282
1834.3721990737104 2095.832669481346
1835.0735421260233 1892.2026487283595
1835.774715981841 2008.351534878138
1836.4757206838058 2136.220516660375
1837.1765562745459 1671.9541271586968
1837.8772227966747 1633.326938708667
1838.5777202927839 1831.8058001048878
1839.2780488054523 1911.228251429653
1839.9782083772352 1773.921057581664
1840.6781990506806 1980.90609375016
1841.378020868313 1910.011096430851
1842.0776738726418 1871.0732328752977
1842.777158106157 1809.7219528189376
1843.4764736113375 1736.1457529421853
1844.1756204306403 1984.4464046034943
1844.8745986065078 1919.561197336013
1845.5734081813607 1678.029471480349
1846.2720491976124 1758.0272456743362
1846.970521697649 1890.2534961857177
1847.6688257238511 1782.4661544899293
1848.3669613185684 1849.1814868056433
1849.0649285241452 1701.7080997212274
1849.7627273829057 1920.2330283175575
1850.460357937156 1998.1867361356308
1851.1578202291857 1970.8586407748796
1851.8551143012664 1943.942732908281
1852.5522401956569 1979.0053331805805
1853.2491979545957 1881.0234592872835
1853.9459876203055 1691.2101556304629
1854.6426092349902 1656.639273871076
1855.3390628408451 1786.927770796786
1856.0353484800362 1903.7494975637812
1856.7314661947203 1752.3489811401541
1857.4274160270397 1751.1185576050332
1858.123198019115 1864.0576447162887
1858.8188122130487 1813.6095839975776
1859.5142586509319 1875.6627533528172
1860.209537374838 1847.6538562080023
1860.9046484268183 1768.4009136600082
1861.599591848917 1962.4574040744142
1862.294367683151 1767.5818013398614
1862.988975971528 1741.0470940065031
1863.6834167560355 1875.4039683440483
1864.3776900786452 1980.3359059656505
1865.0717959813119 1754.3446072911606
1865.7657345059724 1878.5421964095337
1866.4595056945564 1866.8557838148186
1867.1531095889586 1822.9072504332391
1867.846546231076 1863.722188663825
1868.5398156627743 1863.5535895809576
1869.2329179259123 1801.2541974960866
1869.9258530623283 1949.124065945522
1870.618621113843 1760.4771809353617
1871.3112221222636 1658.347879862204
1872.0036561293764 1676.3298367319244
1872.695923176956 1917.5559590106209
1873.3880233067594 1927.7876422198801
1874.0799565605212 1587.6918052200294
1874.7717229799673 1828.5331323812527
1875.4633226068036 1845.8452740059686
1876.1547554827175 1838.514463944306
1876.8460216493859 1591.8660314666026
1877.5371211484617 1861.83931275892
1878.2280540215852 1950.9104224323678
1878.9188203103804 1694.8591857524957
1879.6094200564548 1862.7378331824889
1880.299853301396 1654.936057354309
1880.9901200867826 1846.9518793210004
1881.6802204541673 1853.6591724962552
1882.3701544450942 1844.352183193711
1883.059922101087 1831.4462659193402
1883.7495234636517 1958.1954789834829
1884.4389585742792 1707.5389181783485
1885.1282274744517 1812.0456516080292
1885.8173302056166 2099.4669083020353
1886.506266809225 1898.3324570816912
1887.195037326701 1644.2716701530621
1887.8836417994517 1757.9954633638997
1888.5720802688702 2016.7667454268249
1889.260352776333 1801.736046104424
1889.9484593632042 1871.1787865830615
1890.63640007082 1850.2577732896486
1891.3241749405151 1720.8119694346344
1892.0117840135954 1801.2265172991538
1892.6992273313572 1770.3870140423285
1893.3865049350788 1612.70613173442
1894.0736168660223 1962.2545895285155
1894.7605631654333 1724.2235153420206
1895.4473438745408 1704.7473599204677
1896.133959034556 1951.1900961240367
1896.820408686679 1789.081398700771
1897.506692872088 1968.919421360286
1898.192811631945 1786.6531214560728
1898.8787650073991 1866.3439187747979
1899.5645530395832 1930.8149543674413
1900.2501757696118 2009.0500037495233
1900.9356332385796 1692.6068938596666
1901.620925487574 1939.6737658452791
1902.3060525576602 1849.779068275751
1902.9910144898859 1928.7799756902964
1903.6758113252872 1636.196064457331
1904.3604431048789 1779.9422800769266
1905.0449098696663 1775.5246600560272
1905.7292116606295 1815.8059765103521
1906.4133485187394 1761.1970194000264
1907.0973204849488 1478.8051140891919
1907.7811276001976 1789.710824421413
1908.4647699053967 1816.3001110037908
1909.1482474414588 1586.1030298769406
1909.8315602492694 1556.3991130868922
1910.5147083696957 1900.4674303277193
1911.1976918436012 1826.6632104241903
1911.880510711815 1725.9609726593062
1912.5631650151681 1702.386345244633
1913.2456547944657 1837.2380767335453
1913.927980090495 1797.0371921807932
1914.6101409440362 1675.5693729575719
1915.2921373958416 1741.4196964099551
1915.9739694866603 1697.4144027865102
1916.655637257214 1939.1643827596413
1917.3371407482136 1710.1619172204878
1918.0184800003572 2002.3039513785213
1918.6996550543154 1810.949126185001
1919.3806659507554 1970.807874983966
1920.0615127303208 1872.7372311244133
1920.7421954336423 1962.985173323502
1921.4227141013343 1818.1633029961984
1922.103068773993 1697.3285631320184
1922.783259492202 1869.4078197100196
1923.4632862965227 1655.4785717599523
1924.1431492275078 1700.2866920192196
1924.8228483256917 1709.8265436435618
1925.5023836315922 1799.6717756317842
1926.1817551857057 1829.9882931100813
1926.8609630285227 1860.426505515446
1927.5400072005123 1899.4075787367844
1928.218887742125 1610.1034543703558
1928.8976046938005 1479.5924920271161
1929.5761580959588 1872.1251475128515
1930.2545479890086 1948.3506089678115
1930.9327744133352 1756.0720882799367
1931.6108374093164 1889.8725880828702
1932.2887370173066 2050.3670006068105
1932.9664732776473 1924.9625172625026
1933.6440462306673 1799.2002490769705
1934.3214559166754 1654.6574124405863
1934.9987023759659 1759.5428871137362
1935.675785648813 1737.6958450205123
1936.3527057754836 1489.1917076030218
1937.029462796223 1578.555341581033
1937.70605675126 1668.1465929594438
1938.3824876808085 1788.8905980577522
1939.058755625072 1572.8312649210736
1939.7348606242267 1664.2487525796357
1940.4108027184448 1762.5700243822964
1941.0865819478713 1959.540561558877
1941.7621983526478 1621.2128202341046
1942.4376519728921 1576.129207857381
1943.1129428487038 1681.4549837971558
1943.7880710201734 1748.580943947929
1944.4630365273733 1852.3183055448958
1945.1378394103576 1493.5226745684859
1945.8124797091714 1488.289596593346
1946.4869574638324 1482.9940798511595
1947.161272714353 1729.4457889217222
1947.8354255007234 1870.0940854371552
1948.5094158629272 1768.3696006019
1949.1832438409183 1705.142703468501
1949.8569094746435 1793.8135686849087
1950.530412804037 1845.8115952616977
1951.2037538690092 1789.25860014094
1951.8769327094578 1668.5059232372798
1952.5499493652678 1796.2470639311953
1953.222803876306 1741.3044349594588
1953.895496282421 1698.846417623571
1954.5680266234522 1599.749718379569
1955.2403949392155 1714.8479297694187
1955.9126012695142 1522.863684863823
1956.5846456541403 1610.6755383189072
1957.2565281328643 1632.2231805062415
1957.9282487454457 1642.1255217052155
1958.5998075316202 1886.7814315970577
1959.27120453112 1749.2685298723234
1959.9424397836501 1619.43090144363
1960.613513328908 1946.1396491683124
1961.2844252065697 1829.9926858743831
1961.9551754563017 1733.2433036524042
1962.6257641177453 1558.6665179972224
1963.29619123054 1522.3766364878763
1963.966456834296 1481.0424787217225
1964.6365609686181 1379.5608823567156
1965.306503673086 1767.3640216720491
1965.976284987275 1604.742578042496
1966.645904950734 1667.6628805521354
1967.315363603002 1583.6281948468875
1967.9846609836077 1710.6021886848769
1968.6537971320486 1738.8852507396325
1969.3227720878222 1575.5530626927082
1969.9915858904042 1500.9818236623964
1970.660238579252 1730.7145912811416
1971.3287301938108 1765.996594835487
1971.997060773514 1429.6375217941645
1972.665230357772 1674.934166174231
1973.3332389859843 1493.9462785517228
1974.0010866975335 1667.618761429716
1974.6687735317864 1680.9718260438215
1975.3362995280932 1851.2105717636125
1976.003664725793 1755.3650489329625
1976.6708691642052 1466.3361384798814
1977.3379128826364 1587.7314915668903
1978.004795920373 1698.2267703759667
1978.6715183166925 1585.6281478153999
1979.3380801108524 1915.475138948664
1980.0044813420973 1792.9437639334596
1980.6707220496555 1465.761115086507
1981.3368022727373 1639.6242141348168
1982.0027220505417 1764.912658568174
1982.66848142225 1400.3121056158218
1983.3340804270283 1487.7804226250842
1983.999519104027 1837.118062951478
1984.6647974923835 1654.3414368248564
1985.329915631215 1713.2565113257483
1985.99487355963 1751.120744092194
1986.6596713167146 1851.3764877184772
1987.3243089415428 1716.0311872825428
1987.9887864731754 1896.9614765908968
1988.6531039506553 1608.9865811775878
1989.3172614130071 1814.3551811191853
1989.9812588992481 1699.6996911148356
1990.645096448372 1572.731853599179
1991.3087740993633 1724.0175660199886
1991.9722918911848 1541.148945736063
1992.635649862792 1583.165353254708
1993.2988480531185 1750.188597406443
1993.9618865010852 1903.3655115110537
1994.6247652455968 1540.063759505561
1995.287484325545 1525.440935033089
1995.9500437798033 1799.444314017387
1996.6124436472292 1513.6618868836165
1997.2746839666706 1607.4764996465935
1997.936764776954 1709.719776363742
1998.598686116895 1686.1600851660592
1999.2604480252903 1855.3618899153419
1999.9220505409212 1530.8913403015101
2000.5834937025593 1566.4849738079727
2001.2447775489582 1482.6624053099285
2001.9059021188514 1681.8482511679947
2002.5668674509616 1486.3601707690445
2003.2276735839987 1617.5173488969444
2003.8883205566508 1791.1031949181404
2004.5488084075987 1600.130941939199
2005.2091371755014 1562.9717141439448
2005.8693068990033 1550.6607982375965
2006.5293176167397 1634.7552005261352
2007.1891693673224 1493.1866609448703
2007.848862189354 1391.9486858377015
2008.5083961214223 1610.519259670539
2009.1677712020955 1470.9547759298844
2009.8269874699254 1612.2504878685775
2010.4860449634598 1878.0448654570166
2011.1449437212177 1830.980528655486
2011.8036837817108 1783.885731668254
2012.4622651834325 1797.985796288347
2013.1206879648653 1752.4451099179155
2013.7789521644736 1880.051495096787
2014.4370578207036 1451.791323646908
2015.0950049719922 1595.1162468252962
2015.7527936567585 1711.4100496060105
2016.4104239134067 1773.065214476758
2017.067895780323 1796.7565565978628
2017.725209295886 1879.7801582942789
2018.3823644984514 1962.989211831801
2019.0393614263648 1648.0781012813197
2019.6962001179545 1415.2506390454996
2020.3528806115355 1405.9794868637096
2021.0094029454067 1396.6908004920422
2021.6657671578487 1596.185070516381
2022.321973287133 1658.3305622693388
2022.9780213715148 1628.6214414997294
2023.6339114492293 1457.3260130986394
2024.2896435585026 1585.3279358578454
2024.9452177375442 1557.7888101857743
2025.600634024544 1772.755837723706
2026.2558924576842 1647.2906551298515
2026.9109930751292 1786.410618471471
2027.565935915025 1799.2405603473885
2028.2207210155066 1812.0922345595366
2028.8753484146964 1706.440820994119
2029.529818150695 1439.2006085703529
2030.1841302615903 1723.9829685208883
2030.8382847854573 1592.2272830566278
2031.4922817603601 1518.9869818272268
2032.1461212243357 1582.2797505065444
2032.7998032154192 1372.4828191385193
2033.4533277716218 1557.2251150102225
2034.1066949309443 1526.8078321300043
2034.7599047313688 1679.8411606494733
2035.4129572108704 1715.2670894368725
2036.0658524074006 1820.0857294097132
2036.7185903589016 1736.6111091083374
2037.3711711032956 1610.0646880153508
2038.023594678496 1571.750248513701
2038.675861122394 1480.4740268368787
2039.3279704728757 1413.4983608176237
2039.9799227678031 1346.5000366420559
2040.6317180450278 1574.4336508771732
2041.2833563423865 1558.689962461483
2041.9348376977014 1703.004256930172
2042.5861621487784 1490.2511008388235
2043.2373297334088 1524.3154970625958
2043.8883404893695 1587.3338113087711
2044.5391944544208 1769.8349694342505
2045.1898916663158 1648.4384471027684
2045.8404321627804 1782.875005659716
2046.4908159815368 1618.4346917401556
2047.1410431602853 1459.2465796103365
2047.7911137367173 1400.6499969978047
2048.441027748504 1384.532508238044
2049.090785233302 1368.3477976281679
2049.7403862287592 1603.5500108884326
2050.389830772503 1489.7399448620015
2051.0391189021466 1375.8648325751553
2051.688250655294 1571.0690420272117
2052.337226069527 1413.4185225394701
2052.986045182417 1680.0075695997705
2053.634708031521 1427.8498478263186
2054.283214654375 1670.285707297505
2054.931565088511 1616.4543008649227
2055.579759371436 1562.529350203302
2056.2277975406523 1714.1388204289397
2056.8756796336384 1797.9669489232972
2057.5234056878617 1425.5812979228206
2058.1709757407752 1457.950279590328
2058.8183898298194 1619.2634566972956
2059.465647992416 1666.0604513449678
2060.1127502659747 1685.553240364608
2060.759696687888 1786.0132988913988
2061.4064872955405 1886.512190159109
2062.053122126292 1712.2462075615517
2062.699601217497 1349.8232457186568
2063.345924606485 1642.7756552285337
2063.992092330587 1643.3279887865908
2064.638104427102 1571.3226175539698
2065.283960933324 1836.4835524833863
2065.92966188653 1823.624477620074
2066.5752073239855 1581.2458600443
2067.2205972829397 1430.745559745496
2067.86583180062 1571.2602923935976
2068.5109109142522 1455.92099001199
2069.15583466104 1577.2572162686563
2069.8006030781708 1698.70796750197
2070.445216202821 1692.6557083362338
2071.089674072153 1874.662305762176
2071.7339767233116 1670.2432096896187
2072.3781241934303 1518.132308627362
2073.0221165196253 1784.82812410117
2073.6659537390024 1662.4108602182562
2074.3096358886505 1613.0581510114164
2074.953163005637 1347.6139281850692
2075.596535127028 1517.779296279409
2076.2397522898664 1347.0278969760864
2076.882814531182 1596.4826970903005
2077.5257218879924 1744.2344926173948
2078.1684743973 1310.6198593088297
2078.8110720960885 1363.0810117905407
2079.453515021336 1763.5481859269762
2080.095803209997 1658.8396412537932
2080.7379366990135 1498.7742235578194
2081.37991552532 1433.9754015956526
2082.0217397258275 1655.6571524312753
2082.6634093374414 1591.4491379156514
2083.3049243970418 1527.23777157422
2083.9462849415067 1563.9245797948156
2084.587491007689 1505.0340481158646
2085.2285426324324 1562.7782428252426
2085.869439852564 1676.168345851677
2086.510182704902 1640.0390112763846
2087.1507712262483 1603.8527851606432
2087.791205453381 1410.598595865105
2088.4314854230743 1681.9250357442215
2089.0716111720867 1400.1657546638266
2089.7115827371617 1323.5156083038605
2090.351400155023 1334.5378824389734
2090.991063462385 1345.6475469430643
2091.6305726959527 1271.2602600334171
2092.2699278924047 1371.06652154922
2092.9091290884153 1471.1341098893074
2093.548176320641 1417.8250284561652
2094.187069625721 1331.0796573656
2094.8258090402887 1582.5106025798793
2095.464394600951 1467.0401065552023
2096.102826344313 1459.2711062059743
2096.741104306955 1384.5361874475852
2097.379228525453 1309.6378151016788
2098.017199036358 1479.451805906181
2098.6550158762147 1778.0958394056747
2099.2926790815527 1512.2010015419428
2099.9301886888825 1714.6321842040256
2100.5675447347076 1722.3712630039076
2101.2047472555114 1866.2402765701597
2101.841796287761 1476.0053603591396
2102.47869186792 1471.6515362850762
2103.1154340324265 1517.1796225027529
2103.752022817709 1521.210214587903
2104.388458260184 1637.1295637959843
2105.024740396251 1581.7584125214973
2105.660869262292 1397.4664375781479
2106.296844894685 1822.9768685655922
2106.93266732978 1605.1315755550938
2107.5683366039284 1316.1914681168903
2108.2038527534532 1495.161497349122
2108.8392158146726 1709.398950866183
2109.4744258238843 1605.8326199652015
2110.1094828173755 1511.648928562658
2110.744386831422 1493.7339574023115
2111.3791379022787 1475.7964880227346
2112.01373606619 1712.0435365433277
2112.648181359389 1509.9394936571546
2113.28247381809 1640.2601884089886
2113.916613478492 1513.8271197607978
2114.550600376786 1604.2857353144534
2115.1844345491445 1669.3481230783327
2115.818116031729 1458.2838675512633
2116.451644860679 1591.34489701307
2117.085021072133 1406.4030071680381
2117.718244702204 1321.0926354370843
2118.3513157869984 1534.791769192319
2118.984234362604 1421.1896162780681
2119.617000465092 1626.6469947100481
2120.249614130529 1822.6000122236521
2120.8820753949585 1505.456978093523
2121.5143842944162 1559.4293847862577
2122.14654086492 1328.8369294159563
2122.7785451424734 1573.4223576045747
2123.4103971630702 1642.8126386139509
2124.042096962681 1712.5449901232073
2124.6736445772767 1587.7779337014767
2125.305040042802 1423.2434749385197
2125.936283395191 1610.649879400731
2126.567374670365 1466.6668883487662
2127.198313904233 1443.6658254035456
2127.8291011326855 1428.507202468882
2128.4597363916037 1413.1471084751931
2129.0902197168507 1426.8161177856136
2129.720551144279 1332.1251090313106
2130.3507307097225 1450.1100428585569
2130.980758449008 1568.158279232594
2131.6106343979427 1369.6152121104658
2132.2403585923203 1785.7127044316935
2132.8699310679276 1776.6238092643507
2133.499351860526 1587.7018841112244
2134.1286210058715 1522.2673293021498
2134.7577385397053 1456.8094523790878
2135.3867044977487 1626.4445929992428
2136.0155189157176 1783.866755295594
2136.644181829308 1707.4602707211748
2137.2726932742025 1365.3937033562581
2137.901053286074 1608.5303405532545
2138.5292619005777 1519.5211682053991
2139.1573191533535 1582.4114967249463
2139.7852250800315 1772.4458397424028
2140.4129797162295 1614.2436436401144
2141.0405830975433 1242.8792143038152
2141.6680352595613 1317.1954243993516
2142.2953362378576 1391.6690121284073
2142.9224860679915 1521.8882641561222
2143.549484785508 1383.0058771397726
2144.1763324259373 1541.3152770921802
2144.803029024799 1412.2675632531696
2145.429574617594 1347.5884317037871
2146.0559692398165 1633.0104620996785
2146.682212926942 1389.0880323818012
2147.308305714432 1424.3339421479345
2147.9342476377333 1711.3554172708937
2148.5600387322847 1461.6657943145478
2149.185679033506 1710.8445630175734
2149.8111685768017 1578.1990222396896
2150.4365073975678 1471.0089062597972
2151.061695531187 1523.331787716254
2151.686733013021 1660.2082157089249
2152.311619878423 1747.5948639993767
2152.9363561627342 1524.1212231731536
2153.560941901278 1507.715864581236
2154.1853771293663 1638.6418907114821
2154.809661882293 1688.7292264685868
2155.433796195348 1702.699666240104
2156.0577801037944 1776.874438670458
2156.681613642895 1551.3716744199903
2157.3052968478896 1571.2539891894896
2157.928829754006 1435.443504822849
2158.552212396462 1477.2076733432657
2159.1754448104566 1479.1918121735484
2159.7985270311783 1309.9488970435762
2160.4214590938027 1310.8303036381474
2161.0442410334927 1274.4209888462383
2161.6668728853874 1478.2733531040774
2162.289354684628 1312.8511108127636
2162.911686466332 1672.4430778864657
2163.533868265602 1686.8929167627896
2164.1559001175337 1881.4649955950651
2164.7777820572046 1733.8305487765924
2165.399514119681 1369.1026296849657
2166.021096340013 1267.5268504787607
2166.6425287532384 1705.4120766738931
2167.263811394385 1633.9933673459495
2167.8849442984574 1682.4163443019067
2168.505927500455 1311.2483142922622
2169.126761035366 1542.5114104005686
2169.7474449381552 1561.4332957208762
2170.367979243778 1591.6420510794267
2170.9883639871823 1622.000374528873
2171.608599203293 1453.630533739682
2172.2286849270276 1818.3281930602013
2172.8486211932886 1715.4747093995434
2173.4684080369625 1408.052045428463
2174.0880454929265 1349.1399702402543
2174.7075335960417 1461.7778895709748
2175.3268723811543 1614.3754260252122
2175.9460618831 1551.5268333116107
2176.565102136701 1431.5365882963474
2177.1839931767627 1513.0773128537483
2177.802735038078 1594.8552668348316
2178.421327755432 1390.6332870176363
2179.0397713635866 1483.0980178682057
2179.658065897298 1215.3860697299087
2180.276211391305 1273.6715566008338
2180.8942078803357 1332.0316971061743
2181.5120553991 1579.9959143756082
2182.129753982299 1493.2562630344285
2182.7473036646206 1637.2222881864068
2183.3647044807367 1532.927715672587
2183.9819564653044 1464.7775276055347
2184.599059652968 1634.963818747352
2185.216014078367 1777.2626391986269
2185.832819776113 1695.0156210466453
2186.4494767808137 1612.4763875691228
2187.065985127063 1614.206686570367
2187.682344849436 1511.463952282943
2188.298555982501 1695.8724353821112
2188.9146185608097 1640.2760105531677
2189.530532618901 1614.430459112397
2190.1462981912937 1558.6433230958075
2190.761915312507 1591.2447517867804
2191.377384017036 1369.336473231261
2191.9927043393654 1555.9722646627993
2192.6078763139667 1288.724199422711
2193.2228999753006 1273.6260519933257
2193.837775357808 1258.5197071932714
2194.452502495922 1125.6993866255393
2195.0670814240602 1480.2579315625164
2195.6815121766285 1440.616959298823
2196.2957947880186 1468.8323930321405
2196.9099292926057 1497.1098978248824
2197.523915724758 1594.9265670231016
2198.137754118825 1607.6346826753115
2198.7514445091456 1794.1069899776114
2199.3649869300443 1476.016380560946
2199.9783814158327 1559.284215098825
2200.5916280008096 1937.439267472037
2201.2047267192593 1806.8951249872691
2201.8176776054515 1649.6989064086447
2202.430480693649 1387.9853436993376
2203.0431360180955 1521.854471148144
2203.6556436130195 1509.9361451836473
2204.268003512645 1636.7400206082411
2204.8802157511727 1428.2391868653365
2205.492280362796 1583.380039238086
2206.1041973816937 1512.9072831158253
2206.715966842032 1384.7353626285371
2207.3275887779655 1404.954839352197
2207.93906322363 1475.7043987274515
2208.550390213153 1698.4407116168186
2209.1615697806465 1588.8469175917874
2209.7726019602105 1480.2147341160241
2210.3834867859277 1371.1667762225093
2210.9942242918787 1552.6662229811254
2211.6048145121167 1396.5772941548066
2212.2152574806914 2045.831544608201
2212.825553231638 1396.3416941988053
2213.435701798975 2001.0367686504535
2214.045703216707 1417.6873454088663
2214.655557518832 1262.9278075930665
2215.2652647393297 1363.294612537161
2215.874824912169 1473.9870995519943
2216.4842380713 1261.861174873488
2217.09350425067 1363.7121603583305
2217.7026234842033 1392.507533890041
2218.311595805819 1626.7248025010565
2218.9204212494133 1331.6874170426886
2219.52909984888 1331.0610528988568
2220.137631638092 1330.3331116185323
2220.7460166509154 1694.085162697204
2221.354254921198 1743.023784449249
2221.9623464827764 1536.5472614642622
2222.5702913694713 1275.0887570863827
2223.178089615096 1405.6819689612407
2223.7857412534486 1483.2687542509307
2224.39324631831 1304.5762415676777
2225.000604843457 1473.0045994592042
2225.607816862641 1504.5748195117799
2226.214882409611 1536.1099208989747
2226.8218015180973 1528.5669921245733
2227.4285742218217 1379.1638178349326
2228.0352005544864 1557.9783135681494
2228.6416805497847 1458.9300533501764
2229.248014241399 1474.1831067984008
2229.8542016629945 1256.0994125136472
2230.460242848223 1665.7437981215712
2231.0661378307304 1784.2400219249525
2231.671886644139 1458.638364523924
2232.277489322065 1311.362849963776
2232.8829458981127 1188.632235570203
2233.48825640587 1627.2645786195478
2234.0934208789095 1909.2677611525583
2234.6984393507955 1862.4786034905787
2235.3033118550793 1745.7066808458324
2235.9080384252975 1510.6724111659955
2236.5126190949723 1491.3960029292753
2237.1170538976166 1263.211598191002
2237.721342866729 1351.9745167740357
2238.32548603579 1440.8847446202926
2238.9294834382763 1541.6393835622043
2239.533335107646 1284.8956674284836
2240.1370410773434 1348.2460558271925
2240.740601380803 1411.6909769202466
2241.3440160514474 1520.060126265736
2241.9472851226783 1596.2819944667528
2242.550408627896 1679.2787359952022
2243.1533866004793 1762.4425619105562
2243.756219073799 1578.226272518086
2244.3589060812064 1449.7746447034779
2244.961447656049 1389.0491324147056
2245.5638438316564 1573.6074311261
2246.166094641343 1764.4700569206584
2246.7682001184166 1450.7490669542499
2247.3701602961664 1453.665673127378
2247.971975207871 1561.9425396898048
2248.5736448867974 1714.959636077562
2249.175169366197 1652.6283351738973
2249.7765486793123 1576.6979828486146
2250.3777828593684 1572.013074627899
2250.9788719395783 1760.9520592737742
2251.579815953146 1650.309462113048
2252.1806149332606 1255.9175847814727
2252.781268913097 1479.1694632981748
2253.381777925817 1308.2439895050522
2253.9821420045737 1416.6757760034502
2254.5823611825035 1606.045485949116
2255.1824354927303 1422.9670827958248
2255.782364968365 1421.6821337273602
2256.38214964251 1420.4397041187904
2256.9817895482483 1443.9950370003125
2257.5812847186553 1563.713680663351
2258.180635186791 1371.1676824284882
2258.779840985704 1570.8178321473447
2259.37890214843 1426.2009664763132
2259.97781870799 1520.1106254068443
2260.5765906973957 1614.200682899343
2261.175218149645 1505.482922485467
2261.773701097718 1813.4154878549277
2262.3720395745895 1446.112175683278
2262.970233613216 1359.546799990351
2263.568283246548 1272.7901726917512
2264.1661885075137 1391.9195488445089
2264.763949429038 1415.651347635767
2265.3615660440246 1388.5618068736217
2265.959038385374 1361.4408422850327
2266.5563664859637 1398.8949585111989
2267.153550378669 1325.4624251727846
2267.7505900963424 1437.6772505184397
2268.3474856718312 1414.612926194096
2268.9442371379664 1326.0316015603034
2269.5408445275643 1299.9230827178487
2270.1373078734377 1334.1563739007818
2270.7336272083758 1368.4660540124219
2271.32980256516 1395.946226898895
2271.925833976562 1599.7266393309226
2272.5217214753357 1816.1618919316884
2273.117465094223 1527.674126904367
2273.7130648659586 1266.2719902020203
2274.308520823257 1516.817381345883
2274.903832998827 1607.6417816382907
2275.4990014253563 1313.146583047323
2276.094026135528 1601.465157758514
2276.6889071620117 1674.7659942916375
2277.2836445374614 1748.1219195598533
2277.878238294519 1508.1534665567553
2278.472688465812 1479.8939457433748
2279.066995083962 1451.5419900396753
2279.6611581815705 1513.0874146386332
2280.255177791232 1329.527734467871
2280.8490539455233 1757.7349450942675
2281.442786677013 1731.2534570927335
2282.0363760182554 1763.9726462377007
2282.6298220017943 1672.2688625724527
2283.223124660155 1580.4813588243003
2283.816284025859 1513.55555391183
2284.4093001314086 1351.2113497651844
2285.002173009292 1697.797898802893
2285.5949026919952 1561.16487022752
2286.1874892119777 1417.1204263986533
2286.7799326016993 1483.069034531525
2287.3722328936 1236.3063895900116
2287.964390120109 1250.1069521376744
2288.556404313642 1622.8600722266297
2289.1482755066027 1535.1943748729673
2289.7400037313873 1447.3170461987545
2290.3315890203703 1590.517216886437
2290.9230314059205 1506.475128033468
2291.5143309203904 1422.343626079342
2292.1054875961236 1279.5872083027825
2292.6965014654506 1714.7726476546347
2293.287372560684 1557.933535244834
2293.878100914131 1492.910049156032
2294.468686558086 1427.7957714014456
2295.059129524827 1591.613802100431
2295.649429846617 1883.1669314636904
2296.239587555716 1639.6924514843133
2296.8296026843636 1595.0840018422823
2297.419475264791 1612.5897066924408
2298.0092053292137 1630.0279455038067
2298.598792909839 1573.792683182401
2299.1882380388597 1461.3204735381362
2299.777540748455 1506.4158223189822
2300.3667010707904 1551.4754696091147
2300.9557190380256 1653.4564991853633
2301.544594682302 1846.9820001078763
2302.1333280357503 1444.842482852269
2302.721919130485 1694.7087604260819
2303.3103679986198 1737.545835744278
2303.898674672242 1579.474106931296
2304.486839183437 1450.3352078452583
2305.0748615642697 1358.213997365962
2305.6627418468015 1266.042254776154
2306.2504800630704 1559.8289223689485
2306.8380762451143 1501.7748040816564
2307.425530424949 1640.3129526850996
2308.012842634582 1779.1563034045398
2308.6000129060103 1808.7650781510415
2309.187041271214 1838.446345113147
2309.773927762164 1684.4347382767846
2310.3606724108213 1608.2695355287142
2310.9472752491274 1311.8575357022662
2311.5337363090184 1524.05913828387
2312.120055622414 1679.5934446831513
2312.706233221221 1360.9397149019355
2313.2922691373424 1451.1048052705178
2313.8781634026564 1407.7722915036318
2314.463916049037 1364.312276578302
2315.049527108342 1591.2435464500384
2315.6349966124235 1719.897892276374
2316.2203245931123 1809.2595716502278
2316.8055110822315 1777.4897895194088
2317.3905561115935 1745.613857005895
2317.9754597129977 1487.894887007385
2318.560221918229 1721.3724766151304
2319.1448427590603 1701.7955945898248
2319.729322267256 1737.8361681990834
2320.313660474563 1774.053032787758
2320.8978574127195 2180.66499598445
2321.481913113452 1575.485796319594
2322.0658276084705 1237.3233348274807
2322.6496009294806 1646.74032663351
2323.233233108165 1973.6726290782358
2323.8167241762058 1834.0326164467388
2324.4000741652617 1787.8843207229152
2324.983283106987 1909.4835069458136
2325.5663510330232 1979.0653661536871
2326.1492779749933 1612.4663840810122
2326.7320639645204 1580.3122366303705
2327.3147090332004 1546.208482249573
2327.897213212629 1537.203574046189
2328.4795765343843 1528.069115498762
2329.0617990300307 1512.1079598515048
2329.643880731124 1842.8570917403208
2330.22582166921 1783.181591013879
2330.807621875816 1662.5750815914557
2331.3892813824623 1494.4543134526293
2331.9708002206517 1424.5597146343923
2332.5521784218818 1549.9370298943518
2333.133416017634 1675.6372008263406
2333.7145130393765 1726.7614551387833
2334.295469518571 1662.1791072891508
2334.876285486658 1837.9614120863093
2335.456960975076 1488.2614180648911
2336.037496015242 1879.6760982600194
2336.6178906385667 1630.2649738031944
2337.198144876451 1724.6895679242043
2337.778258760278 1400.7996183270009
2338.3582323214214 1235.8588168457143
2338.938065591243 1787.4681009510841
2339.517758601087 1765.3714875124485
2340.0973113822965 1608.7518307894718
2340.676723966193 1282.6988635877317
2341.255996384094 1487.7618452024794
2341.835128667295 1670.7628608016682
2342.4141208470883 1887.0062760036483
2342.992972954751 1694.951805888278
2343.5716850215467 1495.5547525957234
2344.1502570787306 1142.9971885619536
2344.7286891575386 1427.2040756019292
2345.3069812892045 1857.8688092086438
2345.885133504944 1711.4521491041123
2346.4631458359618 1674.3840409105237
2347.04101831345 1666.7817791757484
2347.6187509685915 1690.4857810228837
2348.196343832553 1628.706242772568
2348.7737969364935 1402.773243911581
2349.351110311558 1499.7206530347191
2349.9282839888765 1450.0218523727863
2350.5053179995757 1482.526471633233
2351.0822123747585 1263.1017293908283
2351.658967145526 1229.966176016464
2352.2355823429643 1196.8468085620568
2352.812057998144 1626.1555983346907
2353.3883941421263 1271.149179163574
2353.9645908059647 1464.1211404637045
2354.540648020693 1678.6783300273903
2355.116565817336 1585.348453864885
2355.6923442269126 1472.4265878999327
2356.2679832804224 1232.0860531323842
2356.8434830088518 1440.2649592565117
2357.41884344318 1632.8950793383824
2357.994064614377 1584.905737664779
