#exp_cfg={"servo_angle": 0.0, "laser_lim": 100.0, "servo_angle_to": 18.0, "laser_wup": 0.0, "bt_dev": "EnSpectr-25AE3", "laser_wdn_max": 0.0, "frames": 10.0, "servo_used": 0, "servo_calib_use": 0, "laser_wdn_min": 0.0, "servo_pix_from": 90.0, "cooler_tout": 300.0, "servo_angle_from": 0.0, "servo_calib": "[-1.9174921013161362e-09, 3.9322238269163779e-05, -0.27385609119055809, 653.59552119713567]", "laser_autoctl": 0, "servo_pix_to": 3682.0, "laser_pw": 100.0, "cooler_on": 0, "laser_volt": 4.0, "cooler_autoctl": 0, "cooler_curr": 70.0, "cooler_startup": 10.0, "laser_fixed_pw": 0, "gain": 1.3, "offset": 2.53059635486, "servo_calib_degree": 3.0, "laser_curr": 55.0, "shutter": 8200.0, "servo_calib_step": 1.0, "laser_fixed_curr": 0, "exp": 2000.0, "ccd_volt": 4.7, "bt_addr": "00:06:66:62:5A:E3", "servo_delay": 500.0, "laser_autooff": 1}
#proc_cfg={"flat_auto_wnd": 200.0, "flat_auto_fr": 200.0, "flat_auto_shift": 5.0, "yconv": 1, "flatten": 1, "flatten_strength": 100.0, "xfrom": 300.0, "auto_max_frame": 2000.0, "auto_signal": 48000.0, "flat_auto_tol": 0.1, "autoclip": 1, "xrel_range": 0.0, "flat_auto_to": 4000.0, "intensity_adj": 1.0, "xrel": 7852.0, "rmhot": 1, "flat_auto_slit": 4.999999999999997, "auto_ini_exp": 300.0, "auto_off": 0, "xto": 2860.0, "flat_auto_ref": "", "flat_auto_rank": 1, "autobackg": 0, "xrel_adj": 0.0, "auto_black_lvl": 1, "base_wnd": 100.0, "sub_baseline": 0, "xconv": 2, "auto_max_exp": 1000.0, "auto_total_exp": 10000.0, "auto_exp": 0, "rmripple": 0, "black_lvl": 8260.875, "shutter_clip_adj": 0.0, "auto_bckg": 0, "flat_auto_thr": 0.9, "subbackg": 1}
316.8218498245369 15401.113285397267
317.89969571804795 15331.969047416325
318.977263876126 15331.137949022901
320.05455438786703 15172.866093636778
321.1315673423287 15171.768465822413
322.2083028285215 15225.345368076087
323.2847609354267 15055.307150243481
324.3609417519747 15072.067267528782
325.43684536705587 15011.13037089077
326.5124718695279 14880.623136829969
327.58782134820103 14902.487175251339
328.66289389184385 14878.865563533467
329.7376895891921 14691.609283943146
330.8122085289342 14768.506461471756
331.88645079971866 14669.120212207059
332.9604164901575 14576.218438881358
334.03410568881554 14614.688573832289
335.1075184842266 14697.082002674757
336.18065496487543 14453.465967349146
337.2535152192122 14519.034683575883
338.32609933564163 14557.460687564413
339.39840740253203 14440.96239834326
340.4704395082099 14347.13460751253
341.5421957409617 14395.617452190467
342.6136761890357 14524.17826357575
343.6848809406365 14354.707063178726
344.75581008392874 14319.743183464341
345.82646370703696 14309.493776627558
346.8968418980512 14213.480633382915
347.96694474501055 14250.333764361916
349.0367723359268 14137.526279030539
350.106324758759 14164.982870303913
351.1756021014353 14058.086857489801
352.2446044518383 14009.179442072264
353.31333189781435 14013.528998809279
354.38178452716966 14022.208624714407
355.449962427665 13984.332171194696
356.51786568702846 13930.4441288342
357.58549439294256 13991.252337814067
358.6528486330535 13993.171643522426
359.71992849496564 13912.238567989538
360.7867340662433 13830.048063108634
361.8532654344144 13807.02182921641
362.9195226869597 13901.92200526745
363.9855059113288 13596.382446004685
365.05121519492604 13656.098090114838
366.11665062511565 13704.43499675578
367.1818122892273 13708.01586790109
368.2467002745434 13545.390919603471
369.31131466831175 13626.835305367475
370.375655557742 13644.302344145657
371.4397230299983 13660.069969978207
372.5035171722102 13564.104840563265
373.5670380714637 13583.29297616571
374.6302858148101 13637.000545567198
375.6932604892554 13516.863880228955
376.7559621817709 13655.428406245119
377.81839097928605 13498.217684883779
378.8805469686886 13448.772366610976
379.94243023683157 13409.118747788303
381.0040408705263 13411.941147862071
382.0653789565458 13354.023145532352
383.1264445816196 13330.193908857493
384.1872378324406 13315.137402316972
385.2477587956637 13390.914515569006
386.3080075579037 13212.625654523412
387.3679842057336 13215.270281255483
388.4276888256918 13194.768935766022
389.48712150426945 13185.985719289345
390.54628232792857 13133.062386489191
391.6051713830857 13097.49390140968
392.66378875611736 13141.116085819265
393.7221345333637 13066.238504288609
394.7802088011249 12964.366797266002
395.838011645661 13018.92937133337
396.89554315319765 12929.801316824687
397.9528034099112 12926.84823062528
399.00979250194723 12917.080913205104
400.06651051541485 12894.855301077643
401.1229575363741 12878.673788281134
402.17913365085224 12833.129871994453
403.23503894483656 12889.347719243027
404.2906735042761 12740.63900827494
405.3460374150818 12783.998882075251
406.401130763119 12816.355943876342
407.455953634224 12782.554952900333
408.5105061141876 12804.409257633046
409.56478828876243 12646.214052014253
410.6188002436629 12631.474557020743
411.6725420645689 12649.820487964183
412.72601383711117 12664.216314186804
413.77921564689314 12783.709197826003
414.8321475794728 12619.16047355742
415.88480972036814 12567.471283304309
416.93720215506437 12695.679554747554
417.9893249690049 12556.627158674662
419.04117824759123 12499.002166716858
420.09276207619223 12470.075763114033
421.144076540133 12427.946482763902
422.1951217247042 12455.679322859507
423.24589771515275 12502.099730834609
424.2964045966928 12478.962172824646
425.34664245449494 12432.380960659239
426.3966113736933 12413.641859154866
427.4463114393875 12329.85265081828
428.49574273662984 12408.610498097536
429.5449053504417 12350.41382250514
430.5937993658026 12403.547247414437
431.6424248676558 12189.495334343466
432.6907819409007 12196.028828224116
433.73887067040596 12186.34861684704
434.7866911409965 12199.72751852105
435.8342434374608 12161.637566336822
436.88152764455117 12066.02370681633
437.9285438469724 12130.44084208633
438.9752921294057 12077.79112453913
440.02177257648145 12023.60862292445
441.06798527279716 11963.82029257998
442.1139303029122 12064.969573385439
443.1596077513459 12057.07341499715
444.2050177025794 12013.995369793543
445.25016024105753 12039.688210847331
446.2950354511886 11991.564799520605
447.33964341733736 11964.972534816363
448.383984223834 11926.827161146648
449.4280579549686 11916.433464785263
450.471864694995 11917.347471698671
451.5154045281306 12074.289606050008
452.5586775385509 11797.0132656567
453.60168381039693 11908.846414650183
454.64442342776783 12003.719323226722
455.6868964747264 11931.85975255011
456.7291030353008 11887.059433675686
457.77104319347563 12021.96539561386
458.8127170332027 11923.542485853644
459.854124638392 11942.811607255944
460.895266092919 11977.09050948383
461.93614148061897 12016.628624450968
462.97675088529104 12061.128249347606
464.01709439069236 12046.625617380872
465.0571720805492 12041.885144011863
466.0969840385442 12108.79578966431
467.1365303483253 12099.654507093506
468.17581109350067 12070.331511390046
469.2148263576437 12066.751620996092
470.2535762242878 12104.567836475946
471.29206077693016 12192.302184585587
472.33028009902773 12226.636971847456
473.3682342740012 12191.620569599992
474.40592338523857 12137.763406194412
475.4433475160804 12147.872664410797
476.4805067498364 12174.738038290241
477.51740116978 12162.847700702838
478.5540308591426 12228.275572939574
479.59039590112116 12313.448993505413
480.6264963788726 12244.224082926963
481.6623323755193 12402.892534479224
482.6979039741436 12302.835460729573
483.7332112577915 12417.532684279722
484.76825430947247 12541.052142658633
485.80303321215797 12610.886193164308
486.837548048783 12592.433489651656
487.8717989022425 12673.185768476425
488.90578585539697 12717.689687119413
489.9395089910686 12766.754177639445
490.97296839203955 12598.955562258507
492.00616414106116 12494.369125441832
493.0390963208429 12435.93121321841
494.0717650140559 12562.41871836319
495.10417030333883 12374.902084035208
496.1363122712901 12381.852091779529
497.16819100046814 12255.576055256268
498.1998065734024 12168.667415080457
499.2311590725767 12211.935375371202
500.26224858044407 12081.93843914341
501.2930751794156 11998.312298442412
502.3236389518679 12076.238005224823
503.35393998014115 11891.686775327757
504.38397834653733 11906.317944643235
505.4137541333221 12009.396836091444
506.4432674227228 11844.527831585448
507.4725182969323 11859.738013924363
508.5015068381035 11787.208739969403
509.53023312835467 11841.827120277381
510.55869724976765 11832.068321105604
511.58689928438434 11752.128668773697
512.6148393142121 11731.409871072483
513.6425174212218 11741.929467540067
514.6699336873462 11735.729673641348
515.6970881944835 11708.000397067011
516.7239810244901 11641.227874152391
517.7506122591931 11705.20766223987
518.7769819803761 11785.572645446835
519.8030902697901 11747.140191855735
520.8289372091476 11790.262199656634
521.8545228801249 11878.699330491532
522.8798473643619 11747.706186472404
523.9049107434621 11723.232975846246
524.9297130989908 11710.793516376005
525.9542545124805 11735.615745997397
526.9785350654201 11743.207471438644
528.0025548392696 11625.230037277908
529.0263139154504 11612.877165941729
530.0498123753423 11690.880653043288
531.073050300296 11480.369293363203
532.0960277716204 11612.104505469217
533.1187448705896 11543.613306416253
534.1412016784416 11500.646347571452
535.1633982763833 11560.375732280469
536.1853347455726 11480.821419829379
537.2070111671401 11330.295405801002
538.2284276221817 11355.546872026647
539.2495841917516 11334.739018262757
540.2704809568677 11222.730373505365
541.2911179985167 11237.906618366416
542.3114953976419 11139.490333336136
543.3316132351592 11151.42984850801
544.3514715919409 11061.786059122485
545.3710705488247 11124.501472519312
546.3904101866156 11074.631192430988
547.4094905860784 11132.785826488509
548.4283118279418 11113.359721212864
549.4468739929034 11121.896374908865
550.4651771616191 11051.651992325806
551.4832214147063 11078.48553503516
552.501006832761 11124.501927210531
553.5185334963226 11129.141824732516
554.5358014859103 11037.468688444296
555.5528108820035 11078.718832356457
556.5695617650363 10999.29912794258
557.5860542154242 11119.519224295289
558.6022883135283 11061.095236042935
559.6182641396881 10994.381770183822
560.6339817741991 11041.83831853176
561.6494412973225 11159.32775217473
562.6646427892883 11147.964222464178
563.6795863302796 11060.408656776086
564.694272000459 11067.75572825552
565.7086998799423 11099.286463400158
566.7228700488104 10995.804422439953
567.7367825871115 10997.871026311384
568.7504375748576 11075.680521252763
569.7638350920224 11019.645278446684
570.7769752185486 10924.849939142536
571.7898580343353 10898.332433756148
572.802483619258 10857.169027627242
573.8148520531431 10844.64262313632
574.8269634157932 10872.283614711112
575.8388177869692 10842.163037560773
576.8504152463938 10889.105590620975
577.8617558737587 10948.237276297483
578.8728397487175 10894.127385944228
579.883666950891 10941.82594155895
580.8942375598654 10953.59871521013
581.9045516551851 11018.569421073116
582.9146093163617 11137.429743340452
583.924410622878 11037.011634461243
584.9339556541727 11030.854449391129
585.9432444896538 11119.735546609505
586.9522772086875 10963.483651124696
587.9610538906127 11048.91729416759
588.9695746147318 10991.27498145925
589.9778394603054 11001.555430535349
590.985848506567 10975.663386177868
591.9936018327098 10971.412685406984
593.0010995178891 10774.109482083582
594.0083416412344 10823.529510733078
595.0153282818283 10691.373716565675
596.0220595187293 10692.822920227612
597.0285354309508 10687.076867779713
598.0347560974806 10655.535415501867
599.0407215972609 10510.784708581341
600.0464320092051 10564.474323769593
601.0518874121954 10641.440349145267
602.0570878850685 10515.264523790138
603.062033506636 10628.661220666905
604.0667243556636 10612.333943024181
605.0711605108936 10547.210973679816
606.0753420510264 10670.451001166028
607.0792690547278 10704.90876475962
608.082941600629 10653.810179619006
609.0863597673306 10629.096087618818
610.0895236333909 10737.198434161513
611.0924332773357 10842.518572620264
612.0950887776617 10883.44819036136
613.0974902128219 11007.592641107552
614.0996376612384 11140.714557342013
615.1015312013005 11084.37673707064
616.1031709113595 11240.164126736343
617.1045568697336 11197.977118898885
618.1056891547069 11416.870665949007
619.1065678445229 11550.628368553718
620.1071930173985 11764.98815513942
621.1075647515099 11711.663058524724
622.1076831250048 11804.116249636836
623.1075482159849 11885.231006428334
624.1071601025305 11906.57437081446
625.1065188626781 11942.500083040442
626.105624574433 12134.829076574042
627.1044773157682 12156.871666510142
628.1030771646128 12095.41957278903
629.1014241988742 12210.231081978402
630.0995184964158 12253.279340699986
631.0973601350688 12294.738909816933
632.0949491926294 12452.325816618377
633.0922857468631 12171.329384703653
634.089369875499 12322.333388776036
635.0862016562278 12308.763680974296
636.0827811667077 12096.636700530045
637.0791084845641 12217.893388672459
638.0751836873878 11990.210000487577
639.0710068527369 12087.28231197187
640.0665780581294 11979.015084276807
641.0618973810506 11914.868190039702
642.0569648989604 11875.276389031123
643.0517806892676 11717.37547994428
644.0463448293649 11675.699891962411
645.040657396592 11499.899669055598
646.0347184682723 11456.45288685833
647.0285281216875 11340.065362690719
648.0220864340772 11340.205921474391
649.0153934826558 11236.660315295758
650.0084493446047 11222.286946538272
651.0012540970674 11199.337092450362
651.9938078171526 11117.795137276316
652.9861105819346 11075.251784870092
653.9781624684565 11176.381878495189
654.9699635537254 11081.398034894813
655.9615139147136 11024.864662637849
656.9528136283589 10971.901465130668
657.9438627715699 11050.848535622834
658.9346614212154 10896.473735069936
659.925209654135 10761.443422885894
660.9155075471263 10792.726184188086
661.9055551769616 10774.437013773153
662.895352620375 10799.686935006152
663.8848999540678 10684.911093512099
664.8741972547068 10614.222308161845
665.863244598926 10519.828303064143
666.8520420633213 10657.002760694744
667.8405897244611 10528.804025927911
668.8288876588758 10449.801555441645
669.8169359430613 10564.493879533122
670.8047346534822 10493.502112507627
671.7922838665672 10466.252209031834
672.7795836587156 10499.384345151879
673.766634106285 10595.189409901735
674.7534352856092 10413.60259874228
675.7399872729766 10434.131343629006
676.7262901446538 10424.999038573633
677.712343976862 10367.755422695096
678.6981488457986 10362.598557797572
679.6837048276229 10321.75155749846
680.6690119984596 10400.788935202803
681.6540704344043 10338.038445424483
682.6388802115107 10341.981013509188
683.6234414058108 10247.255155153573
684.6077540932874 10205.625386912896
685.591818349907 10215.459730429966
686.575634251587 10227.503614254276
687.5592018742263 10150.615066065558
688.5425212936734 10121.547583312822
689.5255925857564 10166.858295260916
690.5084158262707 10053.098199633174
691.4909910909646 10085.75956481134
692.4733184555644 9992.353181605271
693.4553979957618 10015.972752030497
694.4372297872123 10057.888294991546
695.4188139055404 10040.110954920967
696.4001504263324 9959.770370053988
697.3812394251509 10044.833538578077
698.3620809775111 9988.381820129833
699.3426751589104 10042.921311130443
700.3230220448004 9971.288883519865
701.3031217106054 10057.982126028244
702.2829742317172 10160.109375236254
703.2625796834873 10024.751329294599
704.2419381412474 10043.90912922195
705.22104968028 10220.066861307556
706.1999143758458 10154.88225956582
707.178532303169 10179.927112798583
708.1569035374378 10296.964789570822
709.1350281538107 10403.285269425669
710.1129062274158 10485.148286763317
711.0905378333373 10689.262826723087
712.0679230466376 10667.42309338348
713.0450619423427 10962.317880578801
714.0219545954424 11111.420724921687
714.9986010808989 11246.84557624952
715.9750014736292 11379.545161315882
716.9511558485392 11715.417278261493
717.9270642804786 11823.047639074974
718.9027268442787 12012.420690004445
719.8781436147328 11868.083898057876
720.8533146666014 11963.23047785476
721.828240074612 11922.874148140096
722.8029199134635 11826.475628717917
723.7773542578125 11737.462145047357
724.751543182294 11507.144496094359
725.7254867615029 11471.690900193213
726.6991850700015 11123.024625285576
727.6726381823228 11161.290929330868
728.6458461729599 11089.6759393816
729.6188091163858 11125.881329238035
730.5915270870246 11111.407286778343
731.5640001592856 11093.953171578798
732.536228407529 11311.897614493926
733.5082119060917 11350.500355971008
734.4799507292755 11405.05291801265
735.4514449513481 11394.424015686212
736.4226946465496 11576.109361059778
737.3936998890786 11579.817883019048
738.3644607531078 11346.546422001968
739.3349773127793 11355.141461762625
740.3052496421951 11153.978242514891
741.27527781543 11017.463234082323
742.2450619065221 10819.79595903041
743.2146019894826 10645.533523059708
744.183898138288 10443.612621936334
745.1529504268801 10262.993931236793
746.1217589291682 10070.219943088645
747.0903237190341 9730.784965478819
748.058644870318 9847.458372539371
749.0267224568397 9577.866361504979
749.994556552374 9416.860835205975
750.9621472306771 9371.494135633122
751.9294945654583 9316.96164049173
752.8965986304011 9355.46044750458
753.8634594991636 9187.64192027045
754.8300772453586 9224.214078477338
755.7964519425768 9186.912903389493
756.762583664371 9182.706764783576
757.7284724842611 9127.297457306024
758.6941184757416 9066.395259706458
759.6595217122667 9066.601831998913
760.6246822672638 9040.349695889725
761.5896002141235 8978.144970074074
762.5542756262093 9029.015422028599
763.5187085768503 9062.627602451961
764.4828991393406 9011.008796447863
765.4468473869474 9031.483671629114
766.4105533929032 8990.319025377892
767.3740172304078 8939.784626642677
768.3372389726283 8983.39379696695
769.3002186926988 8819.705891524407
770.2629564637282 8789.518882188477
771.2254523587872 8870.467642431691
772.1877064509154 8848.429310466232
773.1497188131179 8767.191916902613
774.1114895183728 8687.933802332867
775.0730186396268 8731.047590139595
776.0343062497905 8644.811145819698
776.9953524217381 8699.299028025624
777.9561572283274 8656.984253029439
778.9167207423689 8675.046027291619
779.8770430366476 8620.312706361456
780.8371241839159 8605.072032337066
781.7969642568951 8563.753323910762
782.7565633282757 8784.105805141262
783.7159214707099 8602.075951292984
784.6750387568281 8567.409672529144
785.6339152592227 8557.381552103277
786.5925510504512 8521.913841504587
787.5509462030477 8537.569386928615
788.5091007895098 8546.038924250202
789.4670148823006 8496.531028427144
790.4246885538596 8536.811001853097
791.3821218765861 8475.065928650747
792.3393149228505 8494.966195922552
793.2962677649975 8587.764608983158
794.2529804753303 8581.256020393255
795.20945312613 8537.898004779145
796.1656857896378 8576.917953794407
797.1216785380675 8593.371887147263
798.0774314435985 8656.047951991157
799.0329445783846 8768.306695671887
799.9882180145414 8707.824751163143
800.9432518241574 8680.592517122797
801.89804607929 8803.215539428847
802.852600851962 8753.067686717468
803.8069162141637 8794.396586808758
804.760992237856 8767.35028152758
805.714828994971 8764.124468142514
806.6684265574077 8749.993961333656
807.6217849970271 8743.048342299384
808.574904385674 8669.813014697454
809.527784795142 8676.942232401725
810.4804262972102 8821.76900752061
811.4328289636178 8652.094833916693
812.3849928660748 8585.072239338255
813.3369180762638 8585.707746836388
814.2886046658241 8559.227809346812
815.2400527063783 8507.339595664187
816.1912622695108 8379.244616168495
817.1422334267718 8414.30229415057
818.0929662496856 8362.657813611162
819.0434608097457 8287.4997327449
819.9937171784059 8227.123722308883
820.9437354271013 8247.492408859769
821.8935156272255 8289.751915772975
822.8430578501484 8225.0347330638
823.7923621672016 8102.701976559692
824.7414286496896 8184.718006433135
825.6902573688876 8222.532990101157
826.6388483960363 8215.527165744792
827.5872018023492 8153.939172044631
828.5353176590033 8187.771174297343
829.4831960371503 8122.4948324423185
830.4308370079016 8112.112903019193
831.3782406423525 8250.255268828081
832.3254070115545 8096.636799222734
833.2723361865319 8073.503708643759
834.2190282382799 8005.015232436643
835.1654832377644 8009.718983122312
836.1117012559116 8022.10660552987
837.0576823636256 8073.769946936036
838.003426631778 7943.739574703868
838.9489341312074 7831.764617309836
839.8942049327197 8010.635127409858
840.8392391070975 7977.351299716931
841.7840367250865 7938.379076953231
842.7285978573982 7829.243766592917
843.672922574724 7929.620133699429
844.6170109477152 7899.821186721034
845.560863046996 7933.367493578995
846.5044789431595 7872.34319798718
847.4478587067697 7865.492523443533
848.3910024083561 7901.479220097237
849.333910118421 7843.7866186178
850.2765819074339 7908.082188747535
851.2190178458332 7963.398918149005
852.161218004032 8026.545593665297
853.1031824524016 7999.957351920106
854.0449112612987 7938.655402419199
854.9864045010327 8010.380022176888
855.9276622418947 7881.241495993939
856.8686845541379 7827.435520344004
857.8094715079915 7881.847603125307
858.7500231736467 8003.751339157617
859.690339621271 7933.849626760473
860.6304209209939 7938.487002999449
861.5702671429244 7795.821063246202
862.5098783571284 7946.973456467211
863.4492546336569 7868.581605804257
864.3883960425155 7858.45224412139
865.3273026536863 7919.644287201593
866.2659745371238 7876.655857499643
867.2044117627465 8032.656684022167
868.1426144004472 7850.591703076022
869.0805825200823 7968.814395155996
870.0183161914847 7937.7771029284795
870.9558154844526 8083.439273085617
871.8930804687552 7982.124544301412
872.8301112141307 7917.056545413235
873.7669077902865 8039.10350674503
874.7034702669062 8011.933478111723
875.6397987136315 8034.299406862711
876.5758932000863 8116.307498001745
877.5117537958522 8076.615456049896
878.4473805704911 8139.703665381654
879.3827735935283 8081.916906604825
880.3179329344603 8131.944238584484
881.2528586627541 8130.425842576891
882.1875508478479 8188.322053261613
883.1220095591489 8102.996882233609
884.0562348660296 8095.6952069208655
884.9902268378391 8221.150550055905
885.9239855438955 8089.027691741922
886.8575110534839 8073.4330803887515
887.7908034358588 8036.1397987281525
888.7238627602474 8021.731318622713
889.6566890958475 7979.756084427373
890.5892825118208 7907.284669212141
891.5216430773125 7871.427697088182
892.4537708614189 7860.649490495906
893.3856659332196 7835.51145244156
894.3173283617652 7740.953146848617
895.2487582160684 7743.810064567251
896.179955565116 7753.041112483838
897.110920477864 7619.309283913106
898.0416530232451 7730.506923656998
898.9721532701478 7600.193145616968
899.9024212874428 7824.6939370080045
900.8324571439662 7589.928046760564
901.7622609085302 7636.795361434418
902.6918326499072 7474.735604967982
903.6211724368477 7591.9311104458975
904.5502803380696 7641.5165577195385
905.4791564222614 7716.730156569625
906.4078007580792 7549.970389663207
907.3362134141571 7593.6917934647045
908.2643944590909 7668.9929628991285
909.1923439614493 7542.303154837861
910.1200619897754 7496.896912870494
911.0475486125779 7671.883180628502
911.9748038983344 7569.525932066268
912.9018279155007 7526.594167222216
913.8286207324982 7497.70845034541
914.7551824177117 7551.920786510151
915.6815130395116 7537.741086326123
916.6076126662283 7482.658965918119
917.533481366163 7548.357862064801
918.4591192075914 7501.314920589076
919.3845262587565 7541.105318830232
920.3097025878706 7540.197486831714
921.2346482631237 7430.731557413574
922.1593633526682 7518.287716949186
923.0838479246304 7566.299021578949
924.0081020471061 7528.067385238234
924.9321257881656 7410.700158966817
925.8559192158464 7386.123052357155
926.7794823981512 7363.394551084301
927.7028154030686 7370.104869903766
928.6259182985414 7280.6494961284825
929.5487911524906 7502.483509719512
930.4714340328119 7433.053271059226
931.3938470073608 7266.5453617789
932.3160301439748 7459.889984659721
933.2379835104548 7429.765380346733
934.1597071745709 7542.33610919393
935.0812012040769 7461.242730336967
936.002465666681 7456.5572254529525
936.9235006300696 7434.804737363389
937.8443061619055 7471.534335110629
938.7648823298077 7352.686707416266
939.6852292013809 7474.258579572741
940.6053468441951 7506.895384572963
941.5252353257874 7425.588822694275
942.4448947136698 7449.650909109984
943.364325075323 7429.033475624345
944.2835264782043 7483.373809357452
945.2024989897309 7569.834943447594
946.1212426773054 7504.153961366377
947.0397576082851 7499.943712302125
947.9580438500125 7604.105856045882
948.8761014697939 7595.801498601222
949.7939305349064 7644.123370485211
950.7115311125999 7589.482046202562
951.6289032700952 7622.313276869984
952.5460470745875 7669.511068794546
953.4629625932339 7647.316859053591
954.3796498931715 7665.037248228825
955.2961090415029 7618.436216217104
956.2123401053068 7699.7236089764365
957.1283431516276 7621.347951159168
958.0441182474842 7536.394946999639
958.9596654598663 7699.425154103219
959.8749848557309 7614.898732067801
960.7900765020167 7623.739198547026
961.7049404656209 7505.15821909537
962.6195768134185 7521.487840035666
963.5339856122537 7520.206853074245
964.4481669289453 7517.579740092726
965.3621208302793 7484.028564857178
966.2758473830145 7475.340953806927
967.1893466538822 7507.142297560308
968.1026187095813 7441.426268245492
969.0156636167867 7425.8823208143
969.9284814421426 7421.62522923025
970.8410722522622 7367.058568634535
971.753436113735 7326.357223919486
972.6655730931161 7307.251308046914
973.5774832569368 7332.111203818987
974.4891666716958 7386.763805459345
975.4006234038698 7333.568541779993
976.3118535198955 7276.173432377155
977.2228570861935 7359.82588879017
978.1336341691494 7363.070878101385
979.0441848351202 7323.948941839127
979.9545091504333 7346.521673037193
980.864607181391 7489.59897200649
981.7744789942699 7419.665256669663
982.6841246553086 7451.286551874553
983.5935442307236 7377.782406871161
984.5027377867027 7416.523120071637
985.4117053894024 7488.477200370097
986.3204471049557 7478.061424199734
987.2289629994648 7469.102528201338
988.1372531390007 7484.981153380536
989.0453175896091 7389.32213440634
989.9531564173067 7556.943514030028
990.860769688079 7401.398130336902
991.7681574678918 7583.231379644369
992.6753198226706 7551.651144556313
993.582256818323 7508.0729516573265
994.4889685207218 7613.436740197403
995.3954549957143 7717.980312849434
996.301716309119 7644.248085045632
997.2077525267232 7640.908885474421
998.1135637142943 7661.395846255252
999.0191499375615 7742.228162606598
999.924511262232 7611.556405794259
1000.8296477539861 7711.503676790222
1001.7345594784656 7593.620896867152
1002.6392465012996 7604.771604409386
1003.5437088880753 7512.431356853583
1004.4479467043584 7562.082327484617
1005.3519600156869 7313.880423942448
1006.2557488875718 7465.113798378798
1007.1593133854858 7402.799029938731
1008.0626535748888 7453.214388729432
1008.9657695212009 7278.135143806513
1009.8686612898182 7466.149646349128
1010.7713289461135 7380.564093765793
1011.6737725554212 7344.636173393124
1012.5759921830577 7348.327990275282
1013.4779878943027 7395.421605056664
1014.379759754418 7352.723925537923
1015.2813078286254 7300.477600319374
1016.18263218213 7179.439608383301
1017.0837328801026 7256.400147789411
1017.9846099876886 7435.47367098776
1018.8852635700023 7281.286259085389
1019.7856936921362 7201.630697018122
1020.6859004191447 7341.033014421373
1021.5858838160675 7235.061756555087
1022.4856439479063 7132.016355116296
1023.3851808796389 7166.708769494378
1024.2844946762143 7271.982888266555
1025.183585402554 7178.394371597967
1026.082453123554 7036.123276524221
1026.9810979040776 7128.798751123667
1027.8795198089647 7021.506598308741
1028.777718903024 7138.76429896542
1029.6756952510368 7072.086755294491
1030.5734489177648 6997.339720668315
1031.4709799679313 7191.83570562573
1032.3682884662358 7151.368883650401
1033.2653744773506 7026.842416688842
1034.1622380659192 7062.624831677633
1035.058879296559 7126.777921693366
1035.9552982338591 7151.783104026724
1036.8514949423825 7144.298447319164
1037.7474694866614 7136.9399447583055
1038.6432219312028 7145.455469641664
1039.5387523404825 7219.638903467993
1040.4340607789582 7195.595218619994
1041.3291473110476 7238.80707166521
1042.2240120011465 7331.228505701676
1043.1186549136273 7384.083024980251
1044.0130761128294 7298.110645651512
1044.9072756630649 7264.883820987736
1045.8012536286205 7417.33327159788
1046.6950100737577 7417.481256515205
1047.588545062701 7466.9093230457365
1048.481858659663 7448.104435625079
1049.3749509288118 7571.551651381009
1050.2678219343034 7451.029030447522
1051.1604717402515 7493.375230223728
1052.0529004107575 7421.799584802951
1052.9451080098825 7591.694484948393
1053.8370946016694 7490.96957381698
1054.7288602501267 7502.927915082629
1055.6204050192446 7462.380217798556
1056.511728972977 7527.385342198104
1057.402832175254 7459.237597472842
1058.2937146899785 7442.286580252001
1059.1843765810263 7418.373471461515
1060.0748179122456 7549.659874401064
1060.9650387474576 7459.57024954706
1061.855039150456 7448.076440696117
1062.7448191850071 7480.9232856510835
1063.6343789148505 7376.7866030715695
1064.5237184037014 7371.041832617588
1065.412837715241 7337.903831741164
1066.3017369131267 7252.024675542324
1067.190416060992 7274.880905405831
1068.0788752224398 7222.137262270953
1068.9671144610438 7244.24399755576
1069.8551338403558 7152.653079566793
1070.7429334239023 7336.406861522771
1071.6305132751695 7150.874266645553
1072.517873457633 7198.788949994149
1073.4050140347335 7235.094196299535
1074.2919350698776 7178.635607379969
1075.1786366264623 7209.447136699069
1076.0651187678395 7214.883009098948
1076.95138155735 7113.972839866967
1077.8374250582929 7125.943091831317
1078.7232493339507 7237.751335108203
1079.608854447577 7244.367710117958
1080.4942404623907 7150.305190790471
1081.3794074415982 7279.102748222128
1082.2643554483657 7251.062190844037
1083.149084545841 7337.252179362178
1084.033594797138 7228.694702462238
1084.9178862653516 7398.929222076394
1085.8019590135427 7453.143167548178
1086.6858131047484 7366.739626261993
1087.5694486019802 7485.912645827908
1088.4528655682225 7522.340779266818
1089.3360640664287 7605.77186142967
1090.2190441595321 7488.43689359605
1091.1018059104317 7631.463685410314
1091.98434938201 7656.207817589806
1092.866674637111 7610.9295789743755
1093.748781738559 7551.883708013893
1094.6306707491512 7589.958002600531
1095.5123417316554 7606.315802096779
1096.3937947488157 7643.270441499543
1097.2750298633455 7623.921905298473
1098.156047137938 7537.8607977489755
1099.0368466352556 7615.294281798352
1099.9174284179317 7555.015525447074
1100.7977925485757 7435.015325243663
1101.6779390897755 7443.22126652671
1102.5578681040806 7412.50591337357
1103.4375796540226 7389.615665067564
1104.3170738021054 7336.260417247351
1105.1963506108077 7264.708011330622
1106.0754101425773 7261.2221728662025
1106.9542524598382 7220.057825799768
1107.8328776249855 7131.897928786615
1108.7112857003904 7092.028539920687
1109.5894767483987 7128.33606286595
1110.4674508313292 7142.6678158524155
1111.3452080114657 7152.714243645116
1112.2227483510815 7096.114758058027
1113.1000719124077 7081.531252223145
1113.9771787576592 7138.571830094542
1114.854068949022 7138.574436129347
1115.7307425486542 7135.484393813524
1116.6071996186893 7245.527720628733
1117.483440221229 7345.744095743212
1118.3594644183577 7267.4842302598745
1119.235272272128 7281.354961315252
1120.1108638445658 7424.788110787685
1120.9862391976712 7518.466220870736
1121.8613983934229 7404.956098757742
1122.7363414937627 7508.220514455223
1123.6110685606182 7529.350147974044
1124.485579655884 7676.558965457929
1125.359874841426 7642.838925529111
1126.2339541790916 7600.842275887342
1127.1078177306936 7811.7493722350555
1127.9814655580267 7641.769635170221
1128.854897722851 7668.487619221714
1129.7281142869106 7657.374296809183
1130.6011153119125 7764.464837752012
1131.473900859548 7831.381263214823
1132.3464709914697 7573.008521529712
1133.2188257693178 7590.651208473961
1134.0909652546961 7543.650083595511
1134.96288950919 7479.667047105831
1135.8345985943506 7555.767256549681
1136.7060925717087 7434.619681597879
1137.57737150277 7415.693550134776
1138.4484354490069 7374.356741964972
1139.3192844718778 7318.425476892107
1140.1899186327992 7126.2270547344015
1141.060337993178 7298.6957355991635
1141.930542614382 7175.776612458268
1142.8005325577597 7153.480463496718
1143.670307884635 6892.627971807611
1144.5398686563003 7095.934390660919
1145.409214934025 6943.613590496915
1146.2783467790541 6803.26656815905
1147.1472642526023 6839.3177454620645
1148.0159674158622 6963.715268459846
1148.8844563300026 6776.6992721372035
1149.7527310561618 6743.649088174102
1150.6207916554504 6693.17924749267
1151.4886381889592 6715.436123059364
1152.3562707177498 6855.083756920396
1153.2236893028585 6743.460338019145
1154.090894005296 6734.4364010835025
1154.9578848860474 6744.666944186397
1155.8246620060709 6667.640878806972
1156.6912254262988 6729.863942662509
1157.5575752076438 6609.720980805706
1158.42371141098 6677.621787231151
1159.2896340971656 6622.319882790929
1160.1553433270346 6608.570440610683
1161.0208391613887 6611.329289147284
1161.8861216610057 6721.154608465481
1162.75119088664 6610.843714471574
1163.6160468990201 6536.227213359931
1164.4806897588442 6440.4386589710075
1165.3451195267917 6742.868925097592
1166.2093362635114 6642.36529335261
1167.0733400296285 6540.822651797317
1167.9371308857444 6487.91118734275
1168.8007088924278 6486.670003859761
1169.6640741102328 6568.987663392823
1170.5272265996773 6402.271615474956
1171.390166421259 6468.10097508646
1172.252893635452 6579.597996084614
1173.1154083026995 6671.051901426486
1173.977710483421 6624.261491861644
1174.8398002380145 6511.217562500121
1175.7016776268483 6646.740470727358
1176.563342710264 6598.839203898507
1177.4247955485826 6510.739868084898
1178.2860362020947 6585.230485026688
1179.147064731069 6623.227499099827
1180.0078811957483 6696.237368325012
1180.8684856563486 6605.844494979852
1181.7288781730604 6658.793649913227
1182.589058806052 6817.634857799369
1183.4490276154593 6857.565618603131
1184.3087846614017 6687.079928080068
1185.1683300039676 6704.776741187833
1186.027663703222 6925.996724238996
1186.8867858192025 6713.060839160794
1187.7456964119228 6851.961257075093
1188.6043955413716 6933.28040843295
1189.4628832675116 6964.213123100533
1190.3211596502842 6885.356729295365
1191.179224749596 7048.631273124161
1192.0370786253388 6970.371528213215
1192.8947213373758 7072.348546890296
1193.7521529455407 7094.841984686449
1194.6093735096438 7018.050135403222
1195.466383089477 7056.965461372
1196.3231817447977 7105.522409907955
1197.1797695353398 7165.009917965683
1198.0361465208189 7011.344046294177
1198.8923127609214 7093.533787164483
1199.7482683153048 7092.085000949386
1200.6040132436028 7208.1537025747875
1201.459547605431 7111.819854714644
1202.3148714603722 7049.570792932924
1203.1699848679855 7122.651103995112
1204.0248878878065 7144.515688684432
1204.8795805793507 7059.295027274714
1205.7340630020935 7040.27854738683
1206.5883352155033 7211.299969791503
1207.4423972790064 7069.440843206932
1208.2962492520237 6969.351805307566
1209.1498911939307 7041.1689236023185
1210.0033231640937 7178.275748631277
1210.8565452218427 6982.257998504926
1211.7095574264913 7002.268206174709
1212.5623598373222 6935.661883998711
1213.4149525135963 6947.596221949624
1214.2673355145507 6869.387188326041
1215.1195088993936 6733.02130420069
1215.9714727273113 6844.812805336769
1216.8232270574663 6909.051019742275
1217.6747719489904 6732.808562208929
1218.5261074609934 6714.049498304803
1219.3772336525653 6740.157335907296
1220.2281505827668 6840.533161039525
1221.0788583106296 6862.463648517572
1221.9293568951707 6704.686282617935
1222.7796463953746 6644.463215795881
1223.629726870202 6696.0066863715165
1224.4795983785934 6733.837943935006
1225.3292609794553 6718.136019447152
1226.1787147316809 6594.0528883083125
1227.0279596941327 6623.304636274025
1227.8769959256424 6695.69409863191
1228.7258234850306 6735.748203194744
1229.5744424310833 6504.068261770388
1230.422852822563 6632.047193793983
1231.2710547182105 6667.209737136369
1232.119048176739 6639.630628345195
1232.9668332568417 6521.45081800014
1233.8144100171812 6636.909081084134
1234.6617785163999 6669.6290993620405
1235.508938813111 6489.065587476851
1236.3558909659114 6605.526003389471
1237.2026350333617 6646.379058479814
1238.049171074008 6756.215704649849
1238.8954991463652 6525.773090723977
1239.741619308932 6497.345682188813
1240.587531620169 6752.928929406738
1241.4332361385277 6697.906936548565
1242.2787329224248 6546.250198054399
1243.1240220302534 6522.62107767817
1243.9691035203869 6482.646574036485
1244.813977451171 6634.875480606372
1245.6586438809263 6744.251115403003
1246.5031028679496 6394.030371020886
1247.3473544705157 6635.137162098674
1248.1913987468706 6636.186354710548
1249.0352357552383 6505.13523947939
1249.8788655538228 6505.912114952759
1250.7222882007918 6606.297015763774
1251.565503754302 6593.026357545712
1252.4085122724755 6573.5410479074035
1253.2513138134182 6580.699258899096
1254.0939084352049 6565.908704209503
1254.9362961958905 6609.951268071918
1255.7784771535007 6564.238181755846
1256.6204513660432 6537.05334760268
1257.4622188915 6742.8604158935905
1258.3037797878242 6758.661258424919
1259.1451341129468 6671.780532052633
1259.9862819247755 6690.217550162037
1260.8272232811978 6572.841742504315
1261.6679582400666 6778.448626560125
1262.5084868592203 6548.224257548448
1263.34880919647 6600.82241863119
1264.1889253095997 6703.963029371793
1265.0288352563712 6732.857288633182
1265.8685390945266 6612.4739642317845
1266.7080368817751 6622.480843576513
1267.5473286758115 6704.739743328493
1268.386414534294 6690.68589773874
1269.2252945148703 6651.728298154865
1270.0639686751547 6573.0996002537195
1270.9024370727402 6620.871181688186
1271.7406997651997 6530.941273483202
1272.5787568100714 6615.671985181691
1273.4166082648808 6524.287056264928
1274.2542541871244 6606.762845494554
1275.091694634275 6665.5725042069025
1275.9289296637817 6468.952101729009
1276.7659593330663 6559.249409203709
1277.6027836995308 6656.089235598867
1278.4394028205552 6561.137181647799
1279.2758167534867 6584.901255368264
1280.112025555658 6606.125117355119
1280.9480292843746 6519.556931078233
1281.7838279969128 6372.535915224129
1282.6194217505326 6441.585184838512
1283.4548106024686 6338.493777279657
1284.289994609926 6439.334754580535
1285.1249738300921 6573.103407255867
1285.959748320127 6477.378214667691
1286.7943181371702 6522.750126910712
1287.6286833383328 6585.41764865404
1288.4628439807038 6587.070568385517
1289.2968001213521 6476.523387636485
1290.1305518173194 6552.540150844778
1290.9640991256183 6640.3882515975765
1291.7974421032523 6531.267634176942
1292.630580807183 6553.157168224972
1293.463515294361 6617.834281693156
1294.29624562171 6644.639805540462
1295.12877184613 6552.625182183712
1295.961094024493 6687.993723166325
1296.79321221365 6644.732812227354
1297.6251264704333 6773.002028025779
1298.4568368516466 6864.368375361589
1299.2883434140658 6778.557773435273
1300.1196462144526 6692.608157000237
1300.9507453095375 6839.3570577003975
1301.7816407560313 6889.048949041551
1302.6123326106172 6798.128531434629
1303.4428209299622 6766.790922774868
1304.2731057707024 6985.023502734317
1305.1031871894502 6842.52899195834
1305.933065242798 6887.898233231109
1306.7627399873181 6962.72215275058
1307.5922114795467 7100.077422093561
1308.4214797760123 7360.674648943701
1309.2505449332057 7028.832048630781
1310.0794070076026 7044.7443789082345
1310.9080660556538 7157.842495153527
1311.736522133786 7206.627326891716
1312.5647752983987 7134.169838509793
1313.3928256058734 7072.022940168439
1314.2206731125661 7207.515244087571
1315.048317874809 7220.756074083537
1315.8757599489109 7208.838511128798
1316.7029993911547 7246.860222208359
1317.5300362578055 7371.317252834857
1318.356870605101 7260.125469021332
1319.183502489257 7289.430004934492
1320.0099319664623 7321.451513060109
1320.836159092889 7351.203312340449
1321.66218392468 7400.476116259789
1322.4880065179532 7359.276263951343
1323.3136269288134 7271.49397436975
1324.1390452133292 7491.673549151082
1324.9642614275563 7442.265875421481
1325.7892756275214 7443.674049275132
1326.6140878692295 7330.323656005758
1327.4386982086617 7565.955544333699
1328.2631067017755 7462.738582958211
1329.0873134045069 7316.58816014189
1329.911318372764 7235.25740106131
1330.735121662441 7253.211897224942
1331.558723329399 7124.419955863472
1332.3821234294774 7157.086837039741
1333.2053220185007 7172.198144946623
1334.0283191522612 7053.87786068857
1334.851114886529 7008.835230813815
1335.6737092770582 7005.430596757693
1336.4961023795695 7033.514594523398
1337.3182942497697 6864.88285869362
1338.1402849433325 7034.824090057287
1338.962074515921 6799.924378326304
1339.7836630231632 6675.63808265392
1340.6050505206676 6961.828916331372
1341.426237064028 6876.373584247398
1342.2472227088037 6783.5786131975565
1343.0680075105338 6567.605916060422
1343.888591524741 6688.084647525931
1344.7089748069138 6765.239236821935
1345.5291574125276 6546.109882273912
1346.3491393970307 6423.596619030652
1347.168920815846 6541.150441768615
1347.9885017243778 6525.354789117843
1348.8078821780036 6526.0924108537965
1349.6270622320844 6498.12630450956
1350.4460419419447 6500.748661747137
1351.2648213629054 6554.357411746059
1352.0834005502438 6324.46648852755
1352.90177955923 6369.204113427449
1353.7199584451064 6469.962670730624
1354.5379372630887 6400.71607583323
1355.355716068374 6282.408984689763
1356.1732949161305 6298.07882658205
1356.9906738615155 6282.039193005399
1357.8078529596478 6308.123148509402
1358.6248322656375 6326.071233700942
1359.441611834567 6236.043286373411
1360.2581917214866 6445.614377151195
1361.0745719814367 6078.924517110037
1361.890752669433 6080.210081137555
1362.7067338404577 6163.65031633004
1363.5225155494845 6229.158314749859
1364.3380978514506 6385.452681614121
1365.1534808012839 6048.549301445513
1365.9686644538815 6028.9129349247305
1366.783648864117 6361.279131573125
1367.5984340868417 6231.818330738373
1368.413020176893 6257.379736876906
1369.2274071890715 6247.180585685622
1370.0415951781652 6305.242451066667
1370.8555841989346 6052.132250317161
1371.6693743061223 5996.317576030424
1372.48296555444 6039.753532606476
1373.2963579985844 6154.999411432829
1374.1095516932255 6099.816232670468
1374.9225466930166 6047.226573863882
1375.7353430525782 6089.57698808627
1376.5479408265164 5928.157697256932
1377.36034006941 6068.335236929929
1378.1725408358216 6058.0404650015835
1378.9845431802805 5993.218620469872
1379.796347157304 6247.174806804389
1380.6079528213813 6142.237057407715
1381.4193602269788 5953.603465218239
1382.230569428546 5986.608231096498
1383.0415804805016 6200.369265427577
1383.852393437246 6129.970148063223
1384.6630083531563 6187.8135457939115
1385.4734252825892 6018.4367348137885
1386.2836442798798 6128.846353975313
1387.0936653993322 6041.358216757031
1387.9034886952395 5993.480997656091
1388.713114221864 6101.004527644412
1389.5225420334482 6042.088876364137
1390.331772184214 6110.180715154873
1391.1408047283585 5971.752107967935
1391.9496397200564 5862.7590237102295
1392.758277213461 6172.335211962755
1393.5667172627054 6102.016545974824
1394.3749599218918 5958.615901689569
1395.1830052451114 5839.845199010555
1395.9908532864265 5967.894901928318
1396.7985040998774 6111.112590854216
1397.6059577394808 5838.52073072803
1398.4132142592352 5958.026353965913
1399.2202737131156 5945.148751135775
1400.027136155073 5921.69412249201
1400.8338016390353 5827.6437366701675
1401.6402702189134 5826.164256861668
1402.446541948586 5807.941074621007
1403.2526168819204 5781.635915853786
1404.058495072757 5727.5973691365325
1404.8641765749107 5711.37682744708
1405.6696614421799 5793.326864738581
1406.4749497283356 5931.030724769495
1407.280041487129 5806.512261977823
1408.084936772295 5565.8069109313765
1408.8896356375335 5771.559931525034
1409.6941381365323 5818.955614314955
1410.498444322955 5691.779571277561
1411.3025542504402 5749.696139115926
1412.106467972606 5725.570902480095
1412.9101855430508 5728.449546586131
1413.7137070153458 5608.312017595295
1414.5170324430437 5640.903707573531
1415.320161879672 5715.335978890518
1416.1230953787435 5866.3748469889815
1416.925832993742 5674.81291835716
1417.7283747781275 5587.038977677852
1418.5307207853439 5775.878170969256
1419.3328710688093 5743.131946867733
1420.134825681922 5583.624612871314
1420.9365846780584 5754.357625099872
1421.7381481105713 5848.609941980563
1422.539516032788 5874.55626671702
1423.3406884980232 5612.8989205514035
1424.1416655595604 5691.439638554896
1424.942447270665 5781.924831750983
1425.7430336845828 5847.476155788618
1426.5434248545298 5724.894159024145
1427.3436208337116 5805.376744858563
1428.143621675301 6029.167088274507
1428.9434274324558 5961.542132704697
1429.7430381583108 5717.707357223974
1430.5424539059713 5875.855648099234
1431.3416747285337 6244.566090824485
1432.1407006790632 6033.045519091669
1432.9395318106053 6026.0424751366045
1433.7381681761835 5968.229459300654
1434.5366098288014 5955.282603633528
1435.3348568214424 6003.684481499934
1436.1329092070573 6002.230505915469
1436.9307670385879 6023.28578704237
1437.7284303689503 6135.546848520984
1438.5258992510335 6283.247877483665
1439.3231737377118 6183.385818655305
1440.1202538818306 6114.233470448332
1440.9171397362225 6055.432126065171
1441.7138313536925 6177.792966443846
1442.5103287870243 5951.644325220804
1443.3066320889775 5928.184031474573
1444.1027413122956 6111.995678597015
1444.8986565096966 6023.163720166158
1445.694377733882 5985.9876351582725
1446.4899050375207 5877.927961408941
1447.2852384732687 5780.811110835619
1448.0803780937622 5998.491681973055
1448.8753239516063 5821.406321677679
1449.6700760993954 5682.903916002239
1450.464634589689 5753.551896764187
1451.2589994750397 5889.277399088918
1452.0531708079689 5627.282830943869
1452.8471486409799 5509.068525433175
1453.6409330265524 5781.50583639898
1454.4345240171442 5612.25785468359
1455.2279216651987 5645.696164321716
1456.0211260231263 5590.105354677896
1456.8141371433194 5695.47099332928
1457.6069550781594 5679.3731643945885
1458.3995798799897 5442.392218674035
1459.1920116011424 5461.603000283726
1459.98425029393 5472.706958869256
1460.7762960106338 5453.539358440603
1461.5681488035225 5405.171087067307
1462.3598087248392 5424.118975526758
1463.1512758268036 5462.21096570412
1463.942550161617 5404.691634450457
1464.7336317814625 5225.171215741499
1465.524520738496 5221.660938415704
1466.3152170848552 5206.473756711047
1467.1057208726506 5266.628881832294
1467.8960321539817 5163.625544167447
1468.6861509809169 5038.07341448554
1469.4760774055085 5037.420195728
1470.265811479785 5198.747265400276
1471.055353255755 5002.510086267091
1471.844702785409 5100.277041026267
1472.6338601207044 4975.824700050563
1473.4228253135934 5503.368701917074
1474.2115984159936 5039.4967200042975
1475.0001794798063 4873.303809334553
1475.7885685569145 4976.4774007012
1476.576765699172 5095.332563601294
1477.3647709584238 5055.504007948717
1478.1525843864802 5033.220474284941
1478.9402060351367 5060.226910614823
1479.7276359561693 4920.032371343377
1480.514874201328 4838.421329620032
1481.3019208223468 4781.284348757965
1482.0887758709323 4807.273887775145
1482.8754393987747 4896.480391493287
1483.6619114575406 4756.359157299617
1484.4481920988783 4800.229199469615
1485.2342813744108 4966.845563352237
1486.0201793357446 4889.143082032182
1486.8058860344572 4781.268207889386
1487.591401522117 4783.711328823223
1488.3767258502594 4895.463872223714
1489.1618590704056 4813.209854978987
1489.9468012340494 4696.409686181321
1490.7315523926754 4857.737625760946
1491.5161125977356 4903.170454774805
1492.3004819006637 4805.646518926295
1493.084660352877 4704.320006080157
1493.8686480057622 4790.596172579851
1494.6524449106964 4998.012721981858
1495.4360511190262 4900.022865551332
1496.219466682087 4718.3094329735795
1497.0026916511779 4830.980705563378
1497.7857260775945 4754.23705299671
1498.5685700125996 4908.3235928588065
1499.3512235074395 4798.019635748058
1500.133686613337 4801.425242295235
1500.9159593814966 4778.556427324651
1501.698041863101 4987.883739235471
1502.4799341093094 4739.234163554425
1503.2616361712662 4702.467710629009
1504.043148100087 4876.310569090837
1504.8244699468742 4832.969306589983
1505.6056017626997 4820.565445533495
1506.3865435986281 4535.389764413627
1507.1672955056893 4943.040471103011
1507.9478575348967 4753.149330881899
1508.7282297372512 4860.304985735428
1509.5084121637192 4773.865372164666
1510.2884048652577 4847.506614220651
1511.0682078927948 4805.621755038538
1511.8478212972423 4685.4863611882265
1512.6272451294917 4612.602575186662
1513.4064794404076 4843.482174236395
1514.1855242808433 4846.887287843958
1514.9643797016215 4857.936928101407
1515.743045753552 4814.190520788036
1516.5215224874191 4856.301127095908
1517.2998099539836 4561.432094022575
1518.077908203999 4861.043950842899
1518.8558172881785 4729.892101881873
1519.633537257234 4832.474337681815
1520.4110681618404 4868.3457633746375
1521.1884100526604 4841.566769112262
1521.9655629803365 4842.955223711486
1522.7425269954856 4907.966762738986
1523.5193021487103 5023.832485920442
1524.2958884905856 4755.032973273059
1525.0722860716687 4659.240125501828
1525.848494942502 4816.017288260834
1526.624515153595 4847.061699500448
1527.4003467554485 4873.185604936605
1528.175989798534 4943.583277362401
1528.9514443333064 4925.434363229024
1529.726710410203 5100.525850424641
1530.5017880796331 4798.3319426088365
1531.276677391992 4879.724057109985
1532.0513783976457 5025.283194263433
1532.825891146953 4952.382921081765
1533.6002156902414 5067.666186593778
1534.3743520778207 4830.79157202575
1535.1483003599806 4949.201808504238
1535.9220605869923 5031.995622398497
1536.6956328091019 4949.814724216946
1537.4690170765407 4989.243258571925
1538.242213439511 5001.128283672375
1539.015221948208 5123.089012434181
1539.78804265279 4974.6107698402575
1540.560675603405 4840.173655512981
1541.3331208501804 5064.889993226016
1542.1053784432224 5076.775171804761
1542.8774484326168 4978.141733476323
1543.649330868422 4973.926961527004
1544.4210258006842 5029.523296015609
1545.1925332794308 4967.973817009966
1545.9638533546604 4881.63577122294
1546.7349860763552 4839.9061247484915
1547.5059314944829 5115.693504519385
1548.27668965898 4960.14972394463
1549.0472606197673 4971.827261293859
1549.817644426752 4897.591357972631
1550.5878411298072 4958.190713336705
1551.3578507787988 4906.883395201609
1552.1276734235635 4835.920863516715
1552.8973091139233 4880.0696782639
1553.6667578996767 4955.200571598789
1554.436019830604 5015.309050409684
1555.20509495646 4973.735442890972
1555.9739833269869 4807.340678785089
1556.7426849919011 4796.62442767463
1557.511200000903 5178.02950119338
1558.2795284036674 4934.375147549062
1559.0476702498509 4860.723299855663
1559.8156255890954 5072.38384587576
1560.5833944710157 5092.811962216039
1561.3509769452048 4928.783856714954
1562.1183730612447 4979.147414919677
1562.8855828686865 5051.0356398912645
1563.6526064170703 5213.243063440403
1564.4194437559127 5063.090407098799
1565.1860949347047 4964.473443680402
1565.9525600029283 5248.966061554332
1566.7188390100328 5164.929415955488
1567.4849320054564 5022.862211029631
1568.250839038612 5112.804210485309
1569.0165601588997 4992.2279535887865
1569.7820954156887 5202.320362263077
1570.5474448583373 5034.762280788737
1571.31260853618 4891.845098324879
1572.0775864985299 5020.126654481892
1572.8423787946813 5057.900377387303
1573.6069854739108 5000.630503709224
1574.371406585471 5097.108437194709
1575.1356421785986 5078.0892631207225
1575.899692302506 4997.565644729335
1576.6635570063845 5130.212409616467
1577.4272363394157 4950.17373595751
1578.190730350747 5083.844685767563
1578.9540390895163 4873.122099669914
1579.7171626048384 4758.5584432000705
1580.480100945806 4867.27022957015
1581.2428541614918 4887.041240394037
1582.0054223009538 4897.055524976119
1582.767805413223 4984.807902823041
1583.5300035473156 4878.071181700258
1584.292016752228 4957.1231037218295
1585.0538450769309 4907.121409507467
1585.8154885703807 4811.794590157938
1586.5769472815136 4827.711224788093
1587.3382212592405 4843.079067102763
1588.099310552463 4996.296190438776
1588.8602152100484 4515.197446831065
1589.6209352808564 4948.2646549077035
1590.3814708137234 4830.623437218027
1591.14182185746 4470.837295188664
1591.9019884608679 4836.956271951334
1592.6619706727215 4635.96414848733
1593.4217685417734 4776.60052629817
1594.1813821167616 5000.419558863863
1594.9408114464022 4683.564213454829
1595.7000565793933 4726.686109631443
1596.459117564409 4913.8471920984275
1597.2179944501113 4723.9425861346535
1597.9766872851324 4736.298459770817
1598.735196118092 4717.108907822323
1599.4935209975883 4830.597898140663
1600.2516619721973 4916.039160399357
1601.0096190904787 4717.26679753384
1601.7673924009723 4742.000116979847
1602.524981952196 4709.6034628783655
1603.2823877926476 4564.59882886356
1604.0396099708087 4624.788014429118
1604.7966485351371 4630.856613069175
1605.5535035340745 4596.70891339366
1606.3101750160404 4759.756199984137
1607.0666630294363 4565.161422833455
1607.822967622642 4343.49833463657
1608.5790888440224 4551.745659370961
1609.3350267419137 4782.077725226504
1610.0907813646445 4495.357067960346
1610.8463527605145 4599.533213656409
1611.601740977805 4634.626572706505
1612.356946064785 4501.5391075474445
1613.1119680696902 4270.5634029663
1613.8668070407512 4392.55784829578
1614.6214630261748 4447.015308505857
1615.375936074137 4476.721805751589
1616.1302262328118 4556.69059267087
1616.8843335503425 4429.949364273305
1617.638258074854 4437.860824657839
1618.391999854457 4512.119912406639
1619.1455589372363 4562.294574827206
1619.8989353712623 4536.8349551647725
1620.65212920458 4247.753654385149
1621.4051404852235 4360.280789806225
1622.1579692611976 4464.160348880184
1622.9106155804966 4297.49013292873
1623.663079491087 4458.48816581624
1624.4153610409248 4424.44886540175
1625.1674602779385 4319.7204811023885
1625.9193772500403 4224.040164654747
1626.6711120051277 4436.287955867942
1627.4226645910676 4391.049810108971
1628.174035055721 4158.881602931897
1628.9252234469168 4227.6925173130185
1629.676229812474 4240.054364641152
1630.4270542001905 4620.899534210011
1631.1776966578382 4361.349738014678
1631.9281572331747 4325.292506907602
1632.678435973945 4366.302477007738
1633.4285329278573 4387.84136309618
1634.1784481426203 4192.327755522287
1634.9281816659113 4286.78806689198
1635.677733545388 4411.357554748227
1636.4271038286934 4287.031158386555
1637.176292563452 4274.605878373373
1637.9252997972635 4351.216487357001
1638.674125577716 4444.641520133772
1639.4227699523672 4549.50501644559
1640.171232968767 4056.446008818293
1640.9195146744423 4346.698750467615
1641.6676151168977 4406.020397088212
1642.4155343436178 4342.848353164904
1643.1632724020765 4316.331134600948
1643.9108293397167 4258.312092548503
1644.658205203974 4140.474132808258
1645.4054000422566 4639.745697484625
1646.1524139019566 4343.901158922718
1646.8992468304423 4246.9580169805595
1647.6458988750728 4266.518602065722
1648.3923700831765 4251.657966576613
1649.1386605020743 4289.5300295617235
1649.8847701790564 4342.986442391555
1650.6306991614038 4382.386085809397
1651.3764474963682 4398.016138107278
1652.1220152311944 4232.539463751497
1652.867402413096 4374.183342080187
1653.6126090892776 4213.713642910492
1654.3576353069184 4523.987435498295
1655.1024811131829 4355.242616257524
1655.8471465552066 4380.491413935419
1656.5916316801213 4434.5731845607625
1657.3359365350298 4298.6432645803925
1658.0800611670165 4268.156603806176
1658.824005623148 4204.334150267231
1659.5677699504722 4140.561327229331
1660.3113541960192 4409.744585862836
1661.054758406799 4361.66921361234
1661.7979826297997 4060.308971292229
1662.5410269119966 4133.860390690666
1663.283891300338 4483.640553650049
1664.0265758417645 4132.702409556978
1664.7690805831826 4091.501256244831
1665.5114055714948 4215.4306529747855
1666.2535508535748 4362.680773439765
1666.9955164762814 4028.808874242258
1667.7373024864555 4135.791476709446
1668.478908930916 4305.062442994286
1669.220335856462 3972.8899953955915
1669.9615833098778 4188.681072742406
1670.7026513379296 3913.289528756756
1671.44353998736 4134.233450985461
1672.1842493048916 4131.347192440248
1672.9247793372379 4051.7813227295533
1673.6651301310812 4127.925660992954
1674.4053017330934 4063.953836199492
1675.1452941899242 4047.3002045363414
1675.885107548207 3760.377308816689
1676.6247418545518 3857.352227062243
1677.3641971555535 4041.1215196754683
1678.1034734977893 3982.5010359323846
1678.8425709278108 3942.1443532009207
1679.5814894921605 3994.1278274778656
1680.320229237359 3792.083461926822
1681.0587902098978 3993.975997346721
1681.7971724562685 3957.6637031255646
1682.5353760229264 3820.342639370077
1683.2734009563173 3779.4401907545907
1684.0112473028657 3727.670656011806
1684.7489151089794 3841.217434611387
1685.4864044210462 3879.169137177441
1686.2237152854377 3743.1446526431873
1686.960847748498 3863.2043634453867
1687.6978018565642 3686.820466235075
1688.434577655944 3676.2586809893096
1689.1711751929379 3762.2739532335618
1689.9075945138156 3780.2693178366353
1690.6438356648396 3693.6458623410376
1691.3798986922448 3443.1311335061023
1692.1157836422499 3644.777657135147
1692.851490561059 3604.6544345513867
1693.587019494853 3605.0083354560875
1694.3223704897991 3509.5367558535845
1695.0575435920364 3406.4188744675935
1695.792538847696 3853.608597953405
1696.527356302886 3511.3730011320936
1697.2619960036936 3339.8045746725597
1697.9964579961907 3543.997389946105
1698.730742326432 3163.876918615256
1699.4648490404488 3238.0304198006843
1700.1987781842563 3478.5984392862074
1700.9325298038548 3605.918692805775
1701.6661039452174 3664.5273555689955
1702.3995006543082 3434.9558703383946
1703.1327199770658 3502.600132411798
1703.865761959416 3273.655273834771
1704.598626647261 3503.3961971265053
1705.3313140864866 3343.636243250872
1706.0638243229587 3303.7927345105372
1706.7961574025303 3471.10301385243
1707.528313371029 3418.7820732280406
1708.260292274268 3110.718683450151
1708.9920941580403 3433.86086811535
1709.7237190681226 3333.4486145934434
1710.4551670502697 3331.838560399405
1711.18643815022 3084.227071070406
1711.9175324136959 3486.7714030312054
1712.6484498863938 3259.737499748694
1713.379190614005 3098.620265269628
1714.109754642188 3509.0838789290074
1714.8401420165883 3192.403835796591
1715.570352782839 3312.614721933571
1716.3003869865497 3330.472378218259
1717.0302446733076 3211.364391508334
1717.7599258886876 3182.2103982698327
1718.4894306782444 3382.770643916881
1719.2187590875183 3190.765423358197
1719.9479111620203 3179.279036508312
1720.6768869472544 3170.0072225994577
1721.4056864887025 3348.685179297724
1722.1343098318284 3237.671471641696
1722.8627570220742 3193.9850344276833
1723.591028104871 3025.570271216288
1724.3191231256242 3023.5729616204194
1725.0470421297232 3121.4042389415545
1725.7747851625427 3170.2461235107644
1726.5023522694337 3034.4305289412214
1727.2297434957363 3108.416990979339
1727.9569588867635 2932.853740611101
1728.6839984878152 3096.4412100318727
1729.4108623441734 2906.4826421052585
1730.1375505011038 3218.6372444864746
1730.8640630038426 2999.744623243157
1731.5903998976264 3004.7616346543386
1732.316561227657 3104.049100365034
1733.0425470391274 3078.042332277752
1733.7683573772065 3093.871529003588
1734.4939922870508 2997.3220045147546
1735.2194518137949 3038.887046532994
1735.9447360025606 3036.215477992075
1736.669844898439 2978.4285361802968
1737.3947785465189 2981.3354801071373
1738.1195369918605 2861.791514418224
1738.8441202795093 2900.023851765513
1739.5685284544943 3030.6381122248185
1740.292761561821 3064.8064749464215
1741.0168196464838 3095.0422554242386
1741.7407027534518 3050.917389465876
1742.464410927687 3017.4910980809136
1743.187944214118 2981.0398620237843
1743.9113026576688 2837.975061859106
1744.634486303241 3059.099185456679
1745.3574951957125 2972.4134741064854
1746.0803293799509 2946.5809870096027
1746.8029889008048 2843.0468438715175
1747.5254738031017 3172.051832101008
1748.2477841316504 2862.587564072966
1748.969919931249 2859.2849198024014
1749.6918812466665 2842.0400786216933
1750.4136681226646 3102.7397670054943
1751.1352806039777 2909.0412902988855
1751.856718735331 2891.1549453012967
1752.5779825614281 2905.1831194604174
1753.2990721269507 3021.988319077095
1754.0199874765676 3111.843591717756
1754.7407286549314 2713.962214057658
1755.4612957066693 2897.093480632563
1756.1816886763954 2807.0015297542864
1756.9019076087097 2889.94866174701
1757.6219525481865 3015.712552355342
1758.3418235393856 2955.7881577352828
1759.061520626854 2941.731408384432
1759.7810438551096 3092.787591836582
1760.5003932686614 2826.0914432157588
1761.2195689119999 3072.0542801089887
1761.938570829594 2757.3550897477585
1762.657399065898 2825.597622180504
1763.376053665348 2857.1930383726676
1764.0945346723602 2739.7018433067983
1764.812842131334 3030.539616139644
1765.5309760866512 2759.0948713709963
1766.2489365826787 2803.3537240614955
1766.9667236637597 2877.805230336166
1767.684337374223 2796.9764790597724
1768.401777758383 2724.788853644486
1769.1190448605284 2776.7827929908167
1769.836138724937 2678.468227517918
1770.5530593958665 2950.3483385646914
1771.2698069175603 2906.0607340655415
1771.9863813342326 2881.4909026735995
1772.702782690094 2842.4050938328264
1773.4190110293293 2783.9353768602314
1774.1350663961111 2902.892865191264
1774.8509488345844 2699.454750956269
1775.5666583888924 2826.8610974827507
1776.2821951031437 2955.9062367513907
1776.9975590214362 2802.0061130154595
1777.7127501878585 3003.1982332524976
1778.4277686464684 2862.8676183627763
1779.1426144413108 2942.87106796353
1779.8572876164162 2899.674208542611
1780.571788215797 2790.752286975431
1781.2861162834415 2856.1340365689634
1782.0002718633277 2760.0381234228735
1782.7142549994132 2788.5417087610917
1783.4280657356376 2860.5214144408415
1784.141704115922 2625.1160346638517
1784.855170184177 2814.5866234330015
1785.5684639842839 2701.1895577835076
1786.2815855601148 2631.1736826030556
1786.9945349555237 2787.589680049114
1787.707312214343 2727.3309640018315
1788.4199173803918 2833.2895181589497
1789.132350497468 2732.032119805542
1789.8446116093583 2724.198289177898
1790.556700759822 2723.8603494992863
1791.2686179926077 2489.289015037017
1791.9803633514493 2710.418238298295
1792.6919368800554 2560.1340893576066
1793.4033386221236 2927.0744919619583
1794.1145686213295 2825.611171688076
1794.8256269213307 3012.6928802599255
1795.536513565774 2911.018850911106
1796.247228598284 2595.1323480000383
1796.9577720624693 2573.2058553766865
1797.6681440019165 2656.3596959787833
1798.3783444602013 2737.956079432792
1799.0883734808776 2799.017427409509
1799.7982311074884 2881.457720590289
1800.5079173835475 2634.8452791447667
1801.2174323525633 2815.1503443261977
1801.9267760580187 2653.6633219185796
1802.635948543386 2852.1375149427854
1803.3449498521113 2724.1360005643623
1804.0537800276325 2715.0679882981326
1804.7624391133668 2620.6992025309764
1805.47092715271 2575.121203469772
1806.1792441890484 2667.162687145559
1806.8873902657433 2837.378459807818
1807.5953654261448 2604.4399084166466
1808.3031697135812 2486.683319788269
1809.0108031713662 2706.281823451315
1809.71826584279 2716.482134852556
1810.425557771141 2639.18444270623
1811.1326789996747 2970.6441014197344
1811.839629571632 2752.249293374657
1812.5464095302468 2602.688713144033
1813.2530189187182 2802.418619006522
1813.959457780249 2643.368802272234
1814.6657261580076 2728.7900239562305
1815.371824095153 2647.240321689496
1816.0777516348262 2722.7807618968636
1816.78350882015 2591.1279621911135
1817.4890956942272 2561.4913087911236
1818.1945123001533 2617.271561145926
1818.8997586809928 2639.6666717494136
1819.6048348798067 2591.7145780726814
1820.3097409396287 2638.390688249146
1821.0144769034796 2876.253891752162
1821.7190428143622 2700.507847083954
1822.423438715261 2910.6055472614753
1823.1276646491478 2605.0901217008577
1823.8317206589727 2743.60689304012
1824.5356067876692 2703.972549858199
1825.2393230781581 2602.9039410991863
1825.942869573335 2578.24590316068
1826.646246316086 2637.6530721587956
1827.3494533492758 2618.8994394385913
1828.052490715756 2732.2421665979805
1828.7553584583547 2622.7462526291547
1829.458056619891 2749.7581110843084
1830.1605852431585 2513.2544058064977
1830.8629443709433 2574.833130578091
1831.5651340460063 2446.1680221794286
1832.2671543110919 2688.4276005205597
1832.9690052089318 2565.0527242906965
1833.6706867822395 2521.903388285511
1834.3721990737104 2831.9552305196485
1835.0735421260233 2683.8869664971685
1835.774715981841 2736.5362901383405
1836.4757206838058 2731.456501598062
1837.1765562745459 2438.624370433687
1837.8772227966747 2252.637595427123
1838.5777202927839 2796.5249140107517
1839.2780488054523 2581.956352397623
1839.9782083772352 2468.5757483046445
1840.6781990506806 2757.973864025752
1841.378020868313 2476.5097436075557
1842.0776738726418 2611.2058004894884
1842.777158106157 2589.2031470512993
1843.4764736113375 2483.852631287313
1844.1756204306403 2700.8206287395687
1844.8745986065078 2657.0545959403244
1845.5734081813607 2374.8539155755047
1846.2720491976124 2422.603750179482
1846.970521697649 2448.0172588354717
1847.6688257238511 2549.9003485742674
1848.3669613185684 2535.619250988036
1849.0649285241452 2402.221045355535
1849.7627273829057 2540.83492266574
1850.460357937156 2689.887476484269
1851.1578202291857 2340.4821159882185
1851.8551143012664 2586.829059449511
1852.5522401956569 2567.5735080223117
1853.2491979545957 2646.154532816682
1853.9459876203055 2386.7928671670606
1854.6426092349902 2524.864303886988
1855.3390628408451 2479.7785420682735
1856.0353484800362 2712.6785737109467
1856.7314661947203 2569.6513666900946
1857.4274160270397 2410.9337224979677
1858.123198019115 2463.8637259300135
1858.8188122130487 2489.183210723785
1859.5142586509319 2485.077220228604
1860.209537374838 2402.9359774222175
1860.9046484268183 2377.024025339058
1861.599591848917 2564.5959794246446
1862.294367683151 2501.3503232820767
1862.988975971528 2613.5810880005242
1863.6834167560355 2502.3511343343894
1864.3776900786452 2614.692008393181
1865.0717959813119 2454.4924426797556
1865.7657345059724 2590.5289788625987
1866.4595056945564 2495.6122010428626
1867.1531095889586 2628.5403511725804
1867.846546231076 2495.231360029253
1868.5398156627743 2737.0020863343902
1869.2329179259123 2406.7058392399567
1869.9258530623283 2762.7467375142855
1870.618621113843 2479.2025950062894
1871.3112221222636 2375.0235892714636
1872.0036561293764 2448.8973304173355
1872.695923176956 2630.9399526997267
1873.3880233067594 2667.2145454269007
1874.0799565605212 2519.5763362622656
1874.7717229799673 2560.2767436232534
1875.4633226068036 2575.521168638097
1876.1547554827175 2486.720685349351
1876.8460216493859 2491.395626530838
1877.5371211484617 2535.8487856801903
1878.2280540215852 2675.881782018031
1878.9188203103804 2456.6993302916308
1879.6094200564548 2511.778106666977
1880.299853301396 2475.5884048202342
1880.9901200867826 2637.171788055891
1881.6802204541673 2458.892599693553
1882.3701544450942 2639.29518681415
1883.059922101087 2403.766277039003
1883.7495234636517 2643.035556467226
1884.4389585742792 2544.222970583449
1885.1282274744517 2435.441036207583
1885.8173302056166 2511.0680811193315
1886.506266809225 2467.241091331953
1887.195037326701 2366.2423098204863
1887.8836417994517 2468.8550735736208
1888.5720802688702 2703.9985945611857
1889.260352776333 2640.697004688401
1889.9484593632042 2483.3386707622058
1890.63640007082 2495.1650809622597
1891.3241749405151 2422.747192617268
1892.0117840135954 2547.7262381981304
1892.6992273313572 2402.515685278882
1893.3865049350788 2330.7756470770373
1894.0736168660223 2620.6137819911355
1894.7605631654333 2494.7601715094247
1895.4473438745408 2402.8455155688616
1896.133959034556 2560.479048088357
1896.820408686679 2507.037587007335
1897.506692872088 2597.9127108553203
1898.192811631945 2462.0827605072564
1898.8787650073991 2490.643134808627
1899.5645530395832 2579.0179252281628
1900.2501757696118 2790.743221967998
1900.9356332385796 2320.894782951063
1901.620925487574 2577.543931642035
1902.3060525576602 2613.441001361816
1902.9910144898859 2556.9475903523958
1903.6758113252872 2359.5681524111346
1904.3604431048789 2494.0808350173465
1905.0449098696663 2495.916825997035
1905.7292116606295 2458.5499821360254
1906.4133485187394 2507.842278580503
1907.0973204849488 2239.06246854676
1907.7811276001976 2346.7004060198697
1908.4647699053967 2531.437504183204
1909.1482474414588 2363.393240587032
1909.8315602492694 2258.2416029322676
1910.5147083696957 2409.088510086102
1911.1976918436012 2458.0015993287443
1911.880510711815 2315.467802707886
1912.5631650151681 2494.930126907308
1913.2456547944657 2514.236520332708
1913.927980090495 2495.7248836175618
1914.6101409440362 2397.823406973913
1915.2921373958416 2363.5284629961834
1915.9739694866603 2502.0486718539605
1916.655637257214 2600.1196546988813
1917.3371407482136 2491.9469165208625
1918.0184800003572 2568.8495613996342
1918.6996550543154 2521.586466443022
1919.3806659507554 2530.732051503209
1920.0615127303208 2525.834181375285
1920.7421954336423 2499.4423550567744
1921.4227141013343 2569.565488333348
1922.103068773993 2470.5108247217013
1922.783259492202 2636.496417497355
1923.4632862965227 2369.955619281062
1924.1431492275078 2431.0432524988255
1924.8228483256917 2321.7853113590095
1925.5023836315922 2412.075470481416
1926.1817551857057 2256.188308075406
1926.8609630285227 2611.1126289045633
1927.5400072005123 2423.5473062107567
1928.218887742125 2288.1833472134326
1928.8976046938005 2160.2026966764492
1929.5761580959588 2457.8015615942213
1930.2545479890086 2496.1885489419583
1930.9327744133352 2298.904994824962
1931.6108374093164 2476.628101303695
1932.2887370173066 2618.0359439207396
1932.9664732776473 2181.600609006055
1933.6440462306673 2473.9150948607053
1934.3214559166754 2175.097676760528
1934.9987023759659 2442.331156745221
1935.675785648813 2546.2210835328156
1936.3527057754836 2214.172660679638
1937.029462796223 2383.5533117146147
1937.70605675126 2362.3663747926903
1938.3824876808085 2402.071642536571
1939.058755625072 2302.883043303042
1939.7348606242267 2416.1102191048717
1940.4108027184448 2306.2667414411285
1941.0865819478713 2575.532678350046
1941.7621983526478 2229.3021608618556
1942.4376519728921 2117.8675037597473
1943.1129428487038 2401.18819198747
1943.7880710201734 2395.1947301920372
1944.4630365273733 2598.6028287502936
1945.1378394103576 2150.1628263935004
1945.8124797091714 2110.446404097673
1946.4869574638324 2070.577321985704
1947.161272714353 2385.1181098454654
1947.8354255007234 2508.023940309379
1948.5094158629272 2365.316666023365
1949.1832438409183 2394.5277508037198
1949.8569094746435 2409.2607042872814
1950.530412804037 2410.4455681904087
1951.2037538690092 2309.7768064433762
1951.8769327094578 2454.5203871843205
1952.5499493652678 2367.2226165406046
1953.222803876306 2511.125097200174
1953.895496282421 2320.357792320229
1954.5680266234522 2205.1492579504993
1955.2403949392155 2359.6365986810856
1955.9126012695142 2101.754234725209
1956.5846456541403 2349.964022813485
1957.2565281328643 2342.6973548670303
1957.9282487454457 2367.7385915788254
1958.5998075316202 2557.183462581696
1959.27120453112 2338.9632073434427
1959.9424397836501 2234.0777043878034
1960.613513328908 2491.6958252933673
1961.2844252065697 2554.5103931327903
1961.9551754563017 2429.8537273575157
1962.6257641177453 2291.1525953511523
1963.29619123054 2309.431471963286
1963.966456834296 2241.052737001421
1964.6365609686181 2078.0150988143164
1965.306503673086 2515.450053552041
1965.976284987275 2370.9643585323547
1966.645904950734 2354.4200839303257
1967.315363603002 2236.189038391035
1967.9846609836077 2402.909498879427
1968.6537971320486 2383.0859102238887
1969.3227720878222 2254.5281819933416
1969.9915858904042 2184.121778447626
1970.660238579252 2381.4771104747715
1971.3287301938108 2459.520619659638
1971.997060773514 2106.6911064778337
1972.665230357772 2269.2816049503317
1973.3332389859843 2148.143484794647
1974.0010866975335 2281.7177288472258
1974.6687735317864 2376.944007174158
1975.3362995280932 2433.6152921019266
1976.003664725793 2480.3396325756216
1976.6708691642052 1964.1471272576996
1977.3379128826364 2279.915255810505
1978.004795920373 2399.795425898819
1978.6715183166925 2499.795762133538
1979.3380801108524 2095.5220768125046
1980.0044813420973 2267.3301780748134
1980.6707220496555 2162.0257149075806
1981.3368022727373 2282.4647744470203
1982.0027220505417 2457.258219001891
1982.66848142225 2106.283511903338
1983.3340804270283 2170.3943599052345
1983.999519104027 2365.0341941304273
1984.6647974923835 2459.7494560721384
1985.329915631215 2397.931319406313
1985.99487355963 2239.3934844064242
1986.6596713167146 2305.886459188672
1987.3243089415428 2399.5980898987964
1987.9887864731754 2445.0173765240534
1988.6531039506553 2252.3541872438163
1989.3172614130071 2431.006197592241
1989.9812588992481 2346.199603360031
1990.645096448372 2319.9596836962724
1991.3087740993633 2310.9252419347295
1991.9722918911848 2325.2155980303905
1992.635649862792 2260.432966529309
1993.2988480531185 2479.8886660473627
1993.9618865010852 2534.178525639108
1994.6247652455968 2199.000941601383
1995.287484325545 2154.537309292207
1995.9500437798033 2301.7897161242454
1996.6124436472292 2179.94876922232
1997.2746839666706 2344.0715255159694
1997.936764776954 2357.1490160327958
1998.598686116895 2254.446625073526
1999.2604480252903 2486.8953274599585
1999.9220505409212 2138.4979410266296
2000.5834937025593 2132.5992005389694
2001.2447775489582 2225.3444066855654
2001.9059021188514 2249.074462514371
2002.5668674509616 2162.3299180753515
2003.2276735839987 2241.3855744463044
2003.8883205566508 2473.2376897759896
2004.5488084075987 2008.9140908000888
2005.2091371755014 2151.945674398138
2005.8693068990033 2219.7381449123054
2006.5293176167397 2384.1096906556622
2007.1891693673224 2127.126993439729
2007.848862189354 2025.4779255951944
2008.5083961214223 2309.124994155599
2009.1677712020955 2143.328113023221
2009.8269874699254 2192.785593719068
2010.4860449634598 2245.627226204553
2011.1449437212177 1968.8944756938133
2011.8036837817108 2195.330554712518
2012.4622651834325 2428.805207095866
2013.1206879648653 2309.7732376739086
2013.7789521644736 2445.5762345293915
2014.4370578207036 1993.994964212186
2015.0950049719922 2127.6115194512204
2015.7527936567585 2253.139029948904
2016.4104239134067 2273.33657479044
2017.067895780323 2468.044586463736
2017.725209295886 2486.3359732654762
2018.3823644984514 2504.617778554726
2019.0393614263648 2385.8828228490547
2019.6962001179545 2067.901215567281
2020.3528806115355 2290.091765271237
2021.0094029454067 2022.3154952242323
2021.6657671578487 2182.0892500343534
2022.321973287133 2179.8257273973263
2022.9780213715148 2323.3124945159316
2023.6339114492293 1978.2305637369882
2024.2896435585026 2155.401386744466
2024.9452177375442 2224.5670790823187
2025.600634024544 2503.1738202653346
2026.2558924576842 2214.833236434319
2026.9109930751292 2292.1975043945595
2027.565935915025 2130.3766664858426
2028.2207210155066 2465.0532231748725
2028.8753484146964 2281.143236537969
2029.529818150695 2012.6757021016965
2030.1841302615903 2205.662037542976
2030.8382847854573 1969.7685263163464
2031.4922817603601 2075.3609154895717
2032.1461212243357 2240.136824244015
2032.7998032154192 1921.448532775768
2033.4533277716218 2220.92217037232
2034.1066949309443 2091.137541783885
2034.7599047313688 2212.755339508651
2035.4129572108704 2549.0335365518686
2036.0658524074006 2350.51386006667
2036.7185903589016 2238.788617454223
2037.3711711032956 2259.3577098415294
2038.023594678496 2016.2675503367434
2038.675861122394 2108.884621973667
2039.3279704728757 2238.419378553376
2039.9799227678031 1995.1738332146044
2040.6317180450278 1984.365878194581
2041.2833563423865 2119.0632261944074
2041.9348376977014 2112.8760886193154
2042.5861621487784 2293.6145899734324
2043.2373297334088 1973.0697440270983
2043.8883404893695 2263.0769196288657
2044.5391944544208 2277.5962523744074
2045.1898916663158 2246.0794777256842
2045.8404321627804 2240.0260287596934
2046.4908159815368 2084.8629517980835
2047.1410431602853 1948.3693415889284
2047.7911137367173 1940.4823905591275
2048.441027748504 2247.60496477562
2049.090785233302 2017.5311485783361
2049.7403862287592 2111.595735748614
2050.389830772503 2404.5270192675102
2051.0391189021466 1981.0094241405677
2051.688250655294 2110.2150856957933
2052.337226069527 1986.6312268459874
2052.986045182417 2190.5801740782535
2053.634708031521 1978.2359098668553
2054.283214654375 2194.0731007021136
2054.931565088511 1971.4508522371423
2055.579759371436 1908.8013256345698
2056.2277975406523 2201.97541046777
2056.8756796336384 2334.7980022426145
2057.5234056878617 1961.6066564451553
2058.1709757407752 1908.1725725110962
2058.8183898298194 2163.6429260512436
2059.465647992416 2232.0820088482265
2060.1127502659747 2302.6404992729854
2060.759696687888 2106.841288580432
2061.4064872955405 2236.275545081602
2062.053122126292 2262.686961916258
2062.699601217497 1877.7068772464256
2063.345924606485 2092.5579620746926
2063.992092330587 2205.5676536014007
2064.638104427102 2115.618445264955
2065.283960933324 2269.7409735274923
2065.92966188653 2284.3221366217977
2066.5752073239855 2119.406334643047
2067.2205972829397 2104.413719319773
2067.86583180062 2221.3438278243334
2068.5109109142522 2165.4638071625045
2069.15583466104 2111.831448250735
2069.8006030781708 2058.1513277586096
2070.445216202821 2159.3643962805195
2071.089674072153 2276.6097378937484
2071.7339767233116 2097.461687067769
2072.3781241934303 2079.035490387006
2073.0221165196253 2282.0801836177243
2073.6659537390024 2205.6030734540195
2074.3096358886505 2298.2472017863884
2074.953163005637 1940.598357927338
2075.596535127028 1844.56019630753
2076.2397522898664 1949.9205486238345
2076.882814531182 2063.4420723895623
2077.5257218879924 2145.0086547673045
2078.1684743973 1865.3500021450473
2078.8110720960885 1925.0416815288368
2079.453515021336 2287.9471703137283
2080.095803209997 2203.0723367867936
2080.7379366990135 2046.7487287285899
2081.37991552532 2071.952826330428
2082.0217397258275 2239.8628780393565
2082.6634093374414 1871.395649016849
2083.3049243970418 2156.998334996574
2083.9462849415067 2132.9781286393495
2084.587491007689 1894.523074077439
2085.2285426324324 2275.834600549827
2085.869439852564 2125.216806623143
2086.510182704902 1719.9809745408925
2087.1507712262483 2149.755947849963
2087.791205453381 1950.0175230386515
2088.4314854230743 2321.505835635583
2089.0716111720867 2145.866795244655
2089.7115827371617 1971.1193297740283
2090.351400155023 1919.932888246989
2090.991063462385 1868.752942636807
2091.6305726959527 1969.558149347548
2092.2699278924047 2318.9661626032826
2092.9091290884153 2022.681761797237
2093.548176320641 2024.880198225686
2094.187069625721 2144.0542839015807
2094.8258090402887 1866.580988190491
2095.464394600951 2077.269013356602
2096.102826344313 2017.3700668164608
2096.741104306955 2322.6846339002973
2097.379228525453 1899.5554884660337
2098.017199036358 1788.6459016197878
2098.6550158762147 2206.671595212378
2099.2926790815527 2120.5916317341316
2099.9301886888825 2119.3343986966834
2100.5675447347076 2135.7817515151864
2101.2047472555114 2280.089008320476
2101.841796287761 1977.9804899383792
2102.47869186792 2076.1778147167392
2103.1154340324265 2052.296787077885
2103.752022817709 1872.6473697603549
2104.388458260184 2179.3682971023327
2105.024740396251 2203.2326480409597
2105.660869262292 2006.519077875463
2106.296844894685 2236.88949089691
2106.93266732978 2103.2140205160035
2107.5683366039284 1812.4750988709798
2108.2038527534532 2127.470552585135
2108.8392158146726 2197.305837517731
2109.4744258238843 2160.432813131898
2110.1094828173755 1915.3868548722905
2110.744386831422 1974.4811125263495
2111.3791379022787 2033.7618371055971
2112.01373606619 2207.9489256223183
2112.648181359389 1935.1532083090292
2113.28247381809 2277.9289319512113
2113.916613478492 2117.1453461866395
2114.550600376786 2239.900314453037
2115.1844345491445 2208.4796626911275
2115.818116031729 1910.4142188110302
2116.451644860679 2071.9605901031173
2117.085021072133 1925.289369656625
2117.718244702204 1894.1609914395235
2118.3513157869984 2026.5419222380228
2118.984234362604 1941.4724507503634
2119.617000465092 2114.3199538273125
2120.249614130529 2207.8115522998073
2120.8820753949585 1990.2236212582397
2121.5143842944162 1876.5884722848095
2122.14654086492 1892.990420867575
2122.7785451424734 2141.8202244171202
2123.4103971630702 2207.534287807123
2124.042096962681 2273.6440003703165
2124.6736445772767 2074.392333924325
2125.305040042802 1863.5984943506871
2125.936283395191 1966.288049681998
2126.567374670365 2091.435721129601
2127.198313904233 1922.9250717245893
2127.8291011326855 2003.850151101425
2128.4597363916037 2084.7064145025756
2129.0902197168507 2029.339381989385
2129.720551144279 1956.2719931577146
2130.3507307097225 2119.523297590193
2130.980758449008 2178.1966127070273
2131.6106343979427 1789.2731670784353
2132.2403585923203 2180.64942671629
2132.8699310679276 2149.295183426484
2133.499351860526 2079.1668632782594
2134.1286210058715 2261.306335311697
2134.7577385397053 1881.2760778068605
2135.3867044977487 2068.6561983423335
2136.0155189157176 2198.824975532263
2136.644181829308 2171.537610778768
2137.2726932742025 1780.948308725554
2137.901053286074 2075.8365431835296
2138.5292619005777 1997.2642716835035
2139.1573191533535 2046.7551303277712
2139.7852250800315 2163.0220489966255
2140.4129797162295 2206.5472513104223
2141.0405830975433 1791.648257994275
2141.6680352595613 1797.7660656574135
2142.2953362378576 1803.9160508645516
2142.9224860679915 1954.7507454316158
2143.549484785508 1941.48796239921
2144.1763324259373 2176.2909681886713
2144.803029024799 2018.7016217589885
2145.429574617594 1922.8617429204728
2146.0559692398165 2161.7993351374935
2146.682212926942 1826.8198537644307
2147.308305714432 1853.4612123923932
2147.9342476377333 2156.005775107093
2148.5600387322847 2215.8019931223907
2149.185679033506 2117.8247051364624
2149.8111685768017 1958.6932662734587
2150.4365073975678 1992.0543190416022
2151.061695531187 2099.7060414620732
2151.686733013021 2141.328476739125
2152.311619878423 1990.081044250639
2152.9363561627342 1931.9936638942422
2153.560941901278 1873.7129697090509
2154.1853771293663 2105.0159500089776
2154.809661882293 2156.759929899358
2155.433796195348 2079.8464381399635
2156.0577801037944 2218.482596332974
2156.681613642895 2218.1738164658354
2157.3052968478896 2054.382837804492
2157.928829754006 1894.3029243477329
2158.552212396462 2057.2461944632387
2159.1754448104566 2073.6694879115958
2159.7985270311783 1732.1025991401225
2160.4214590938027 1721.6635071268524
2161.0442410334927 1662.344350215078
2161.6668728853874 1829.0747068547776
2162.289354684628 1900.5236634313508
2162.911686466332 2008.354911632737
2163.533868265602 2182.390394760189
2164.1559001175337 2202.4141178092927
2164.7777820572046 2110.82073169117
2165.399514119681 1850.2439473353065
2166.021096340013 1647.703705952275
2166.6425287532384 2179.5078574475274
2167.263811394385 2025.2083049733271
2167.8849442984574 2101.3515280712677
2168.505927500455 1674.5512965865382
2169.126761035366 1899.7056849554024
2169.7474449381552 1851.1080088435206
2170.367979243778 1640.2305688274573
2170.9883639871823 1959.6372568542952
2171.608599203293 1875.7263878545905
2172.2286849270276 2347.448719742549
2172.8486211932886 2255.827036600377
2173.4684080369625 1856.8696643069943
2174.0880454929265 1777.414814723073
2174.7075335960417 1816.6136158432018
2175.3268723811543 2019.9118233667225
2175.9460618831 2019.815472107999
2176.565102136701 1798.3295105957357
2177.1839931767627 1862.427728950835
2177.802735038078 1926.7220968722554
2178.421327755432 1760.215257876338
2179.0397713635866 1982.462668980554
2179.658065897298 1723.3957584502343
2180.276211391305 1483.6394446857187
2180.8942078803357 1748.9500926975984
2181.5120553991 1815.2289608625986
2182.129753982299 1881.613515414131
2182.7473036646206 1930.704073780137
2183.3647044807367 2084.7816933147183
2183.9819564653044 1900.224653448999
2184.599059652968 2104.622289288743
2185.216014078367 2091.036073554821
2185.832819776113 1774.8624877685918
2186.4494767808137 2036.5098490942178
2187.065985127063 2056.2905427708038
2187.682344849436 1871.3363218741201
2188.298555982501 2171.326926261354
2188.9146185608097 2037.4097514472585
2189.530532618901 1969.7783349060924
2190.1462981912937 1974.0889706450555
2190.761915312507 2158.052356543149
2191.377384017036 1918.943368453603
2191.9927043393654 1956.1670363361725
2192.6078763139667 1578.8022546321902
2193.2228999753006 1621.3510577446198
2193.837775357808 1664.0142442156248
2194.452502495922 1687.6082887779316
2195.0670814240602 1853.7041488832624
2195.6815121766285 1862.4323473814409
2196.2957947880186 1879.4054471760387
2196.9099292926057 1896.4193520456981
2197.523915724758 2154.190997606927
2198.137754118825 2014.6634830743174
2198.7514445091456 2019.641038751326
2199.3649869300443 1848.0822135479696
2199.9783814158327 2067.187069967099
2200.5916280008096 2018.5333340891175
2201.2047267192593 1969.8048033060409
2201.8176776054515 1940.3939853250363
2202.430480693649 1897.0463682173017
2203.0431360180955 1913.3970226494307
2203.6556436130195 2173.458851370722
2204.268003512645 1840.439486603241
2204.8802157511727 2060.7825042003205
2205.492280362796 1998.0540082384148
2206.1041973816937 1753.1874103243886
2206.715966842032 1961.869086098449
2207.3275887779655 1749.8313239651973
2207.93906322363 1951.7890975666396
2208.550390213153 1952.6877672768521
2209.1615697806465 1957.4819468035832
2209.7726019602105 1469.8142733189723
2210.3834867859277 1621.8329268737618
2210.9942242918787 1968.6755770298364
2211.6048145121167 1904.6001637063782
2212.2152574806914 1900.44519099344
2212.825553231638 1896.3101352680903
2213.435701798975 2347.0674266206697
2214.045703216707 1885.6497850203043
2214.655557518832 1711.4061668575046
2215.2652647393297 1778.1487251004644
2215.874824912169 1633.8213006226824
2216.4842380713 1941.188267609743
2217.09350425067 1724.5117396212136
2217.7026234842033 1850.6231053897307
2218.311595805819 1969.8968841245671
2218.9204212494133 1739.528959455575
2219.52909984888 2351.9164422412073
2220.137631638092 1621.7291905248908
2220.7460166509154 2286.5941790131374
2221.354254921198 2053.6315189942925
2221.9623464827764 1887.6299223732592
2222.5702913694713 1879.3238884193888
2223.178089615096 1912.7052184740471
2223.7857412534486 1707.2432356387303
2224.39324631831 1730.4317020656151
2225.000604843457 1657.0175318032457
2225.607816862641 1861.1920618298216
2226.214882409611 2065.5975690358528
2226.8218015180973 1908.1343305542778
2227.4285742218217 1779.2279846810077
2228.0352005544864 1930.7860813916668
2228.6416805497847 1768.2355317245037
2229.248014241399 1838.6998239075008
2229.8542016629945 1607.7637655626863
2230.460242848223 1991.4965030105104
2231.0661378307304 2146.4568892406105
2231.671886644139 2133.2381904459626
2232.277489322065 1737.9507650122334
2232.8829458981127 1464.301873448203
2233.48825640587 1907.4763023487606
2234.0934208789095 2359.9735883111293
2234.6984393507955 2205.696138692431
2235.3033118550793 2245.1307505878663
2235.9080384252975 1857.297426691229
2236.5126190949723 1772.595224820137
2237.1170538976166 1809.0753349255551
2237.721342866729 1845.6453522217403
2238.32548603579 1882.2780274397373
2238.9294834382763 2009.7514728352785
2239.533335107646 2026.738324981304
2240.1370410773434 2043.730523357798
2240.740601380803 1784.01919636275
2241.3440160514474 1853.0151835231695
2241.9472851226783 1826.5803639620713
2242.550408627896 1891.372983185745
2243.1533866004793 2065.296214301955
2243.756219073799 1984.5297087005006
2244.3589060812064 1731.0246552839133
2244.961447656049 1750.2942024659453
2245.5638438316564 1944.0527639202567
2246.166094641343 1985.8379070552382
2246.7682001184166 1850.0428958964876
2247.3701602961664 1894.8610801020482
2247.971975207871 1791.3835706358072
2248.5736448867974 2042.653016793909
2249.175169366197 2077.26071410928
2249.7765486793123 1745.7694074574847
2250.3777828593684 1808.2338670142585
2250.9788719395783 1994.3671582127397
2251.579815953146 1861.5147733718397
2252.1806149332606 1658.266349132228
2252.781268913097 1856.381007187842
2253.381777925817 1736.481458161024
2253.9821420045737 1828.7282870293845
2254.5823611825035 1995.9168141833584
2255.1824354927303 1763.6933231339178
2255.782364968365 1695.9827166208913
2256.38214964251 1628.2312397826522
2256.9817895482483 1632.440045724545
2257.5812847186553 1650.9723943929152
2258.180635186791 1669.5905624968168
2258.779840985704 1908.589717317714
2259.37890214843 1771.7927321295233
2259.97781870799 1803.4955493802495
2260.5765906973957 1835.2698482281146
2261.175218149645 1699.586659766202
2261.773701097718 1672.3825498614212
2262.3720395745895 1645.087233960358
2262.970233613216 1404.3670241658572
2263.568283246548 1747.6497330313207
2264.1661885075137 1870.1610593673536
2264.763949429038 1621.2989192229684
2265.3615660440246 1903.1319724313512
2265.959038385374 1705.5496178409735
2266.5563664859637 2022.8419970324871
2267.153550378669 1840.4025814603326
2267.7505900963424 1893.6931787297272
2268.3474856718312 1790.3070039139711
2268.9442371379664 1613.6529450638964
2269.5408445275643 1734.375579319719
2270.1373078734377 1931.8049485515398
2270.7336272083758 1787.017429202193
2271.32980256516 1615.8752293268162
2271.925833976562 1997.6943276636962
2272.5217214753357 1999.7152693293676
2273.117465094223 1631.5413762012456
2273.7130648659586 1697.7153986105095
2274.308520823257 1930.2150417786415
2274.903832998827 1936.7182943727305
2275.4990014253563 1594.7416451098711
2276.094026135528 1613.2335440521254
2276.6889071620117 1631.7044450322078
2277.2836445374614 1840.3114337256961
2277.878238294519 1885.143476345022
2278.472688465812 1737.9316997886224
2279.066995083962 1590.439041535531
2279.6611581815705 1771.5045220970956
2280.255177791232 1953.6472035738304
2280.8490539455233 2136.1537463743653
2281.442786677013 2130.205454781743
2282.0363760182554 2074.5983288974876
2282.6298220017943 1762.0250560345437
2283.223124660155 2222.3021893346495
2283.816284025859 1662.8233119036504
2284.4093001314086 2178.8942309210447
2285.002173009292 1446.091194994654
2285.5949026919952 1761.0832613603804
2286.1874892119777 1745.867273136866
2286.7799326016993 1923.65259712558
2287.3722328936 1575.1953967476106
2287.964390120109 1548.425694688068
2288.556404313642 1836.4201908883508
2289.1482755066027 1740.2678182507111
2289.7400037313873 1643.8808787910662
2290.3315890203703 1889.836732829462
2290.9230314059205 1744.4227658995485
2291.5143309203904 1598.8272801141968
2292.1054875961236 1671.4348292098489
2292.6965014654506 1853.5621206953806
2293.287372560684 1918.8287098639466
2293.878100914131 1778.7948838183365
2294.468686558086 1638.5192814107563
2295.059129524827 1902.7787740288725
2295.649429846617 2138.9400534308015
2296.239587555716 1957.9071610505362
2296.8296026843636 2186.4837849437413
2297.419475264791 2397.821267472603
2298.0092053292137 1958.7512470060458
2298.598792909839 1918.7910792288671
2299.1882380388597 1957.1006150192982
2299.777540748455 2237.2908835664184
2300.3667010707904 1953.3238505116176
2300.9557190380256 1877.4602480743931
2301.544594682302 2101.6066777979245
2302.1333280357503 1691.5718716844822
2302.721919130485 1956.0357839313958
2303.3103679986198 1828.593639514337
2303.898674672242 1987.5669329803982
2304.486839183437 1633.3129599523145
2305.0748615642697 1970.1255698330183
2305.6627418468015 1814.0487556885025
2306.2504800630704 1854.8334603082408
2306.8380762451143 1734.0455336401196
2307.425530424949 1798.3739540480933
2308.012842634582 1862.8360156589613
2308.6000129060103 2097.0072196843635
2309.187041271214 1979.1779608386976
2309.773927762164 1861.1123227743738
2310.3606724108213 1851.9220648323303
2310.9472752491274 1568.8487354102913
2311.5337363090184 1771.5733617057917
2312.120055622414 1785.2192579541875
2312.706233221221 1646.7104621915798
2313.2922691373424 1517.669245879257
2313.8781634026564 1609.7614695270954
2314.463916049037 1702.0539913971595
2315.049527108342 1709.02969192425
2315.6349966124235 1811.4803455566166
2316.2203245931123 1914.1352261280736
2316.8055110822315 1662.1808893985606
2317.3905561115935 1776.3835795533785
2317.9754597129977 1571.623861474245
2318.560221918229 1995.6082024195125
2319.1448427590603 1794.0029536051018
2319.729322267256 1394.5009815726678
2320.313660474563 1866.4840829681293
2320.8978574127195 2311.484097794103
2321.481913113452 1921.405413991352
2322.0658276084705 1857.3405730614431
2322.6496009294806 1793.1404495212828
2323.233233108165 2245.766312497838
2323.8167241762058 1937.284652521678
2324.4000741652617 1897.9886337293115
2324.983283106987 2194.4465685234522
2325.5663510330232 2052.441953085339
2326.1492779749933 1778.532952027745
2326.7320639645204 1802.1584951521386
2327.3147090332004 1766.5532066394276
2327.897213212629 1720.5707539838882
2328.4795765343843 1674.3938214598843
2329.0617990300307 1643.3108441700442
2329.643880731124 1992.746466300822
2330.22582166921 1950.0970347569032
2330.807621875816 1922.7692462770406
2331.3892813824623 1715.8784957237192
2331.9708002206517 1683.5127310954008
2332.5521784218818 1826.1276991030288
2333.133416017634 1969.1127841289629
2333.7145130393765 1950.7703022819564
2334.295469518571 1922.2073827536037
2334.876285486658 2040.284272551442
2335.456960975076 1985.3445734747766
2336.037496015242 1930.3164569377077
2336.6178906385667 1889.7468545568058
2337.198144876451 2082.1348540120593
2337.778258760278 1794.6874032446037
2338.3582323214214 1944.4865664388537
2338.938065591243 2094.5850801814677
2339.517758601087 2059.062173734812
2340.0973113822965 1921.7142635297453
2340.676723966193 1639.1119114126636
2341.255996384094 1689.137414849065
2341.835128667295 1922.46837390576
2342.4141208470883 1832.721052476208
2342.992972954751 1869.2315611239483
2343.5716850215467 1883.2590639120178
2344.1502570787306 1293.3287603352376
2344.7286891575386 1791.3332760864014
2345.3069812892045 2253.6085567310374
2345.885133504944 2067.488134373324
2346.4631458359618 1778.203251558427
2347.04101831345 1842.1064011849576
2347.6187509685915 1956.5787471991043
2348.196343832553 1865.3036819757058
2348.7737969364935 1772.1767439803796
2349.351110311558 1986.3820790959203
2349.9282839888765 1676.5809394468529
2350.5053179995757 1592.0598387307482
2351.0822123747585 1705.2857922868727
2351.658967145526 1746.9592580130586
2352.2355823429643 1788.8049169535814
2352.812057998144 2039.6593488892424
2353.3883941421263 1988.9565149185787
2353.9645908059647 1938.2405369477474
2354.540648020693 2012.4776519111954
2355.116565817336 1718.6172901283633
2355.6923442269126 1741.6841682243025
2356.2679832804224 1678.2508826218213
2356.8434830088518 1595.1868153925889
2357.41884344318 1851.6910735757024
2357.994064614377 1582.469805973524
