#exp_cfg={"servo_angle": 0.0, "laser_lim": 100.0, "servo_angle_to": 18.0, "laser_wup": 0.0, "bt_dev": "EnSpectr-25AE3", "laser_wdn_max": 0.0, "frames": 10.0, "servo_used": 0, "servo_calib_use": 0, "laser_wdn_min": 0.0, "servo_pix_from": 90.0, "cooler_tout": 300.0, "servo_angle_from": 0.0, "servo_calib": "[-1.9174921013161362e-09, 3.9322238269163779e-05, -0.27385609119055809, 653.59552119713567]", "laser_autoctl": 0, "servo_pix_to": 3682.0, "laser_pw": 100.0, "cooler_on": 0, "laser_volt": 4.0, "cooler_autoctl": 0, "cooler_curr": 70.0, "cooler_startup": 10.0, "laser_fixed_pw": 0, "gain": 1.3, "offset": 2.53059635486, "servo_calib_degree": 3.0, "laser_curr": 55.0, "shutter": 8200.0, "servo_calib_step": 1.0, "laser_fixed_curr": 0, "exp": 2000.0, "ccd_volt": 4.7, "bt_addr": "00:06:66:62:5A:E3", "servo_delay": 500.0, "laser_autooff": 1}
#proc_cfg={"flat_auto_wnd": 200.0, "flat_auto_fr": 200.0, "flat_auto_shift": 5.0, "yconv": 1, "flatten": 1, "flatten_strength": 100.0, "xfrom": 300.0, "auto_max_frame": 2000.0, "auto_signal": 48000.0, "flat_auto_tol": 0.1, "autoclip": 1, "xrel_range": 0.0, "flat_auto_to": 4000.0, "intensity_adj": 1.0, "xrel": 7852.0, "rmhot": 1, "flat_auto_slit": 4.999999999999997, "auto_ini_exp": 300.0, "auto_off": 0, "xto": 2860.0, "flat_auto_ref": "", "flat_auto_rank": 1, "autobackg": 0, "xrel_adj": 0.0, "auto_black_lvl": 1, "base_wnd": 100.0, "sub_baseline": 0, "xconv": 2, "auto_max_exp": 1000.0, "auto_total_exp": 10000.0, "auto_exp": 0, "rmripple": 0, "black_lvl": 8261.525, "shutter_clip_adj": 0.0, "auto_bckg": 0, "flat_auto_thr": 0.9, "subbackg": 1}
316.8218498245369 16027.14485120748
317.89969571804795 15903.471087183381
318.977263876126 15853.838492187098
320.05455438786703 15681.742557662767
321.1315673423287 15600.17084347349
322.2083028285215 15643.882458130593
323.2847609354267 15441.759537335296
324.3609417519747 15415.213098315862
325.43684536705587 15308.768314612458
326.5124718695279 15175.452385050889
327.58782134820103 15225.567676943703
328.66289389184385 15152.939062674131
329.7376895891921 15009.64024376247
330.8122085289342 14995.664231507788
331.88645079971866 14966.343915744035
332.9604164901575 14740.77805523478
334.03410568881554 14796.3966736154
335.1075184842266 14937.11243231887
336.18065496487543 14699.487589691034
337.2535152192122 14646.549640489195
338.32609933564163 14665.594821128145
339.39840740253203 14606.956214955708
340.4704395082099 14541.116204724032
341.5421957409617 14496.568252061634
342.6136761890357 14551.036812517214
343.6848809406365 14464.183179877165
344.75581008392874 14438.088630237084
345.82646370703696 14423.755304619586
346.8968418980512 14379.68347099952
347.96694474501055 14363.575503858587
349.0367723359268 14359.491931999399
350.106324758759 14282.359951414177
351.1756021014353 14193.190885945363
352.2446044518383 14337.809113994188
353.31333189781435 14237.490668273682
354.38178452716966 14236.231184181157
355.449962427665 14312.424616551521
356.51786568702846 14283.104996412449
357.58549439294256 14381.685848774825
358.6528486330535 14354.714174781377
359.71992849496564 14260.520365803744
360.7867340662433 14421.445695789054
361.8532654344144 14394.496524713075
362.9195226869597 14539.037620670493
363.9855059113288 14316.320815785619
365.05121519492604 14354.137992489874
366.11665062511565 14450.239810470142
367.1818122892273 14497.961760337517
368.2467002745434 14513.029279152222
369.31131466831175 14568.118823351158
370.375655557742 14526.5405839116
371.4397230299983 14555.629804801914
372.5035171722102 14536.98315881491
373.5670380714637 14671.839752916921
374.6302858148101 14726.830208282763
375.6932604892554 14630.470938580449
376.7559621817709 14606.83756476556
377.81839097928605 14554.094518979822
378.8805469686886 14642.09478114993
379.94243023683157 14628.846039079493
381.0040408705263 14551.294045466366
382.0653789565458 14560.78724001492
383.1264445816196 14524.025133473382
384.1872378324406 14507.551524342527
385.2477587956637 14535.807536938251
386.3080075579037 14494.910048988528
387.3679842057336 14458.334435577772
388.4276888256918 14550.88626654057
389.48712150426945 14454.160853747799
390.54628232792857 14496.821116640927
391.6051713830857 14367.711424030684
392.66378875611736 14436.295132460591
393.7221345333637 14364.695702792402
394.7802088011249 14309.621429631929
395.838011645661 14358.995032715433
396.89554315319765 14207.983334680937
397.9528034099112 14192.198386864324
399.00979250194723 14156.139166004377
400.06651051541485 14099.00488623659
401.1229575363741 14167.996423793815
402.17913365085224 14087.505108093834
403.23503894483656 14211.329124937096
404.2906735042761 13957.527383815264
405.3460374150818 13948.445607220096
406.401130763119 13929.25543090835
407.455953634224 13925.946096749383
408.5105061141876 13929.709898186778
409.56478828876243 13800.423920405234
410.6188002436629 13698.916552341718
411.6725420645689 13736.192375788738
412.72601383711117 13723.19491138674
413.77921564689314 13767.040050130445
414.8321475794728 13597.04987906247
415.88480972036814 13530.16262047635
416.93720215506437 13674.054480881361
417.9893249690049 13547.71363795762
419.04117824759123 13430.055960159589
420.09276207619223 13407.312574903815
421.144076540133 13424.367551275243
422.1951217247042 13408.108602091277
423.24589771515275 13509.548490640456
424.2964045966928 13341.922578863674
425.34664245449494 13370.05033182477
426.3966113736933 13384.420250794888
427.4463114393875 13297.239339322328
428.49574273662984 13372.096646610205
429.5449053504417 13265.171960175043
430.5937993658026 13318.579948767228
431.6424248676558 13155.788714756918
432.6907819409007 13184.115657071035
433.73887067040596 13194.13328010801
434.7866911409965 13233.391324995895
435.8342434374608 13128.23734898226
436.88152764455117 13120.543885198655
437.9285438469724 13156.209087670159
438.9752921294057 13024.522810091245
440.02177257648145 13044.878720498458
441.06798527279716 13006.55626226959
442.1139303029122 13050.376225936221
443.1596077513459 13143.544503890977
444.2050177025794 13059.527743877343
445.25016024105753 13088.737612079933
446.2950354511886 13045.599597781442
447.33964341733736 13119.068003982986
448.383984223834 13067.947904457807
449.4280579549686 13010.246664390375
450.471864694995 13035.19002128985
451.5154045281306 13064.985232486206
452.5586775385509 13050.621905601673
453.60168381039693 13065.165922126327
454.64442342776783 13169.42431724481
455.6868964747264 13010.586133932173
456.7291030353008 13066.281451868956
457.77104319347563 13071.759831967847
458.8127170332027 12978.97207888009
459.854124638392 13085.376120379316
460.895266092919 13088.4593769997
461.93614148061897 13100.581284921112
462.97675088529104 13201.486405778056
464.01709439069236 13113.714613594062
465.0571720805492 13110.191337286142
466.0969840385442 13178.09443206569
467.1365303483253 13226.763490106605
468.17581109350067 13147.718995021267
469.2148263576437 13150.99415054536
470.2535762242878 13275.123976529076
471.29206077693016 13334.877898904844
472.33028009902773 13321.527100213421
473.3682342740012 13465.711645956497
474.40592338523857 13425.599749685061
475.4433475160804 13561.97763087339
476.4805067498364 13641.755633406588
477.51740116978 13762.836540013353
478.5540308591426 13943.040353235305
479.59039590112116 14178.34982925376
480.6264963788726 14282.237147758686
481.6623323755193 14535.12826016491
482.6979039741436 14711.07185768465
483.7332112577915 15095.67453106096
484.76825430947247 15389.035963466678
485.80303321215797 15603.991148313555
486.837548048783 15836.61193648089
487.8717989022425 16166.215140849328
488.90578585539697 16334.301224628423
489.9395089910686 16483.532639052493
490.97296839203955 16512.41354299938
492.00616414106116 16369.899064514806
493.0390963208429 16445.127313291057
494.0717650140559 16337.940395452883
495.10417030333883 16145.802099217264
496.1363122712901 16002.339832070726
497.16819100046814 15730.04724802335
498.1998065734024 15355.220943084589
499.2311590725767 15147.571858234814
500.26224858044407 14936.368014605789
501.2930751794156 14699.914146758907
502.3236389518679 14514.277124197795
503.35393998014115 14294.657011464946
504.38397834653733 14163.026244744437
505.4137541333221 13995.101954584152
506.4432674227228 13759.817390428685
507.4725182969323 13681.021576556357
508.5015068381035 13607.193715782967
509.53023312835467 13620.915260706493
510.55869724976765 13467.141463835456
511.58689928438434 13317.673784110613
512.6148393142121 13396.875081648966
513.6425174212218 13252.662588704154
514.6699336873462 13336.601591824674
515.6970881944835 13385.484808457793
516.7239810244901 13277.204863112105
517.7506122591931 13319.551534475779
518.7769819803761 13361.802989047017
519.8030902697901 13286.458062527327
520.8289372091476 13421.504568459912
521.8545228801249 13519.067039435253
522.8798473643619 13477.56716483812
523.9049107434621 13555.56523160144
524.9297130989908 13456.350083785877
525.9542545124805 13474.035009065721
526.9785350654201 13364.246080916238
528.0025548392696 13392.556059409148
529.0263139154504 13398.157738025573
530.0498123753423 13455.544259059796
531.073050300296 13284.010636418458
532.0960277716204 13324.55656496133
533.1187448705896 13219.171910287962
534.1412016784416 13238.448841811574
535.1633982763833 13126.995569588127
536.1853347455726 12974.930796973442
537.2070111671401 12933.047628448243
538.2284276221817 12967.682621072041
539.2495841917516 12828.63182913423
540.2704809568677 12789.052675412537
541.2911179985167 12769.427815694311
542.3114953976419 12721.812606254496
543.3316132351592 12596.303512003125
544.3514715919409 12495.944122766294
545.3710705488247 12536.592459179563
546.3904101866156 12560.396301597528
547.4094905860784 12596.502837665457
548.4283118279418 12426.97207979775
549.4468739929034 12540.897607575069
550.4651771616191 12460.543539348522
551.4832214147063 12364.946758562673
552.501006832761 12411.661860964694
553.5185334963226 12404.409959824023
554.5358014859103 12410.074595351347
555.5528108820035 12424.03343054033
556.5695617650363 12305.037412002737
557.5860542154242 12451.789423950278
558.6022883135283 12371.820640815491
559.6182641396881 12375.400341697517
560.6339817741991 12256.320636941837
561.6494412973225 12464.522038381936
562.6646427892883 12433.588907243851
563.6795863302796 12363.416231841764
564.694272000459 12384.524195690045
565.7086998799423 12393.77146534001
566.7228700488104 12389.596216368003
567.7367825871115 12371.85705425969
568.7504375748576 12435.484881463512
569.7638350920224 12474.957162707437
570.7769752185486 12506.933232321357
571.7898580343353 12480.280887432014
572.802483619258 12478.477049360958
573.8148520531431 12616.304610661353
574.8269634157932 12691.502901136091
575.8388177869692 12738.942895167416
576.8504152463938 12842.571909266246
577.8617558737587 13040.574819627042
578.8728397487175 13065.416626737393
579.883666950891 13244.571925206048
580.8942375598654 13465.206605089426
581.9045516551851 13637.444267648723
582.9146093163617 13907.919197177422
583.924410622878 13799.16215280265
584.9339556541727 13916.0275228145
585.9432444896538 14148.732614722529
586.9522772086875 14064.794621094794
587.9610538906127 14225.647166591796
588.9695746147318 14099.432298082093
589.9778394603054 14116.866763491931
590.985848506567 14002.389747803943
591.9936018327098 13991.9156919766
593.0010995178891 13606.150725992227
594.0083416412344 13663.308241777437
595.0153282818283 13428.23121685356
596.0220595187293 13369.394363755931
597.0285354309508 13220.293514836492
598.0347560974806 13184.051411000473
599.0407215972609 13105.44029115271
600.0464320092051 12911.729788879693
601.0518874121954 12939.786471646908
602.0570878850685 12852.859760217872
603.062033506636 12830.377274299273
604.0667243556636 12813.069118715346
605.0711605108936 12722.363767317715
606.0753420510264 12856.791135736315
607.0792690547278 12789.355825182478
608.082941600629 12757.321674809664
609.0863597673306 12784.817714647594
610.0895236333909 12966.018117294014
611.0924332773357 12972.646209308352
612.0950887776617 13120.184890739587
613.0974902128219 13240.98306147972
614.0996376612384 13387.058317452975
615.1015312013005 13553.19327170072
616.1031709113595 13711.637901734779
617.1045568697336 13636.485919946635
618.1056891547069 13974.131076238578
619.1065678445229 14199.754499823797
620.1071930173985 14502.467329946798
621.1075647515099 14671.423809708405
622.1076831250048 14909.718877775686
623.1075482159849 15321.3332373148
624.1071601025305 15445.99506618227
625.1065188626781 15835.128965856095
626.105624574433 16215.985508160378
627.1044773157682 16373.120876438446
628.1030771646128 16596.706668699902
629.1014241988742 16833.40900918173
630.0995184964158 17235.516252288493
631.0973601350688 17384.19173822439
632.0949491926294 17598.234420495784
633.0922857468631 17461.034482438412
634.089369875499 17618.70456648355
635.0862016562278 17610.365412627252
636.0827811667077 17400.390842496585
637.0791084845641 17462.212579278326
638.0751836873878 17201.447930800605
639.0710068527369 17126.062513381377
640.0665780581294 16790.70813490291
641.0618973810506 16516.751005569695
642.0569648989604 16388.20823791553
643.0517806892676 15982.644595230606
644.0463448293649 15721.786754183908
645.040657396592 15407.463185041046
646.0347184682723 15192.347261970217
647.0285281216875 14850.747014856057
648.0220864340772 14661.03225012641
649.0153934826558 14363.433318189407
650.0084493446047 14050.451662919517
651.0012540970674 13998.751688392775
651.9938078171526 13620.796125678302
652.9861105819346 13464.093577710755
653.9781624684565 13451.696793660256
654.9699635537254 13205.485996452122
655.9615139147136 13110.195850471035
656.9528136283589 12942.704407933412
657.9438627715699 12956.850079240987
658.9346614212154 12802.411380754218
659.925209654135 12606.587216145444
660.9155075471263 12667.147845591693
661.9055551769616 12575.904823056126
662.895352620375 12655.07012484276
663.8848999540678 12485.133926660676
664.8741972547068 12349.460863658109
665.863244598926 12346.41354041539
666.8520420633213 12267.858797603507
667.8405897244611 12270.109635193714
668.8288876588758 12189.833473511742
669.8169359430613 12250.834767397799
670.8047346534822 12209.549498965967
671.7922838665672 12187.617293088151
672.7795836587156 12216.094557227272
673.766634106285 12245.82106262661
674.7534352856092 12092.944419410105
675.7399872729766 12066.25919671226
676.7262901446538 12219.921325398185
677.712343976862 12189.650185450755
678.6981488457986 12202.721379641194
679.6837048276229 12183.45001974207
680.6690119984596 12134.608139645363
681.6540704344043 12124.531199556037
682.6388802115107 12207.336962824727
683.6234414058108 12121.257978186666
684.6077540932874 12019.583086140348
685.591818349907 12043.585634221748
686.575634251587 12027.156772475304
687.5592018742263 12015.655752077319
688.5425212936734 11918.151377913418
689.5255925857564 12009.339077543036
690.5084158262707 11907.584667737754
691.4909910909646 11940.956014660776
692.4733184555644 11764.897262571078
693.4553979957618 11857.70021734481
694.4372297872123 11751.649148356086
695.4188139055404 11719.58087937925
696.4001504263324 11603.904054998278
697.3812394251509 11746.596993837542
698.3620809775111 11660.57873080854
699.3426751589104 11616.78456326897
700.3230220448004 11531.82189841359
701.3031217106054 11667.863994800315
702.2829742317172 11664.81221354952
703.2625796834873 11546.364750499986
704.2419381412474 11556.083667719719
705.22104968028 11606.335748655585
706.1999143758458 11582.581165841362
707.178532303169 11540.850538925672
708.1569035374378 11550.377552804423
709.1350281538107 11557.417690475766
710.1129062274158 11566.364503397288
711.0905378333373 11703.607568973777
712.0679230466376 11687.675452234049
713.0450619423427 11806.352038712208
714.0219545954424 11817.881602516338
714.9986010808989 11745.095665314406
715.9750014736292 11895.738216300471
716.9511558485392 11953.588734035306
717.9270642804786 11998.608669996798
718.9027268442787 12099.491093082288
719.8781436147328 11973.45699841836
720.8533146666014 12046.776022004426
721.828240074612 12016.317454997607
722.8029199134635 12000.141065553526
723.7773542578125 12008.634622115116
724.751543182294 11843.011586480592
725.7254867615029 11848.948558616692
726.6991850700015 11694.03640642325
727.6726381823228 11792.25664172949
728.6458461729599 11745.087628870753
729.6188091163858 11744.719924419365
730.5915270870246 11677.212632852355
731.5640001592856 11569.57104494912
732.536228407529 11653.8692452734
733.5082119060917 11614.757103724136
734.4799507292755 11665.784400950466
735.4514449513481 11606.791378333135
736.4226946465496 11772.132965246226
737.3936998890786 11767.43097224469
738.3644607531078 11663.865755477203
739.3349773127793 11694.826699798337
740.3052496421951 11744.268308373223
741.27527781543 11669.053923151328
742.2450619065221 11673.812308385432
743.2146019894826 11624.71989892287
744.183898138288 11604.94126134166
745.1529504268801 11553.353873434511
746.1217589291682 11451.240310228019
747.0903237190341 11451.930646404991
748.058644870318 11545.535292272189
749.0267224568397 11400.278835859364
749.994556552374 11319.61730694001
750.9621472306771 11407.980733867264
751.9294945654583 11491.610336082935
752.8965986304011 11522.84335488203
753.8634594991636 11472.972063289422
754.8300772453586 11485.337594960552
755.7964519425768 11420.348937209
756.762583664371 11579.809582934518
757.7284724842611 11507.730613620106
758.6941184757416 11525.81372100025
759.6595217122667 11570.52212805948
760.6246822672638 11519.898621183896
761.5896002141235 11521.099863484606
762.5542756262093 11518.229253232657
763.5187085768503 11585.705681783327
764.4828991393406 11495.19315349565
765.4468473869474 11496.5041891748
766.4105533929032 11359.15510918174
767.3740172304078 11374.763476471253
768.3372389726283 11478.00282372255
769.3002186926988 11329.909202313318
770.2629564637282 11212.694513869508
771.2254523587872 11299.311285790523
772.1877064509154 11155.055887872131
773.1497188131179 11067.445305219622
774.1114895183728 10981.240703434934
775.0730186396268 11045.762245401322
776.0343062497905 10984.218084001133
776.9953524217381 10908.349803590174
777.9561572283274 10922.359202869118
778.9167207423689 10967.541436476256
779.8770430366476 10934.982137309647
780.8371241839159 10894.929526093529
781.7969642568951 10923.404578472537
782.7565633282757 11131.194738657581
783.7159214707099 10831.608176465206
784.6750387568281 10913.217320021615
785.6339152592227 10948.723836809044
786.5925510504512 10878.443588033879
787.5509462030477 10883.400546958936
788.5091007895098 11011.551005991323
789.4670148823006 10987.785282231727
790.4246885538596 10958.213804994657
791.3821218765861 10974.46678176634
792.3393149228505 10869.341617439652
793.2962677649975 11002.607235542782
794.2529804753303 11050.317783092334
795.20945312613 11103.497069154388
796.1656857896378 11058.584280180046
797.1216785380675 11103.845329454994
798.0774314435985 11302.973750214633
799.0329445783846 11409.9029243058
799.9882180145414 11429.74300709999
800.9432518241574 11516.385692863732
801.89804607929 11676.450422161706
802.852600851962 11796.552700363703
803.8069162141637 11808.527522370245
804.760992237856 11886.471337011792
805.714828994971 11933.65014228968
806.6684265574077 11988.432828490148
807.6217849970271 12002.944255670776
808.574904385674 11899.459292828142
809.527784795142 11938.164598352145
810.4804262972102 11926.477505972796
811.4328289636178 11762.269483633623
812.3849928660748 11583.473307220851
813.3369180762638 11574.664966978975
814.2886046658241 11411.124052396379
815.2400527063783 11240.773297596763
816.1912622695108 11190.446239016497
817.1422334267718 11154.312791142027
818.0929662496856 11088.431449950745
819.0434608097457 10924.929348082343
819.9937171784059 10821.375551948146
820.9437354271013 10688.925014499331
821.8935156272255 10778.198434828682
822.8430578501484 10563.363934428005
823.7923621672016 10519.218896940432
824.7414286496896 10540.09906079711
825.6902573688876 10509.514793082562
826.6388483960363 10481.78005745095
827.5872018023492 10425.363825325285
828.5353176590033 10493.049003089422
829.4831960371503 10335.529244112588
830.4308370079016 10322.314163228431
831.3782406423525 10448.525849499567
832.3254070115545 10429.040207176426
833.2723361865319 10232.08357098599
834.2190282382799 10263.801353805442
835.1654832377644 10357.035512368231
836.1117012559116 10286.860614467852
837.0576823636256 10395.569363965413
838.003426631778 10179.30320965869
838.9489341312074 10128.603442560916
839.8942049327197 10328.35707636387
840.8392391070975 10325.535347051797
841.7840367250865 10274.577478814304
842.7285978573982 10166.342958963009
843.672922574724 10308.945846913235
844.6170109477152 10238.36407601751
845.560863046996 10261.04102945434
846.5044789431595 10213.905103782172
847.4478587067697 10206.434126117329
848.3910024083561 10302.295695035173
849.333910118421 10230.712154966477
850.2765819074339 10238.801928248695
851.2190178458332 10281.32806902867
852.161218004032 10359.668977906202
853.1031824524016 10259.111820670154
854.0449112612987 10237.921353721913
854.9864045010327 10352.355212816557
855.9276622418947 10215.062981368683
856.8686845541379 10289.336324548487
857.8094715079915 10194.750654107544
858.7500231736467 10355.049923065728
859.690339621271 10336.570771238716
860.6304209209939 10318.877116629037
861.5702671429244 10257.145462886696
862.5098783571284 10375.594147360163
863.4492546336569 10441.170976307312
864.3883960425155 10408.43352046864
865.3273026536863 10398.502994888528
866.2659745371238 10502.128619773239
867.2044117627465 10606.855147620035
868.1426144004472 10460.07431925118
869.0805825200823 10620.027001810515
870.0183161914847 10642.277237671802
870.9558154844526 10767.114671598332
871.8930804687552 10738.639162145306
872.8301112141307 10839.071608246082
873.7669077902865 10937.006288478158
874.7034702669062 11051.56876135153
875.6397987136315 11081.634937812343
876.5758932000863 11080.206428343274
877.5117537958522 11169.83511010112
878.4473805704911 11165.253566898245
879.3827735935283 11173.939984336746
880.3179329344603 11246.435868564075
881.2528586627541 11232.290519021437
882.1875508478479 11365.086620318414
883.1220095591489 11220.606578860023
884.0562348660296 11299.456603445626
884.9902268378391 11325.801245170716
885.9239855438955 11332.06841499827
886.8575110534839 11217.990376430627
887.7908034358588 11149.882201298065
888.7238627602474 11173.72962067076
889.6566890958475 11065.65999333078
890.5892825118208 10876.04902463468
891.5216430773125 10922.461607732295
892.4537708614189 10834.458656149684
893.3856659332196 10731.354983491357
894.3173283617652 10592.520405541462
895.2487582160684 10680.286339352595
896.179955565116 10607.352555354737
897.110920477864 10404.807326055274
898.0416530232451 10466.740882550233
898.9721532701478 10296.005175038643
899.9024212874428 10344.443066340913
900.8324571439662 10163.670767049658
901.7622609085302 10150.599967432787
902.6918326499072 9990.140747762274
903.6211724368477 10160.117584335845
904.5502803380696 10134.2042134697
905.4791564222614 10107.627239859805
906.4078007580792 9992.802494056437
907.3362134141571 10021.74419555999
908.2643944590909 10012.1896057043
909.1923439614493 9900.985860518318
910.1200619897754 9972.207869374042
911.0475486125779 9993.698716108021
911.9748038983344 9829.80733152413
912.9018279155007 9885.001865962833
913.8286207324982 9775.337588801409
914.7551824177117 9882.06460361974
915.6815130395116 9777.75690591274
916.6076126662283 9748.926297259777
917.533481366163 9818.69524315143
918.4591192075914 9860.777984070724
919.3845262587565 9860.773794892153
920.3097025878706 9750.788398935294
921.2346482631237 9791.818392764222
922.1593633526682 9743.720041720562
923.0838479246304 9819.168626356597
924.0081020471061 9816.049179426303
924.9321257881656 9719.313497272944
925.8559192158464 9760.21923193064
926.7794823981512 9710.91266879131
927.7028154030686 9694.394148694028
928.6259182985414 9552.812728279849
929.5487911524906 9700.504359369435
930.4714340328119 9735.797560630645
931.3938470073608 9571.867867246778
932.3160301439748 9663.627648179026
933.2379835104548 9635.394680376074
934.1597071745709 9788.740092131779
935.0812012040769 9705.992966483182
936.002465666681 9691.619748623189
936.9235006300696 9682.022584895854
937.8443061619055 9609.815142810618
938.7648823298077 9463.945062854144
939.6852292013809 9560.086418046096
940.6053468441951 9693.159952126189
941.5252353257874 9514.730319892644
942.4448947136698 9620.480724100356
943.364325075323 9547.209015972163
944.2835264782043 9698.40156404785
945.2024989897309 9568.08725415271
946.1212426773054 9628.277535279549
947.0397576082851 9623.569957714652
947.9580438500125 9665.175919048466
948.8761014697939 9643.637706384716
949.7939305349064 9685.164883800868
950.7115311125999 9611.713047750205
951.6289032700952 9554.75967449099
952.5460470745875 9696.435520636667
953.4629625932339 9583.157397333158
954.3796498931715 9669.349325491148
955.2961090415029 9612.137337596818
956.2123401053068 9646.503042009226
957.1283431516276 9563.032269678453
958.0441182474842 9594.966837687762
958.9596654598663 9660.860898517392
959.8749848557309 9543.913113252773
960.7900765020167 9581.780369748536
961.7049404656209 9580.480621623097
962.6195768134185 9610.381223013861
963.5339856122537 9595.672712443124
964.4481669289453 9509.217792018995
965.3621208302793 9557.233477896123
966.2758473830145 9559.362774256462
967.1893466538822 9784.382055805167
968.1026187095813 9552.546861091821
969.0156636167867 9554.670625308801
969.9284814421426 9623.403928807687
970.8410722522622 9591.013812033103
971.753436113735 9539.958810659615
972.6655730931161 9475.263074824512
973.5774832569368 9600.026350349846
974.4891666716958 9563.332488623197
975.4006234038698 9534.381854776966
976.3118535198955 9443.923788572156
977.2228570861935 9642.1988610442
978.1336341691494 9585.45182914213
979.0441848351202 9601.241096035237
979.9545091504333 9706.171568997976
980.864607181391 9737.259771812978
981.7744789942699 9688.329550853612
982.6841246553086 9725.531750737424
983.5935442307236 9700.552812554037
984.5027377867027 9824.52289961133
985.4117053894024 9788.734135013963
986.3204471049557 9794.208819341355
987.2289629994648 9792.713509756393
988.1372531390007 9957.750968000017
989.0453175896091 9835.136589160746
989.9531564173067 9886.661284359092
990.860769688079 9796.19986028766
991.7681574678918 9945.121247167664
992.6753198226706 9953.001881424774
993.582256818323 9996.588658771692
994.4889685207218 9991.674855369778
995.3954549957143 10193.177917705636
996.301716309119 10111.157074181416
997.2077525267232 10174.004803533442
998.1135637142943 10125.182137540605
999.0191499375615 10311.571028079663
999.924511262232 10137.5695707472
1000.8296477539861 10269.271233891193
1001.7345594784656 10251.303137715571
1002.6392465012996 10182.274376940091
1003.5437088880753 10216.048809846243
1004.4479467043584 10243.776284896576
1005.3519600156869 10005.339500683716
1006.2557488875718 10190.585694908263
1007.1593133854858 10082.7793832218
1008.0626535748888 10112.595063070557
1008.9657695212009 10032.971593531049
1009.8686612898182 10164.056015666865
1010.7713289461135 10168.57790966382
1011.6737725554212 10002.829740353209
1012.5759921830577 10110.002310432383
1013.4779878943027 9993.864600106275
1014.379759754418 9898.258387514872
1015.2813078286254 9891.107923180021
1016.18263218213 9825.164430675595
1017.0837328801026 9903.987069189669
1017.9846099876886 9862.953565101514
1018.8852635700023 9796.211149146724
1019.7856936921362 9661.718690722322
1020.6859004191447 9793.593075092162
1021.5858838160675 9637.692095071707
1022.4856439479063 9531.399135096837
1023.3851808796389 9559.090692444172
1024.2844946762143 9617.700281108733
1025.183585402554 9518.001367112136
1026.082453123554 9442.610419853252
1026.9810979040776 9371.260161250098
1027.8795198089647 9441.6257274778
1028.777718903024 9522.107111537796
1029.6756952510368 9323.469770166488
1030.5734489177648 9347.860523111094
1031.4709799679313 9446.240022314178
1032.3682884662358 9381.253965128268
1033.2653744773506 9285.721251504605
1034.1622380659192 9239.535129591843
1035.058879296559 9340.249645056603
1035.9552982338591 9292.136878351983
1036.8514949423825 9252.834886942046
1037.7474694866614 9243.787772354763
1038.6432219312028 9319.728303966134
1039.5387523404825 9318.154588879384
1040.4340607789582 9321.418092710892
1041.3291473110476 9248.170493634625
1042.2240120011465 9449.88323828937
1043.1186549136273 9502.287663517902
1044.0130761128294 9360.576774053308
1044.9072756630649 9316.313062101804
1045.8012536286205 9477.846491133156
1046.6950100737577 9407.004754098678
1047.588545062701 9528.06903011902
1048.481858659663 9456.129206598587
1049.3749509288118 9592.88800482699
1050.2678219343034 9505.594529886766
1051.1604717402515 9576.22499517109
1052.0529004107575 9548.283714159148
1052.9451080098825 9678.961990710643
1053.8370946016694 9590.75686928073
1054.7288602501267 9664.412277755606
1055.6204050192446 9624.82311607321
1056.511728972977 9765.014754266505
1057.402832175254 9644.933191180296
1058.2937146899785 9651.427785267948
1059.1843765810263 9672.478918610574
1060.0748179122456 9847.9152505911
1060.9650387474576 9811.606105619867
1061.855039150456 9842.704739313025
1062.7448191850071 9845.476855920955
1063.6343789148505 9769.221346392322
1064.5237184037014 9836.601295377837
1065.412837715241 9819.262609300022
1066.3017369131267 9768.414594466572
1067.190416060992 9840.503303448786
1068.0788752224398 9754.71465848401
1068.9671144610438 9823.881291103593
1069.8551338403558 9793.283772997462
1070.7429334239023 9824.43184147604
1071.6305132751695 9627.873738038077
1072.517873457633 9766.923761138503
1073.4050140347335 9642.684849077184
1074.2919350698776 9618.655374248792
1075.1786366264623 9577.539940884675
1076.0651187678395 9670.786009381776
1076.95138155735 9437.76370834903
1077.8374250582929 9453.309620479497
1078.7232493339507 9401.768627955942
1079.608854447577 9309.568972622521
1080.4942404623907 9316.958052020334
1081.3794074415982 9273.663282143832
1082.2643554483657 9235.711308672773
1083.149084545841 9193.31365629035
1084.033594797138 9038.872965229913
1084.9178862653516 9126.014240517065
1085.8019590135427 9126.359667840175
1086.6858131047484 8992.258355296393
1087.5694486019802 9043.252192864547
1088.4528655682225 9013.332924023642
1089.3360640664287 9119.408107890233
1090.2190441595321 8916.293088219954
1091.1018059104317 9025.685682361089
1091.98434938201 9083.221336494713
1092.866674637111 8937.7272642186
1093.748781738559 8984.757255012682
1094.6306707491512 8824.384349258728
1095.5123417316554 8848.376628179201
1096.3937947488157 8884.75778751219
1097.2750298633455 8874.405927913482
1098.156047137938 8875.767061684532
1099.0368466352556 8964.078287150858
1099.9174284179317 8925.087332674568
1100.7977925485757 8831.641461060333
1101.6779390897755 8812.064429752061
1102.5578681040806 8899.879492449858
1103.4375796540226 8873.133597962213
1104.3170738021054 8805.525739029477
1105.1963506108077 8835.008038556945
1106.0754101425773 8852.052436097423
1106.9542524598382 8859.448249701949
1107.8328776249855 8794.716033489605
1108.7112857003904 8860.50074532506
1109.5894767483987 8854.61159521224
1110.4674508313292 8992.591962384973
1111.3452080114657 8986.217561635713
1112.2227483510815 9036.827497717302
1113.1000719124077 9217.248751755013
1113.9771787576592 9255.087083828625
1114.854068949022 9224.990612456906
1115.7307425486542 9264.606996739805
1116.6071996186893 9482.323189975761
1117.483440221229 9506.716463073619
1118.3594644183577 9604.299145343226
1119.235272272128 9651.697593090386
1120.1108638445658 9878.437181614492
1120.9862391976712 10073.592675918026
1121.8613983934229 10184.32848450265
1122.7363414937627 10116.211177951753
1123.6110685606182 10355.223288537672
1124.485579655884 10434.664239808604
1125.359874841426 10522.511323922163
1126.2339541790916 10499.913413834074
1127.1078177306936 10885.60554495666
1127.9814655580267 10649.721045002005
1128.854897722851 10783.781730856406
1129.7281142869106 10807.880483722633
1130.6011153119125 10920.80172276789
1131.473900859548 10946.324244117968
1132.3464709914697 10863.606239326757
1133.2188257693178 10715.111280402512
1134.0909652546961 10729.204966511465
1134.96288950919 10613.642251221132
1135.8345985943506 10742.813280144259
1136.7060925717087 10431.074466419865
1137.57737150277 10482.22661260268
1138.4484354490069 10345.172301625964
1139.3192844718778 10208.937212911964
1140.1899186327992 9991.078662831225
1141.060337993178 10123.28941779897
1141.930542614382 9770.862883323229
1142.8005325577597 9817.662420215593
1143.670307884635 9528.670841605131
1144.5398686563003 9602.852971362114
1145.409214934025 9323.518038114269
1146.2783467790541 9225.02693373901
1147.1472642526023 9133.87876285303
1148.0159674158622 9194.830017493003
1148.8844563300026 8914.975605726782
1149.7527310561618 8842.049041102691
1150.6207916554504 8769.690691999507
1151.4886381889592 8732.194878664188
1152.3562707177498 8721.175176353141
1153.2236893028585 8698.999167353062
1154.090894005296 8521.870493518833
1154.9578848860474 8626.104763883432
1155.8246620060709 8478.316629124067
1156.6912254262988 8370.226440836148
1157.5575752076438 8363.652377735763
1158.42371141098 8493.791951386567
1159.2896340971656 8418.68308784622
1160.1553433270346 8391.147464041325
1161.0208391613887 8448.822069318432
1161.8861216610057 8369.741713361616
1162.75119088664 8436.652077481578
1163.6160468990201 8235.421951542541
1164.4806897588442 8229.300890050068
1165.3451195267917 8435.83730111057
1166.2093362635114 8360.567492910506
1167.0733400296285 8230.693347566046
1167.9371308857444 8193.589597145306
1168.8007088924278 8206.836084090903
1169.6640741102328 8350.470018009593
1170.5272265996773 8186.534183203691
1171.390166421259 7994.835195820784
1172.252893635452 8195.041998399998
1173.1154083026995 8302.431930428076
1173.977710483421 8258.705943865647
1174.8398002380145 8102.144901472899
1175.7016776268483 8251.286486818259
1176.563342710264 8289.883107196347
1177.4247955485826 8184.028953694692
1178.2860362020947 8333.176098421642
1179.147064731069 8192.22676857714
1180.0078811957483 8282.42578590269
1180.8684856563486 8186.98147730515
1181.7288781730604 8301.028150353084
1182.589058806052 8457.373006070393
1183.4490276154593 8561.128369289165
1184.3087846614017 8545.88219690086
1185.1683300039676 8407.830473051697
1186.027663703222 8767.517878754486
1186.8867858192025 8644.654780486038
1187.7456964119228 8627.823403153856
1188.6043955413716 8743.888585197443
1189.4628832675116 8875.346762031977
1190.3211596502842 8890.00291231142
1191.179224749596 9020.643695409393
1192.0370786253388 8951.414072739703
1192.8947213373758 9073.846617510808
1193.7521529455407 9312.330955992795
1194.6093735096438 9142.596001160637
1195.466383089477 9176.711118830328
1196.3231817447977 9303.052086603635
1197.1797695353398 9315.583434416129
1198.0361465208189 9224.941144257788
1198.8923127609214 9207.987584450997
1199.7482683153048 9381.08178822338
1200.6040132436028 9384.956127519672
1201.459547605431 9351.175300565237
1202.3148714603722 9153.281789670064
1203.1699848679855 9251.917158809836
1204.0248878878065 9247.808208927292
1204.8795805793507 9149.877327441263
1205.7340630020935 9231.446274737516
1206.5883352155033 9250.780988105958
1207.4423972790064 9040.80313933406
1208.2962492520237 8985.709444016056
1209.1498911939307 8949.087072938933
1210.0033231640937 8951.41874356558
1210.8565452218427 8886.41891161788
1211.7095574264913 8783.177712791945
1212.5623598373222 8577.90394731916
1213.4149525135963 8709.078391031322
1214.2673355145507 8635.189988044074
1215.1195088993936 8458.724352656542
1215.9714727273113 8428.897734082051
1216.8232270574663 8449.135871935521
1217.6747719489904 8310.138156112384
1218.5261074609934 8157.280572105052
1219.3772336525653 8172.844521969845
1220.2281505827668 8359.950814414515
1221.0788583106296 8267.171553903916
1221.9293568951707 8097.806318796266
1222.7796463953746 8045.353253478335
1223.629726870202 8143.040875895601
1224.4795983785934 8170.061483384727
1225.3292609794553 8099.6083722853
1226.1787147316809 8013.021996926
1227.0279596941327 8074.3642476405275
1227.8769959256424 8156.230827709216
1228.7258234850306 8097.886581440155
1229.5744424310833 8005.5918444353565
1230.422852822563 8072.1229152509695
1231.2710547182105 8150.984152953375
1232.119048176739 8072.821272502867
1232.9668332568417 7913.833274869091
1233.8144100171812 8095.542820409103
1234.6617785163999 8076.133183316195
1235.508938813111 8000.250816216538
1236.3558909659114 7908.645263981979
1237.2026350333617 8145.655768424537
1238.049171074008 8151.95361382983
1238.8954991463652 7983.647506169085
1239.741619308932 7904.685406614544
1240.587531620169 8088.336990491785
1241.4332361385277 8042.985541124782
1242.2787329224248 7895.635932395642
1243.1240220302534 7926.306880011076
1243.9691035203869 7903.866751511903
1244.813977451171 8001.498216066764
1245.6586438809263 7995.224371953771
1246.5031028679496 7857.857276368454
1247.3473544705157 8028.319202170841
1248.1913987468706 7959.99936886784
1249.0352357552383 7927.729427039495
1249.8788655538228 7943.434194919569
1250.7222882007918 7955.748696116219
1251.565503754302 8016.357643523894
1252.4085122724755 8014.045364472685
1253.2513138134182 8029.268368585943
1254.0939084352049 7970.860022774266
1254.9362961958905 7927.377688819969
1255.7784771535007 7903.725615414517
1256.6204513660432 7955.015831635125
1257.4622188915 7966.614725940488
1258.3037797878242 7841.35428522981
1259.1451341129468 7823.033106000645
1259.9862819247755 7895.566620064955
1260.8272232811978 7921.594860427438
1261.6679582400666 7984.225243407328
1262.5084868592203 7840.5824875371545
1263.34880919647 7660.846522087682
1264.1889253095997 7811.3135363009305
1265.0288352563712 7806.47795941842
1265.8685390945266 7730.219136440684
1266.7080368817751 7765.391516819825
1267.5473286758115 7746.097739884906
1268.386414534294 7774.295317657353
1269.2252945148703 7654.460607977417
1270.0639686751547 7610.498133144541
1270.9024370727402 7687.7845304520115
1271.7406997651997 7560.849512548006
1272.5787568100714 7491.873839530206
1273.4166082648808 7594.827150762644
1274.2542541871244 7605.530898070183
1275.091694634275 7596.20143543741
1275.9289296637817 7459.054761172255
1276.7659593330663 7469.810233886924
1277.6027836995308 7575.8292004256855
1278.4394028205552 7532.610852081516
1279.2758167534867 7503.060059976869
1280.112025555658 7518.8445561486105
1280.9480292843746 7506.88697006654
1281.7838279969128 7455.491787167433
1282.6194217505326 7442.882970613171
1283.4548106024686 7382.561138685657
1284.289994609926 7487.776959473378
1285.1249738300921 7510.3943861688385
1285.959748320127 7334.06647533099
1286.7943181371702 7399.321381305056
1287.6286833383328 7371.418715623496
1288.4628439807038 7492.788182993463
1289.2968001213521 7426.255073392736
1290.1305518173194 7448.771201507615
1290.9640991256183 7472.6918077958935
1291.7974421032523 7387.460818367227
1292.630580807183 7413.599479485236
1293.463515294361 7491.383976362563
1294.29624562171 7442.622354256486
1295.12877184613 7386.360274514623
1295.961094024493 7398.592284936142
1296.79321221365 7458.262645129949
1297.6251264704333 7521.505236759976
1298.4568368516466 7677.4153065506425
1299.2883434140658 7583.933427028259
1300.1196462144526 7412.936668739023
1300.9507453095375 7555.893041064795
1301.7816407560313 7550.1174207027025
1302.6123326106172 7453.858177808537
1303.4428209299622 7479.896912650356
1304.2731057707024 7567.264507349375
1305.1031871894502 7474.200764709419
1305.933065242798 7570.5850609644285
1306.7627399873181 7622.554910359145
1307.5922114795467 7831.028423406565
1308.4214797760123 8059.736630836682
1309.2505449332057 7668.875738929679
1310.0794070076026 7775.5816073908045
1310.9080660556538 7822.527078599155
1311.736522133786 7902.467329777474
1312.5647752983987 7796.358313577983
1313.3928256058734 7644.162560334624
1314.2206731125661 7911.442479721873
1315.048317874809 7911.589296776239
1315.8757599489109 7894.122381830981
1316.7029993911547 7912.4641246327155
1317.5300362578055 7991.472588150142
1318.356870605101 7824.668581946882
1319.183502489257 7791.20791001295
1320.0099319664623 7951.631907974943
1320.836159092889 8009.746762904346
1321.66218392468 7995.717205718409
1322.4880065179532 8019.459129392225
1323.3136269288134 7909.426713904082
1324.1390452133292 8074.8067477911045
1324.9642614275563 8073.253030890791
1325.7892756275214 8003.467460275492
1326.6140878692295 7995.61642642587
1327.4386982086617 8260.92221914567
1328.2631067017755 7956.144896328767
1329.0873134045069 8049.000592017268
1329.911318372764 7871.590881785736
1330.735121662441 7964.704896861016
1331.558723329399 7965.418197055469
1332.3821234294774 7897.682718918935
1333.2053220185007 7840.959066308491
1334.0283191522612 8000.550460772252
1334.851114886529 7961.721674196825
1335.6737092770582 7916.787543583926
1336.4961023795695 7866.307390243566
1337.3182942497697 7831.93435715034
1338.1402849433325 7813.169141260567
1338.962074515921 7730.750689084189
1339.7836630231632 7564.898578021441
1340.6050505206676 7982.2558984188
1341.426237064028 7851.652376300952
1342.2472227088037 7961.074278356522
1343.0680075105338 7570.769367670335
1343.888591524741 7637.7049743962125
1344.7089748069138 7863.158670605992
1345.5291574125276 7574.408622611717
1346.3491393970307 7553.2908800295245
1347.168920815846 7673.270138594546
1347.9885017243778 7654.181311524483
1348.8078821780036 7534.6644226616045
1349.6270622320844 7502.239151915615
1350.4460419419447 7559.200722812678
1351.2648213629054 7541.684570784038
1352.0834005502438 7394.333792646628
1352.90177955923 7426.282562751641
1353.7199584451064 7618.130804685645
1354.5379372630887 7505.8775652270315
1355.355716068374 7460.5975748903975
1356.1732949161305 7499.220373693408
1356.9906738615155 7459.602405566426
1357.8078529596478 7485.171201356723
1358.6248322656375 7580.818324073606
1359.441611834567 7364.3788865817
1360.2581917214866 7649.181233425038
1361.0745719814367 7371.036369932102
1361.890752669433 7369.915699890099
1362.7067338404577 7337.565966492255
1363.5225155494845 7462.244829261797
1364.3380978514506 7540.441392829498
1365.1534808012839 7297.092748954403
1365.9686644538815 7312.403451121596
1366.783648864117 7507.620160216274
1367.5984340868417 7526.4421817944
1368.413020176893 7375.844094211224
1369.2274071890715 7299.0607148922645
1370.0415951781652 7397.17545931635
1370.8555841989346 7376.555297827335
1371.6693743061223 7209.862787013361
1372.48296555444 7212.497956557161
1373.2963579985844 7416.27305631667
1374.1095516932255 7362.324874892001
1374.9225466930166 7234.734315761644
1375.7353430525782 7296.424064450681
1376.5479408265164 7286.741092639904
1377.36034006941 7230.655140406309
1378.1725408358216 7453.4910967113565
1378.9845431802805 7075.652422654786
1379.796347157304 7324.370762487502
1380.6079528213813 7296.624857420766
1381.4193602269788 7161.1695579588
1382.230569428546 7187.922646620124
1383.0415804805016 7338.580579477182
1383.852393437246 7216.803378682482
1384.6630083531563 7284.952174529068
1385.4734252825892 7215.059842108343
1386.2836442798798 7270.790626291791
1387.0936653993322 7275.901896152199
1387.9034886952395 7179.720205730327
1388.713114221864 7269.00993899031
1389.5225420334482 7274.772501455789
1390.331772184214 7036.818930021259
1391.1408047283585 7188.342436971853
1391.9496397200564 7106.860841976222
1392.758277213461 7350.060965474763
1393.5667172627054 7259.7167191854505
1394.3749599218918 7105.973161167918
1395.1830052451114 7010.326464931536
1395.9908532864265 7226.3561103903685
1396.7985040998774 7227.286429689819
1397.6059577394808 7043.786328877903
1398.4132142592352 7085.275363794783
1399.2202737131156 7001.925767007828
1400.027136155073 7107.792737219979
1400.8338016390353 7102.63125989899
1401.6402702189134 7068.287895091009
1402.446541948586 7062.312060173887
1403.2526168819204 6947.436073530461
1404.058495072757 7065.598889022573
1404.8641765749107 6996.283648524925
1405.6696614421799 7008.203772871004
1406.4749497283356 7140.043810281738
1407.280041487129 6814.336336384571
1408.084936772295 6719.83854031881
1408.8896356375335 7002.63294075873
1409.6941381365323 6945.028624920829
1410.498444322955 6691.307587185518
1411.3025542504402 6810.440747933642
1412.106467972606 6869.066799025619
1412.9101855430508 6768.188741530734
1413.7137070153458 6579.834962843101
1414.5170324430437 6513.263709364146
1415.320161879672 6618.300958763895
1416.1230953787435 6826.9911440291135
1416.925832993742 6509.40508978582
1417.7283747781275 6517.912987007002
1418.5307207853439 6724.682619180249
1419.3328710688093 6465.3627723112795
1420.134825681922 6413.340405556706
1420.9365846780584 6296.638600339824
1421.7381481105713 6584.453357249785
1422.539516032788 6450.114795956067
1423.3406884980232 6293.578781723028
1424.1416655595604 6227.068537047559
1424.942447270665 6286.396484982551
1425.7430336845828 6301.754652475536
1426.5434248545298 6296.922936818525
1427.3436208337116 6322.124445002671
1428.143621675301 6314.251947695481
1428.9434274324558 6441.84865362587
1429.7430381583108 6101.513842896074
1430.5424539059713 6138.264600453867
1431.3416747285337 6581.988711348645
1432.1407006790632 6287.01815859843
1432.9395318106053 6108.538933270703
1433.7381681761835 6108.31352462793
1434.5366098288014 6176.209156053164
1435.3348568214424 6199.415356558361
1436.1329092070573 6104.856900661109
1436.9307670385879 6045.6419418581445
1437.7284303689503 6193.048568714413
1438.5258992510335 6429.834784487526
1439.3231737377118 6153.585001132582
1440.1202538818306 6049.171809951008
1440.9171397362225 6174.035033304042
1441.7138313536925 6208.829282593565
1442.5103287870243 6005.52083825894
1443.3066320889775 5999.245185588771
1444.1027413122956 6213.993222467958
1444.8986565096966 6067.496905180558
1445.694377733882 6108.819706307575
1446.4899050375207 6023.238904502504
1447.2852384732687 5941.751783929527
1448.0803780937622 6144.071504512503
1448.8753239516063 5837.212475144087
1449.6700760993954 5969.6592468347535
1450.464634589689 5942.66481650174
1451.2589994750397 6109.068475197644
1452.0531708079689 5952.169373321049
1452.8471486409799 5882.657598846416
1453.6409330265524 6035.26678465228
1454.4345240171442 5923.97773346791
1455.2279216651987 5913.113987093439
1456.0211260231263 5961.862910934131
1456.8141371433194 6020.595605122839
1457.6069550781594 5968.230965435344
1458.3995798799897 5893.255003364806
1459.1920116011424 5877.987662544698
1459.98425029393 5837.137873542056
1460.7762960106338 5807.780398482118
1461.5681488035225 5889.954139397827
1462.3598087248392 5819.028944128835
1463.1512758268036 6007.077903396782
1463.942550161617 5874.740840843501
1464.7336317814625 5718.862923655128
1465.524520738496 5778.128423372464
1466.3152170848552 5773.24224675766
1467.1057208726506 5843.709635341062
1467.8960321539817 5722.368978096498
1468.6861509809169 5682.58871497691
1469.4760774055085 5731.479717712548
1470.265811479785 5877.347722510354
1471.055353255755 5646.851552350051
1471.844702785409 5778.320596269177
1472.6338601207044 5789.072093045005
1473.4228253135934 6237.777139573269
1474.2115984159936 5718.514336488143
1475.0001794798063 5605.011701746016
1475.7885685569145 5716.313413669803
1476.576765699172 5803.928675347031
1477.3647709584238 5684.553591050781
1478.1525843864802 5832.396850180241
1478.9402060351367 5890.603470030077
1479.7276359561693 5825.255796759451
1480.514874201328 5683.953496466316
1481.3019208223468 5711.113863301045
1482.0887758709323 5696.202271755198
1482.8754393987747 5782.880336809942
1483.6619114575406 5637.872828716831
1484.4481920988783 5807.6427052290555
1485.2342813744108 5949.350580175318
1486.0201793357446 5821.861197036535
1486.8058860344572 5760.787279767545
1487.591401522117 5746.651763694368
1488.3767258502594 5933.2256496411255
1489.1618590704056 5960.944444206479
1489.9468012340494 5788.459772974092
1490.7315523926754 5844.658397033898
1491.5161125977356 5966.315039227903
1492.3004819006637 5866.488410251496
1493.084660352877 5791.433378182783
1493.8686480057622 5874.781374015582
1494.6524449106964 6066.725137036373
1495.4360511190262 6074.404811279899
1496.219466682087 5821.10470755169
1497.0026916511779 5957.118954582668
1497.7857260775945 5868.466985178363
1498.5685700125996 5938.238461994491
1499.3512235074395 5919.518002932362
1500.133686613337 5789.412260809627
1500.9159593814966 5848.04928714478
1501.698041863101 6152.208038700519
1502.4799341093094 5813.134513129359
1503.2616361712662 5798.1737657412505
1504.043148100087 5964.476259207493
1504.8244699468742 5985.230277654253
1505.6056017626997 5884.1756075362955
1506.3865435986281 5658.501797367322
1507.1672955056893 6028.690405835854
1507.9478575348967 5755.385767411682
1508.7282297372512 5789.229774811833
1509.5084121637192 5749.124022339719
1510.2884048652577 5833.999728189638
1511.0682078927948 5682.623094721647
1511.8478212972423 5667.513578072313
1512.6272451294917 5713.045783916904
1513.4064794404076 5826.059218331007
1514.1855242808433 5753.33315346814
1514.9643797016215 5741.032374184733
1515.743045753552 5748.716118234841
1516.5215224874191 5811.893411525555
1517.2998099539836 5499.194232059045
1518.077908203999 5741.437251509261
1518.8558172881785 5723.5579510837915
1519.633537257234 5866.447299102709
1520.4110681618404 5690.696312266464
1521.1884100526604 5853.273899962741
1521.9655629803365 5687.374198445013
1522.7425269954856 5898.644128177654
1523.5193021487103 5838.359111665106
1524.2958884905856 5702.516753999976
1525.0722860716687 5693.877453104464
1525.848494942502 5721.33098177663
1526.624515153595 5723.545288953137
1527.4003467554485 5765.028492951166
1528.175989798534 5900.604187311044
1528.9514443333064 5790.819383294808
1529.726710410203 5976.959872584701
1530.5017880796331 5691.36723947418
1531.276677391992 5824.5049695917205
1532.0513783976457 5841.110970775741
1532.825891146953 5867.461932767019
1533.6002156902414 5827.638550946313
1534.3743520778207 5867.428862898268
1535.1483003599806 5927.077644485054
1535.9220605869923 5909.613523037511
1536.6956328091019 5919.007051006181
1537.4690170765407 6011.160714880172
1538.242213439511 6011.429047750371
1539.015221948208 6020.657309964663
1539.78804265279 5805.239265163293
1540.560675603405 5798.916197954635
1541.3331208501804 6143.836438404009
1542.1053784432224 6043.854075504672
1542.8774484326168 5988.876595051838
1543.649330868422 5987.1949097630095
1544.4210258006842 6078.9975087147395
1545.1925332794308 6005.042447466612
1545.9638533546604 6005.656572901157
1546.7349860763552 6006.709674342351
1547.5059314944829 6254.738913475512
1548.27668965898 6020.097756869889
1549.0472606197673 6160.677745271013
1549.817644426752 5923.197594109368
1550.5878411298072 6109.1403896440825
1551.3578507787988 6061.425703940952
1552.1276734235635 6059.49174528481
1552.8973091139233 6114.848706332996
1553.6667578996767 6197.428582964256
1554.436019830604 6104.722578611781
1555.20509495646 6136.131567793779
1555.9739833269869 6054.80615718256
1556.7426849919011 6050.778264314804
1557.511200000903 6438.786386192202
1558.2795284036674 6153.517551690432
1559.0476702498509 6036.247227685654
1559.8156255890954 6206.134338170351
1560.5833944710157 6239.35709848962
1561.3509769452048 6078.055386462797
1562.1183730612447 6055.608162012707
1562.8855828686865 6333.954475781398
1563.6526064170703 6286.618685175483
1564.4194437559127 6299.498710107156
1565.1860949347047 6064.357106010726
1565.9525600029283 6354.499092988352
1566.7188390100328 6256.911087863118
1567.4849320054564 6098.652549807428
1568.250839038612 6124.8885856410625
1569.0165601588997 6079.593145522471
1569.7820954156887 6284.7932398370785
1570.5474448583373 6062.815357738615
1571.31260853618 6011.918694308072
1572.0775864985299 5959.601296999854
1572.8423787946813 6105.561182910589
1573.6069854739108 5874.520841985055
1574.371406585471 6104.569546345809
1575.1356421785986 6067.149320405698
1575.899692302506 6061.9771892419985
1576.6635570063845 6047.101436016006
1577.4272363394157 5919.386439435796
1578.190730350747 6057.58487719914
1578.9540390895163 5865.052540053136
1579.7171626048384 5848.021726304873
1580.480100945806 5797.9189897334045
1581.2428541614918 5975.802270244767
1582.0054223009538 5935.345465758734
1582.767805413223 6008.964983816975
1583.5300035473156 5916.055987584972
1584.292016752228 6113.485472583436
1585.0538450769309 5950.340647194166
1585.8154885703807 5833.366027584075
1586.5769472815136 5741.801115116344
1587.3382212592405 5903.224601634511
1588.099310552463 6001.359546438831
1588.8602152100484 5589.814767304284
1589.6209352808564 5931.646270743182
1590.3814708137234 5969.733891687329
1591.14182185746 5828.346372795311
1591.9019884608679 5990.061644043797
1592.6619706727215 5729.896963358511
1593.4217685417734 5748.028749604491
1594.1813821167616 6150.4451902455585
1594.9408114464022 5719.518947053055
1595.7000565793933 5925.642341873792
1596.459117564409 5993.338235475314
1597.2179944501113 5749.916896626599
1597.9766872851324 5780.80031564125
1598.735196118092 5890.058164528397
1599.4935209975883 5947.478092158448
1600.2516619721973 5909.884685495428
1601.0096190904787 5801.516764919189
1601.7673924009723 5868.368306059801
1602.524981952196 5773.828648359294
1603.2823877926476 5753.426338657552
1604.0396099708087 5763.304892589951
1604.7966485351371 5786.1978041035145
1605.5535035340745 5732.180167186098
1606.3101750160404 5885.289720737086
1607.0666630294363 5800.179326119637
1607.822967622642 5619.98633350774
1608.5790888440224 5818.931338551412
1609.3350267419137 5807.250365863256
1610.0907813646445 5631.360635738758
1610.8463527605145 5761.418426663553
1611.601740977805 5778.850730707987
1612.356946064785 5633.410131428596
1613.1119680696902 5625.154970501973
1613.8668070407512 5537.889042448174
1614.6214630261748 5701.984776902258
1615.375936074137 5653.68614436358
1616.1302262328118 5787.702931464317
1616.8843335503425 5666.034883324313
1617.638258074854 5644.083911993486
1618.391999854457 5594.464865176278
1619.1455589372363 5672.445647926325
1619.8989353712623 5731.949540519233
1620.65212920458 5532.712152390068
1621.4051404852235 5633.156746714775
1622.1579692611976 5669.962936993611
1622.9106155804966 5500.915286668614
1623.663079491087 5669.768343870984
1624.4153610409248 5692.238878363992
1625.1674602779385 5582.7690034990455
1625.9193772500403 5491.066333978318
1626.6711120051277 5828.9599993547945
1627.4226645910676 5720.501458410727
1628.174035055721 5433.664437765337
1628.9252234469168 5653.7019316514325
1629.676229812474 5552.173567744261
1630.4270542001905 6078.91659177879
1631.1776966578382 5834.427736944012
1631.9281572331747 5734.728093882637
1632.678435973945 5729.104192163954
1633.4285329278573 5833.275944775885
1634.1784481426203 5758.684489710279
1634.9281816659113 5955.850235753796
1635.677733545388 6123.258183290241
1636.4271038286934 5927.871051791063
1637.176292563452 5922.165359393584
1637.9252997972635 6047.960242293385
1638.674125577716 6231.117541501173
1639.4227699523672 6376.0173589023925
1640.171232968767 5967.034991977334
1640.9195146744423 6124.07503602641
1641.6676151168977 6352.079988709653
1642.4155343436178 6332.697505602407
1643.1632724020765 6340.928331199726
1643.9108293397167 6314.048964813297
1644.658205203974 6331.2030099998965
1645.4054000422566 6754.439791616952
1646.1524139019566 6458.86530036463
1646.8992468304423 6462.80719801026
1647.6458988750728 6425.9205752204425
1648.3923700831765 6508.598006977062
1649.1386605020743 6570.302005661579
1649.8847701790564 6618.073360010909
1650.6306991614038 6598.04579397912
1651.3764474963682 6629.814231875529
1652.1220152311944 6484.1444761363
1652.867402413096 6698.461133311129
1653.6126090892776 6485.291988674829
1654.3576353069184 6724.7710979366075
1655.1024811131829 6488.628411522115
1655.8471465552066 6463.125652518529
1656.5916316801213 6550.056704441168
1657.3359365350298 6519.716476936903
1658.0800611670165 6353.616082274357
1658.824005623148 6416.8840057564685
1659.5677699504722 6354.62485132161
1660.3113541960192 6335.163051754062
1661.054758406799 6258.108175600629
1661.7979826297997 6142.041067112517
1662.5410269119966 6027.556620402194
1663.283891300338 6362.791410077863
1664.0265758417645 6055.0290500176
1664.7690805831826 6011.07562956182
1665.5114055714948 6003.4308888392
1666.2535508535748 6152.4894515953565
1666.9955164762814 5813.210747142522
1667.7373024864555 5753.659067109823
1668.478908930916 5861.733280613568
1669.220335856462 5613.036475150004
1669.9615833098778 5676.402805920711
1670.7026513379296 5421.860597717363
1671.44353998736 5696.422606639448
1672.1842493048916 5648.316504947284
1672.9247793372379 5495.066980094021
1673.6651301310812 5539.618114832292
1674.4053017330934 5418.426660015158
1675.1452941899242 5561.755389867987
1675.885107548207 5212.742352433083
1676.6247418545518 5324.825128702982
1677.3641971555535 5377.470754532899
1678.1034734977893 5315.800414501236
1678.8425709278108 5245.721252838692
1679.5814894921605 5320.293959913506
1680.320229237359 5100.516754294121
1681.0587902098978 5219.819537994465
1681.7971724562685 5138.932259864703
1682.5353760229264 5130.596416482527
1683.2734009563173 5003.265785452653
1684.0112473028657 4827.449825800378
1684.7489151089794 5001.613399119314
1685.4864044210462 5019.389514819932
1686.2237152854377 4850.926080765754
1686.960847748498 5014.515583785882
1687.6978018565642 4813.0120780429515
1688.434577655944 4681.690883201435
1689.1711751929379 4786.749727283859
1689.9075945138156 4712.76841789159
1690.6438356648396 4622.64330197179
1691.3798986922448 4426.051707394996
1692.1157836422499 4680.215515695184
1692.851490561059 4648.188507707525
1693.587019494853 4606.2679176306865
1694.3223704897991 4404.929090030831
1695.0575435920364 4338.80949252584
1695.792538847696 4663.069042471166
1696.527356302886 4465.151404872629
1697.2619960036936 4192.435101860947
1697.9964579961907 4407.28114931291
1698.730742326432 4050.2819337976302
1699.4648490404488 4086.1077930757865
1700.1987781842563 4190.175716491356
1700.9325298038548 4406.582515150231
1701.6661039452174 4312.40567237228
1702.3995006543082 4275.488195993429
1703.1327199770658 4268.065388538687
1703.865761959416 3855.2383834784987
1704.598626647261 4333.9751979460225
1705.3313140864866 4088.792617276407
1706.0638243229587 4150.5035640785345
1706.7961574025303 4285.382901029197
1707.528313371029 4179.905195989542
1708.260292274268 3903.491312492524
1708.9920941580403 4091.2553781371107
1709.7237190681226 4005.3523400043136
1710.4551670502697 4018.2243152487463
1711.18643815022 3824.32309352641
1711.9175324136959 4184.3109038979
1712.6484498863938 3939.1506371685987
1713.379190614005 3785.8838180309685
1714.109754642188 4072.868152247867
1714.8401420165883 3862.1233210419523
1715.570352782839 4126.408967633879
1716.3003869865497 4057.1817860346114
1717.0302446733076 3819.5590045942263
1717.7599258886876 3820.031752623453
1718.4894306782444 4176.368301183876
1719.2187590875183 3855.0958918647493
1719.9479111620203 4014.6036290664824
1720.6768869472544 3905.7915410669934
1721.4056864887025 4010.2231872153366
1722.1343098318284 4045.1689569015593
1722.8627570220742 3885.174421904959
1723.591028104871 3796.179509701126
1724.3191231256242 3722.6932053398205
1725.0470421297232 3867.6839636388127
1725.7747851625427 3971.9780987319637
1726.5023522694337 3840.4246685681865
1727.2297434957363 3887.734137824083
1727.9569588867635 3690.703900889793
1728.6839984878152 3890.8645439176753
1729.4108623441734 3565.5293259598743
1730.1375505011038 3935.4837966802015
1730.8640630038426 3734.5224448171057
1731.5903998976264 3736.4313965691617
1732.316561227657 3981.0787650861835
1733.0425470391274 3707.4825679088194
1733.7683573772065 3975.9919907036733
1734.4939922870508 3762.749270099601
1735.2194518137949 3735.239237535048
1735.9447360025606 3756.9573301256255
1736.669844898439 3740.329955826392
1737.3947785465189 3668.4408866811923
1738.1195369918605 3631.223751599186
1738.8441202795093 3686.127701417178
1739.5685284544943 3642.158125026571
1740.292761561821 3752.5079465676636
1741.0168196464838 3886.5612584507653
1741.7407027534518 3673.553591397688
1742.464410927687 3681.1436094560568
1743.187944214118 3673.5019881357375
1743.9113026576688 3563.160708372715
1744.634486303241 3707.9931916402056
1745.3574951957125 3637.2220759731326
1746.0803293799509 3621.9874563104395
1746.8029889008048 3548.367455094165
1747.5254738031017 3813.287132263164
1748.2477841316504 3441.936843877931
1748.969919931249 3611.535137876217
1749.6918812466665 3449.6259755414294
1750.4136681226646 3793.0117745631455
1751.1352806039777 3620.945486699212
1751.856718735331 3604.5845252287154
1752.5779825614281 3642.6930110258654
1753.2990721269507 3775.103967073535
1754.0199874765676 3728.023265954945
1754.7407286549314 3560.748040914904
1755.4612957066693 3720.5990805269066
1756.1816886763954 3622.724725922709
1756.9019076087097 3583.6614042719875
1757.6219525481865 3744.3647130502386
1758.3418235393856 3590.9744112942853
1759.061520626854 3786.365637720235
1759.7810438551096 3691.7960442931194
1760.5003932686614 3459.076351445902
1761.2195689119999 3739.8324968459356
1761.938570829594 3503.922171741069
1762.657399065898 3705.2481426092754
1763.376053665348 3530.790682308213
1764.0945346723602 3548.9760840884783
1764.812842131334 3717.716293327775
1765.5309760866512 3427.9544256920817
1766.2489365826787 3475.96948159512
1766.9667236637597 3584.9805579580047
1767.684337374223 3359.5696730269083
1768.401777758383 3246.0734280091356
1769.1190448605284 3446.59732152732
1769.836138724937 3439.3314386176476
1770.5530593958665 3600.25371144387
1771.2698069175603 3644.038591401494
1771.9863813342326 3567.8345739952065
1772.702782690094 3434.0009192271036
1773.4190110293293 3550.558021943694
1774.1350663961111 3610.429402879488
1774.8509488345844 3368.4838823171885
1775.5666583888924 3598.6035593758593
1776.2821951031437 3743.3754795218156
1776.9975590214362 3490.0638315714423
1777.7127501878585 3972.5913351203185
1778.4277686464684 3568.7253361690246
1779.1426144413108 3739.8443887041476
1779.8572876164162 3556.968452066757
1780.571788215797 3440.623261820914
1781.2861162834415 3529.9381836219495
1782.0002718633277 3461.8620251165585
1782.7142549994132 3519.2431021634425
1783.4280657356376 3497.62564156361
1784.141704115922 3333.7783797363545
1784.855170184177 3351.87092544653
1785.5684639842839 3460.2615953330796
1786.2815855601148 3305.0872615996436
1786.9945349555237 3458.747256306495
1787.707312214343 3360.125189005151
1788.4199173803918 3542.776818308584
1789.132350497468 3371.5948976476475
1789.8446116093583 3385.5080295952735
1790.556700759822 3480.1608508671598
1791.2686179926077 3178.893473725869
1791.9803633514493 3450.493366255016
1792.6919368800554 3314.0861370158395
1793.4033386221236 3536.5329978540444
1794.1145686213295 3447.9852861549116
1794.8256269213307 3517.0924079074903
1795.536513565774 3492.116937630225
1796.247228598284 3283.423511777318
1796.9577720624693 3289.2961540183132
1797.6681440019165 3363.3256028494993
1798.3783444602013 3498.2595698392242
1799.0883734808776 3483.4915075186204
1799.7982311074884 3515.464930825253
1800.5079173835475 3257.0159271737866
1801.2174323525633 3579.748891491671
1801.9267760580187 3375.043516953475
1802.635948543386 3407.8962918494203
1803.3449498521113 3352.1943727063162
1804.0537800276325 3340.2059281561865
1804.7624391133668 3189.0934849849737
1805.47092715271 3191.9241427388924
1806.1792441890484 3296.802926756112
1806.8873902657433 3371.214594267677
1807.5953654261448 3345.3635256807656
1808.3031697135812 3232.293702987123
1809.0108031713662 3254.563172830362
1809.71826584279 3341.682754817856
1810.425557771141 3228.167328350787
1811.1326789996747 3737.4097222698897
1811.839629571632 3404.421319134569
1812.5464095302468 3392.7720309506717
1813.2530189187182 3486.0777864623074
1813.959457780249 3288.092900387413
1814.6657261580076 3361.256464144969
1815.371824095153 3232.3604117245172
1816.0777516348262 3360.8051957826165
1816.78350882015 3016.259387140434
1817.4890956942272 3251.1637993122376
1818.1945123001533 3195.1678000047514
1818.8997586809928 3320.884480447375
1819.6048348798067 3223.8809562043675
1820.3097409396287 3148.5061013239274
1821.0144769034796 3460.4372658442758
1821.7190428143622 3196.8491479618096
1822.423438715261 3491.0897165400993
1823.1276646491478 3262.1883633741336
1823.8317206589727 3397.5366186372835
1824.5356067876692 3353.026785783145
1825.2393230781581 3331.103558489596
1825.942869573335 3129.2411560816436
1826.646246316086 3199.696606699605
1827.3494533492758 3331.596645804236
1828.052490715756 3240.7130015732682
1828.7553584583547 3244.9359563164626
1829.458056619891 3355.2982322642483
1830.1605852431585 3248.6459889141015
1830.8629443709433 3122.6878861398045
1831.5651340460063 3325.38143168403
1832.2671543110919 3335.4035928069998
1832.9690052089318 3361.663426499513
1833.6706867822395 3166.251497364734
1834.3721990737104 3468.316452079793
1835.0735421260233 3256.54531459632
1835.774715981841 3358.8513373352953
1836.4757206838058 3407.066817182913
1837.1765562745459 2965.0804622329747
1837.8772227966747 3091.134713770244
1838.5777202927839 3362.5161743047115
1839.2780488054523 3219.2814469052946
1839.9782083772352 3134.879369715814
1840.6781990506806 3312.7005041727994
1841.378020868313 3288.035989363822
1842.0776738726418 3318.474715006819
1842.777158106157 3079.2799538391296
1843.4764736113375 3120.7600951024774
1844.1756204306403 3464.6934610006597
1844.8745986065078 3132.0466747713413
1845.5734081813607 3011.8144607139066
1846.2720491976124 2997.0333359005886
1846.970521697649 3009.133877145908
1847.6688257238511 3128.745235705054
1848.3669613185684 3178.756473493987
1849.0649285241452 3047.387750252063
1849.7627273829057 3202.724037013116
1850.460357937156 3345.284969753404
1851.1578202291857 2792.2561043351943
1851.8551143012664 3177.083306017753
1852.5522401956569 3261.9311353909075
1853.2491979545957 3360.377321386254
1853.9459876203055 3028.007946862461
1854.6426092349902 3049.1813174234553
1855.3390628408451 3049.2331190473587
1856.0353484800362 3300.6376889161666
1856.7314661947203 3114.879367719845
1857.4274160270397 3071.5049368514115
1858.123198019115 3153.4947942564804
1858.8188122130487 3112.7230641184788
1859.5142586509319 3105.64281343024
1860.209537374838 3085.52668252457
1860.9046484268183 3081.8254195870227
1861.599591848917 3233.4700429421837
1862.294367683151 3043.885107302102
1862.988975971528 3006.9766613295014
1863.6834167560355 3143.9796303175663
1864.3776900786452 3128.7936086449663
1865.0717959813119 3258.2085766302653
1865.7657345059724 3129.7775016817886
1866.4595056945564 3145.1999236812376
1867.1531095889586 3062.082510248134
1867.846546231076 3074.1966961712305
1868.5398156627743 3296.341491690576
1869.2329179259123 2986.661324734718
1869.9258530623283 3266.9759446622984
1870.618621113843 3132.051240149868
1871.3112221222636 3009.9721590037143
1872.0036561293764 2968.406976590331
1872.695923176956 3184.243786400379
1873.3880233067594 3286.024153047587
1874.0799565605212 2927.585291405094
1874.7717229799673 2980.0520101476336
1875.4633226068036 3112.8870744266874
1876.1547554827175 3140.9931552106273
1876.8460216493859 3064.0744262845815
1877.5371211484617 3039.1740042721112
1878.2280540215852 3217.6477820134182
1878.9188203103804 2965.2566729643777
1879.6094200564548 3109.3248249270505
1880.299853301396 2937.0598936586016
1880.9901200867826 3260.475070454499
1881.6802204541673 3106.635545067372
1882.3701544450942 3054.704832411529
1883.059922101087 2993.759405612157
1883.7495234636517 3172.0430939875578
1884.4389585742792 3054.8929762285998
1885.1282274744517 2907.247870076389
1885.8173302056166 3255.1377886005857
1886.506266809225 3128.8301951101444
1887.195037326701 2861.320646126668
1887.8836417994517 3078.6419505170734
1888.5720802688702 3278.4613859989176
1889.260352776333 3071.5299086299397
1889.9484593632042 3038.077084730361
1890.63640007082 3005.5346647309607
1891.3241749405151 3054.612217031471
1892.0117840135954 3111.892869293885
1892.6992273313572 2849.464008519508
1893.3865049350788 2992.9865696625275
1894.0736168660223 3259.063598566879
1894.7605631654333 2988.714130203737
1895.4473438745408 2898.9604546483397
1896.133959034556 3116.4481713238847
1896.820408686679 2969.5074019416493
1897.506692872088 3128.3753809839154
1898.192811631945 3025.3736883767265
1898.8787650073991 3199.80184608977
1899.5645530395832 3166.5048668978484
1900.2501757696118 3241.9507128140363
1900.9356332385796 2827.6917899024224
1901.620925487574 3082.9447025522386
1902.3060525576602 3053.967207823464
1902.9910144898859 3194.0841624622285
1903.6758113252872 2885.532963573775
1904.3604431048789 3034.264021070734
1905.0449098696663 3046.7178559560416
1905.7292116606295 2973.4749296977684
1906.4133485187394 3007.812655466375
1907.0973204849488 2668.2713402351155
1907.7811276001976 2913.6423584540357
1908.4647699053967 2972.543867438144
1909.1482474414588 2792.100715598939
1909.8315602492694 2818.6141254767854
1910.5147083696957 3025.083875140056
1911.1976918436012 2928.3159425651243
1911.880510711815 2950.8698962080534
1912.5631650151681 2977.9386538291064
1913.2456547944657 3004.043799928359
1913.927980090495 2879.824436144754
1914.6101409440362 2945.5413679241747
1915.2921373958416 2890.3988305410976
1915.9739694866603 2842.6174909797096
1916.655637257214 3169.394407021571
1917.3371407482136 2823.7745586687793
1918.0184800003572 3149.1738200192576
1918.6996550543154 3038.3714880557354
1919.3806659507554 2942.12384655193
1920.0615127303208 3092.4935356167593
1920.7421954336423 3130.5138200864367
1921.4227141013343 3546.655484168269
1922.103068773993 2870.757286305178
1922.783259492202 3098.3542180750874
1923.4632862965227 2873.0330909438653
1924.1431492275078 2697.87359129431
1924.8228483256917 2868.3892592213515
1925.5023836315922 2892.8584207117374
1926.1817551857057 2756.941241070527
1926.8609630285227 3029.1335220034957
1927.5400072005123 2896.1495487759175
1928.218887742125 2793.9652096687482
1928.8976046938005 2671.1579578307055
1929.5761580959588 2890.524659610715
1930.2545479890086 2942.531561077674
1930.9327744133352 2816.246721815721
1931.6108374093164 3023.7490969948713
1932.2887370173066 3055.5920097482767
1932.9664732776473 2516.868745394968
1933.6440462306673 2760.4653214765717
1934.3214559166754 2724.720403120657
1934.9987023759659 2975.5044668957034
1935.675785648813 2905.6708747355324
1936.3527057754836 2661.226470554576
1937.029462796223 2967.755228433518
1937.70605675126 2810.372707910741
1938.3824876808085 2872.450586100311
1939.058755625072 2820.454400290617
1939.7348606242267 2840.842231578472
1940.4108027184448 2835.5269206978714
1941.0865819478713 2986.910776125649
1941.7621983526478 2764.564282523569
1942.4376519728921 2692.0502368310727
1943.1129428487038 2766.028805764542
1943.7880710201734 2928.4201274955844
1944.4630365273733 2972.88619818664
1945.1378394103576 2550.80830998276
1945.8124797091714 2573.6035709145913
1946.4869574638324 2596.3540840679575
1947.161272714353 2820.7054600710608
1947.8354255007234 2848.4141372326844
1948.5094158629272 2882.8882564434334
1949.1832438409183 2904.8250494802023
1949.8569094746435 2922.9200245422408
1950.530412804037 2824.7446858510384
1951.2037538690092 3022.2307967143097
1951.8769327094578 2686.0651760079973
1952.5499493652678 2847.7117222889183
1953.222803876306 2953.1064532568994
1953.895496282421 2814.258003960164
1954.5680266234522 2699.4026524121878
1955.2403949392155 2858.1204893265685
1955.9126012695142 2586.9057168158206
1956.5846456541403 2874.455110641679
1957.2565281328643 2703.487882166548
1957.9282487454457 2837.231377405144
1958.5998075316202 3030.9260828362917
1959.27120453112 2978.4412770009844
1959.9424397836501 2751.649240505701
1960.613513328908 2865.6094676768544
1961.2844252065697 2885.5643463562965
1961.9551754563017 2744.475733061216
1962.6257641177453 2631.5467959253506
1963.29619123054 2704.1262622126246
1963.966456834296 2640.9157623898013
1964.6365609686181 2649.376976783155
1965.306503673086 2830.096737357415
1965.976284987275 2775.4447197489912
1966.645904950734 2688.1251811397537
1967.315363603002 2576.955743767197
1967.9846609836077 2671.7906562327353
1968.6537971320486 2820.861037565421
1969.3227720878222 2750.70705485074
1969.9915858904042 2603.4138960060286
1970.660238579252 2809.802108873615
1971.3287301938108 2791.146930478812
1971.997060773514 2427.6023910932813
1972.665230357772 2803.142904795837
1973.3332389859843 2523.9510000554833
1974.0010866975335 2669.7261948451364
1974.6687735317864 2769.257561618552
1975.3362995280932 2734.9318616696714
1976.003664725793 2734.2111503014394
1976.6708691642052 2402.1710784319903
1977.3379128826364 2668.483464165771
1978.004795920373 2759.727402441677
1978.6715183166925 3087.0746708822558
1979.3380801108524 2403.034770686524
1980.0044813420973 2795.451295105767
1980.6707220496555 2494.875374882966
1981.3368022727373 2565.6192492553478
1982.0027220505417 2747.641016772683
1982.66848142225 2523.988471513666
1983.3340804270283 2535.4231956119866
1983.999519104027 2701.356742453309
1984.6647974923835 2840.5653331060503
1985.329915631215 2755.0219400153587
1985.99487355963 2793.900390523898
1986.6596713167146 2822.666686921736
1987.3243089415428 2765.7451801194757
1987.9887864731754 2849.789864586896
1988.6531039506553 2558.5875821720265
1989.3172614130071 2959.6724119196006
1989.9812588992481 2600.40281294325
1990.645096448372 2607.7732801256143
1991.3087740993633 2775.1860474674595
1991.9722918911848 2566.934643526848
1992.635649862792 2614.980850205734
1993.2988480531185 2793.143104976879
1993.9618865010852 2952.4335996591594
1994.6247652455968 2615.653751589014
1995.287484325545 2502.380113274379
1995.9500437798033 2849.8955849543627
1996.6124436472292 2471.4253521109617
1997.2746839666706 2733.003920788541
1997.936764776954 2675.9385171699787
1998.598686116895 2582.8411908438093
1999.2604480252903 3046.49165668731
1999.9220505409212 2552.897710124598
2000.5834937025593 2480.6212949742794
2001.2447775489582 2607.684768384577
2001.9059021188514 2670.9207890457506
2002.5668674509616 2507.2098120299133
2003.2276735839987 2458.5850972548888
2003.8883205566508 2914.6567952469154
2004.5488084075987 2520.89399667199
2005.2091371755014 2596.0348838415016
2005.8693068990033 2545.1583274434415
2006.5293176167397 2770.890000986812
2007.1891693673224 2475.904302876917
2007.848862189354 2407.800177141784
2008.5083961214223 2618.116194318105
2009.1677712020955 2518.183072268762
2009.8269874699254 2343.222397656115
2010.4860449634598 2896.6167598077764
2011.1449437212177 2206.362199071066
2011.8036837817108 2820.925287242189
2012.4622651834325 2708.82046101167
2013.1206879648653 2807.2144727930595
2013.7789521644736 2765.2834207112955
2014.4370578207036 2338.37642803789
2015.0950049719922 2529.3854556822016
2015.7527936567585 2657.622970492101
2016.4104239134067 2483.0042760778847
2017.067895780323 2875.815373169734
2017.725209295886 2411.658505541452
2018.3823644984514 2930.4956136377214
2019.0393614263648 2525.5572095845696
2019.6962001179545 2452.392042069825
2020.3528806115355 2696.4026632835503
2021.0094029454067 2310.798733962877
2021.6657671578487 2599.12380387672
2022.321973287133 2578.199373150058
2022.9780213715148 2588.390213724272
2023.6339114492293 2503.291624303211
2024.2896435585026 2511.54621401215
2024.9452177375442 2505.967147375958
2025.600634024544 2809.838887275987
2026.2558924576842 2571.689974833608
2026.9109930751292 2631.2815754705034
2027.565935915025 2515.550934730327
2028.2207210155066 2755.378699101908
2028.8753484146964 2698.0708815813678
2029.529818150695 2423.7592013812264
2030.1841302615903 2602.1304023083967
2030.8382847854573 2365.7430671674074
2031.4922817603601 2460.9530739874363
2032.1461212243357 2549.5555519540426
2032.7998032154192 2239.9994237852475
2033.4533277716218 2475.039794215736
2034.1066949309443 2371.8603275060877
2034.7599047313688 2550.895365300133
2035.4129572108704 2714.6588132927454
2036.0658524074006 2793.7992430709264
2036.7185903589016 2572.1959069458676
2037.3711711032956 2565.4589008489866
2038.023594678496 2510.3290034651172
2038.675861122394 2454.241071268451
2039.3279704728757 2734.616631132735
2039.9799227678031 2459.837496245015
2040.6317180450278 2273.2731361348847
2041.2833563423865 2594.901608180155
2041.9348376977014 2470.3499275831937
2042.5861621487784 2550.2233330817335
2043.2373297334088 2749.368615211888
2043.8883404893695 2651.925585469201
2044.5391944544208 2667.9455916927136
2045.1898916663158 2479.155287657651
2045.8404321627804 2703.7497340516866
2046.4908159815368 2563.4662069430324
2047.1410431602853 2239.070416271882
2047.7911137367173 2231.3445885952824
2048.441027748504 2668.6979742670733
2049.090785233302 2558.867881062166
2049.7403862287592 2442.1551745143106
2050.389830772503 2685.8272029576497
2051.0391189021466 2319.7443405610306
2051.688250655294 2426.6489898765712
2052.337226069527 2405.60936244408
2052.986045182417 2661.6182230708027
2053.634708031521 2211.9634266198073
2054.283214654375 2478.7248453018738
2054.931565088511 2230.39946897111
2055.579759371436 2319.3023058849267
2056.2277975406523 2473.7963196003248
2056.8756796336384 2603.42560332418
2057.5234056878617 2214.552906389187
2058.1709757407752 2397.8830828870337
2058.8183898298194 2426.983839704909
2059.465647992416 2416.1770863449083
2060.1127502659747 2504.889892369419
2060.759696687888 2381.634357011657
2061.4064872955405 2507.6998415706653
2062.053122126292 2705.3065028696956
2062.699601217497 2319.286849284151
2063.345924606485 2368.692829309586
2063.992092330587 2519.230740252185
2064.638104427102 2406.70393873979
2065.283960933324 2702.856482543743
2065.92966188653 2532.4883948452225
2066.5752073239855 2555.1615038351706
2067.2205972829397 2498.298582922366
2067.86583180062 2597.206689770291
2068.5109109142522 2403.8269584040886
2069.15583466104 2428.278904180504
2069.8006030781708 2452.75607810768
2070.445216202821 2387.8052676453763
2071.089674072153 2713.750723990758
2071.7339767233116 2474.3604705805583
2072.3781241934303 2448.1220488395766
2073.0221165196253 2489.2566514564724
2073.6659537390024 2643.583023574209
2074.3096358886505 2505.6465142160864
2074.953163005637 2340.208978693639
2075.596535127028 2422.8980342566424
2076.2397522898664 2313.401995380369
2076.882814531182 2502.764784262649
2077.5257218879924 2578.8821488645253
2078.1684743973 2349.968219458672
2078.8110720960885 2142.537820237863
2079.453515021336 2565.291500408227
2080.095803209997 2513.898294330582
2080.7379366990135 2425.5740095127885
2081.37991552532 2370.4520676532566
2082.0217397258275 2455.649282474748
2082.6634093374414 2220.8610109467763
2083.3049243970418 2526.2428089537925
2083.9462849415067 2409.07501382196
2084.587491007689 2396.9220990497174
2085.2285426324324 2488.842328540413
2085.869439852564 2436.618698364308
2086.510182704902 2177.370435244152
2087.1507712262483 2526.5202827672665
2087.791205453381 2176.501067226417
2088.4314854230743 2607.3099003049156
2089.0716111720867 2428.423812760985
2089.7115827371617 2186.551726694389
2090.351400155023 2178.5586292095772
2090.991063462385 2170.66197834996
2091.6305726959527 2328.8241887111653
2092.2699278924047 2701.9147032166684
2092.9091290884153 2441.0469206631305
2093.548176320641 2235.750456861045
2094.187069625721 2447.5492173108046
2094.8258090402887 2218.412624979729
2095.464394600951 2553.731055353758
2096.102826344313 2506.0916796296387
2096.741104306955 2578.182880390784
2097.379228525453 2288.2278852702584
2098.017199036358 2149.4949842898322
2098.6550158762147 2606.8131396506756
2099.2926790815527 2326.485769854931
2099.9301886888825 2484.909985374473
2100.5675447347076 2440.259980450915
2101.2047472555114 2716.2799490426537
2101.841796287761 2326.948741720229
2102.47869186792 2344.856160686367
2103.1154340324265 2404.3905219938943
2103.752022817709 2284.564407450857
2104.388458260184 2366.8088468872434
2105.024740396251 2389.689811441479
2105.660869262292 2234.9324548486543
2106.296844894685 2526.4641347204793
2106.93266732978 2240.1007650657166
2107.5683366039284 1962.6917902418288
2108.2038527534532 2359.362146403033
2108.8392158146726 2506.2785354895077
2109.4744258238843 2483.0109920980676
2110.1094828173755 2400.774574100408
2110.744386831422 2771.2596734146705
2111.3791379022787 2245.429859292125
2112.01373606619 2497.1893291155748
2112.648181359389 2296.1238270750005
2113.28247381809 2400.8311440936955
2113.916613478492 2397.814865237295
2114.550600376786 2411.6634329980066
2115.1844345491445 2656.312792806236
2115.818116031729 2179.8978994138915
2116.451644860679 2321.0221276055936
2117.085021072133 2194.1045072278052
2117.718244702204 2108.3180241324762
2118.3513157869984 2172.494466886173
2118.984234362604 2082.6593344661933
2119.617000465092 2172.430874010618
2120.249614130529 2587.97264310202
2120.8820753949585 2322.8976019703296
2121.5143842944162 2158.030755826299
2122.14654086492 2236.054659890099
2122.7785451424734 2359.90316710121
2123.4103971630702 2453.5333726721033
2124.042096962681 2547.65119879003
2124.6736445772767 2300.6672593367866
2125.305040042802 2185.2598544821126
2125.936283395191 2245.1108481119873
2126.567374670365 2402.8141931521523
2127.198313904233 2244.6005309429815
2127.8291011326855 2501.477592248148
2128.4597363916037 2562.3287093789295
2129.0902197168507 2207.7496753362843
2129.720551144279 2030.3048655335351
2130.3507307097225 2499.910648104985
2130.980758449008 2415.5462221568705
2131.6106343979427 2312.2483237336546
2132.2403585923203 2545.494247145012
2132.8699310679276 2505.5871125124245
2133.499351860526 2431.8854574089355
2134.1286210058715 2378.103541416734
2134.7577385397053 2318.0845741984886
2135.3867044977487 2423.1757886279925
2136.0155189157176 2599.862622229142
2136.644181829308 2344.960104129126
2137.2726932742025 2112.3895243159914
2137.901053286074 2446.4208648936838
2138.5292619005777 2285.322182352075
2139.1573191533535 2233.309150185788
2139.7852250800315 2457.8795816167144
2140.4129797162295 2368.2705205494867
2141.0405830975433 1918.2509297667652
2141.6680352595613 2012.7540468564941
2142.2953362378576 2107.461134113056
2142.9224860679915 2181.525835950262
2143.549484785508 2109.0483955650757
2144.1763324259373 2423.762181962634
2144.803029024799 2319.6221522267488
2145.429574617594 2160.6434918389155
2146.0559692398165 2404.855006752835
2146.682212926942 1904.9352168838554
2147.308305714432 2067.6276545580836
2147.9342476377333 2318.159284221474
2148.5600387322847 2369.142489990301
2149.185679033506 2469.893564881078
2149.8111685768017 2239.644227544103
2150.4365073975678 2194.160646177524
2151.061695531187 2360.693663695165
2151.686733013021 2357.856546422813
2152.311619878423 2413.9922835560765
2152.9363561627342 2425.472913475975
2153.560941901278 2037.0902332672006
2154.1853771293663 2160.807690344326
2154.809661882293 2370.4784410305847
2155.433796195348 2383.6189764262695
2156.0577801037944 2460.7325424061182
2156.681613642895 2416.8162477911337
2157.3052968478896 2052.453537909856
2157.928829754006 2160.0007024953347
2158.552212396462 2315.3271342347884
2159.1754448104566 2185.0636259052944
2159.7985270311783 1909.2750799894934
2160.4214590938027 1877.0354993446285
2161.0442410334927 1901.7116135295723
2161.6668728853874 2199.0869953023634
2162.289354684628 2076.970852724586
2162.911686466332 2187.5510174540505
2163.533868265602 2417.4319949079263
2164.1559001175337 2454.5074212748846
2164.7777820572046 2510.9978376839344
2165.399514119681 2076.7779370283506
2166.021096340013 1805.5558646537938
2166.6425287532384 2030.6317055144973
2167.263811394385 2256.1959188738992
2167.8849442984574 2184.0639545597382
2168.505927500455 2092.4556692211386
2169.126761035366 2337.672534158314
2169.7474449381552 2305.3075026286033
2170.367979243778 2102.8848725023076
2170.9883639871823 2318.0795171784216
2171.608599203293 2123.1109770521352
2172.2286849270276 2605.684506127104
2172.8486211932886 2615.7329397709786
2173.4684080369625 2127.6425690542624
2174.0880454929265 2031.3783343624805
2174.7075335960417 1998.2419540932947
2175.3268723811543 2445.1216129967115
2175.9460618831 2262.81572723458
2176.565102136701 2109.2664840406756
2177.1839931767627 2185.0582319877644
2177.802735038078 2261.081667245464
2178.421327755432 2096.350143574032
2179.0397713635866 2147.0847161273678
2179.658065897298 1997.6709401435728
2180.276211391305 2167.1625934871104
2180.8942078803357 2132.25412907768
2181.5120553991 2018.1488557681023
2182.129753982299 2032.4644118930833
2182.7473036646206 2209.251680461436
2183.3647044807367 2121.73995056929
2183.9819564653044 1900.8974184174708
2184.599059652968 2447.4780246857567
2185.216014078367 2419.47812090886
2185.832819776113 2345.438406415904
2186.4494767808137 2271.088742915195
2187.065985127063 2315.483986207111
2187.682344849436 2157.879403920365
2188.298555982501 2336.0833487692407
2188.9146185608097 2161.5882641915878
2189.530532618901 2229.880076767507
2190.1462981912937 2180.027672006891
2190.761915312507 2149.2092736006553
2191.377384017036 2279.106945502372
2191.9927043393654 2159.927337281832
2192.6078763139667 1849.6099863621446
2193.2228999753006 1964.1256338607702
2193.837775357808 2078.9070954125377
2194.452502495922 1922.292920057409
2195.0670814240602 2029.7255663090884
2195.6815121766285 1990.639543759254
2196.2957947880186 2052.3505531422106
2196.9099292926057 2114.1932823476313
2197.523915724758 2365.3120307323306
2198.137754118825 2213.617095446939
2198.7514445091456 2417.2977114554774
2199.3649869300443 1979.8663101646064
2199.9783814158327 2261.2988716916616
2200.5916280008096 2485.386169624548
2201.2047267192593 2309.820327448514
2201.8176776054515 2240.6228921128654
2202.430480693649 1956.057874639432
2203.0431360180955 2146.2718646430944
2203.6556436130195 2310.583396997634
2204.268003512645 2443.3480856987926
2204.8802157511727 2081.0238903550403
2205.492280362796 2247.5923258669313
2206.1041973816937 2154.295969364466
2206.715966842032 2207.9352105295925
2207.3275887779655 2027.1365889466429
2207.93906322363 2188.689124895996
2208.550390213153 2039.254930864905
2209.1615697806465 2118.8148119531315
2209.7726019602105 1810.3852946732845
2210.3834867859277 1745.3137892635416
2210.9942242918787 2100.6972133592535
2211.6048145121167 2055.0469780469894
2212.2152574806914 2559.0118085825407
2212.825553231638 2167.0601005272433
2213.435701798975 2066.9894694286295
2214.045703216707 1967.0345571266412
2214.655557518832 1714.9472514154554
2215.2652647393297 2066.6504317442314
2215.874824912169 2125.564258855698
2216.4842380713 2184.858011723244
2217.09350425067 2124.965486540885
2217.7026234842033 1818.5746005821352
2218.311595805819 1894.3098905617783
2218.9204212494133 1970.133455209382
2219.52909984888 2246.846782004326
2220.137631638092 1837.1011236146733
2220.7460166509154 2225.7138328217147
2221.354254921198 2087.3269916396866
2221.9623464827764 2260.0609924024257
2222.5702913694713 2072.535478705961
2223.178089615096 2146.35648553064
2223.7857412534486 2054.8084549489545
2224.39324631831 1911.2176988266845
2225.000604843457 1930.243394127992
2225.607816862641 2416.7717817790226
2226.214882409611 2332.0564059434664
2226.8218015180973 2293.30213899413
2227.4285742218217 2096.6760989971885
2228.0352005544864 2131.2086950493367
2228.6416805497847 2042.6106664322156
2229.248014241399 2191.446254572442
2229.8542016629945 1840.3948986461314
2230.460242848223 2116.9393921497126
2231.0661378307304 2544.7684769347443
2231.671886644139 2245.7622399675297
2232.277489322065 1978.3945281131942
2232.8829458981127 1691.8156418221356
2233.48825640587 2164.23097717397
2234.0934208789095 2389.8144262820642
2234.6984393507955 2371.0232060469566
2235.3033118550793 2295.4193471762655
2235.9080384252975 2087.043623199274
2236.5126190949723 1879.8925268784283
2237.1170538976166 1855.096633572965
2237.721342866729 1657.7543419143578
2238.32548603579 2090.810287039475
2238.9294834382763 1944.5782605626096
2239.533335107646 1997.4237225588663
2240.1370410773434 2158.880601293263
2240.740601380803 2162.0360184680026
2241.3440160514474 2169.625508240112
2241.9472851226783 2021.4058002470179
2242.550408627896 2222.4828226852924
2243.1533866004793 2423.9338525137764
2243.756219073799 2151.8419626930777
2244.3589060812064 1780.4508866514916
2244.961447656049 2036.041452562685
2245.5638438316564 2110.3374519575336
2246.166094641343 2158.19783715167
2246.7682001184166 2004.7993358574106
2247.3701602961664 1879.296017445235
2247.971975207871 2094.831854085816
2248.5736448867974 2257.2782565152106
2249.175169366197 2156.79798246129
2249.7765486793123 1910.1909028966936
2250.3777828593684 2111.281502951999
2250.9788719395783 2297.639130337748
2251.579815953146 2111.307462768822
2252.1806149332606 1924.6335422211846
2252.781268913097 2013.910221954234
2253.381777925817 1798.4853131953819
2253.9821420045737 2073.1567153386463
2254.5823611825035 2182.1575062319457
2255.1824354927303 2132.6730847740714
2255.782364968365 1910.180577938434
2256.38214964251 1687.4396485020213
2256.9817895482483 1946.7025677363
2257.5812847186553 2171.897532701023
2258.180635186791 2143.6115500943383
2258.779840985704 2115.35047062178
2259.37890214843 2082.5807543718224
2259.97781870799 2400.7692894756924
2260.5765906973957 1988.3032346279124
2261.175218149645 2023.2815219369902
2261.773701097718 2277.2949104118834
2262.3720395745895 1895.2704981188133
2262.970233613216 1712.2460324262956
2263.568283246548 1955.8384601630569
2264.1661885075137 2045.169041831951
2264.763949429038 2131.532341078034
2265.3615660440246 2101.145703666983
2265.959038385374 1830.8181185949293
2266.5563664859637 2195.305896873379
2267.153550378669 1971.9413736903007
2267.7505900963424 2109.0498874219165
2268.3474856718312 1893.1325497673581
2268.9442371379664 2015.4460478508906
2269.5408445275643 1777.8780690980354
2270.1373078734377 1861.5158224820357
2270.7336272083758 1945.3365423393013
2271.32980256516 1780.4870153041986
2271.925833976562 2010.723602004875
2272.5217214753357 2227.574634374763
2273.117465094223 1893.4173984580707
2273.7130648659586 1823.016557756316
2274.308520823257 2037.171346664921
2274.903832998827 2143.907485538475
2275.4990014253563 1691.1123028999286
2276.094026135528 1709.6957267866462
2276.6889071620117 1728.2550039098533
2277.2836445374614 2113.20785721033
2277.878238294519 2141.241358828175
2278.472688465812 2005.8418660291495
2279.066995083962 1870.170341898175
2279.6611581815705 1973.8957150353058
2280.255177791232 2154.6381174668286
2280.8490539455233 2335.7507334015286
2281.442786677013 2301.989948672188
2282.0363760182554 2164.0709738715027
2282.6298220017943 1949.7147968099362
2283.223124660155 2146.6792065718146
2283.816284025859 2100.6754020129897
2284.4093001314086 2281.2557673207784
2285.002173009292 2172.070437058511
2285.5949026919952 2062.625202931982
2286.1874892119777 1763.9022820217294
2286.7799326016993 2024.9181286616745
2287.3722328936 1723.7171877105932
2287.964390120109 1810.3641027810966
2288.556404313642 2108.045042273766
2289.1482755066027 1900.2290440170207
2289.7400037313873 1691.9867716220829
2290.3315890203703 1953.765225357834
2290.9230314059205 1527.2091545695166
2291.5143309203904 1773.532263503684
2292.1054875961236 1884.2707908938487
2292.6965014654506 2085.603864495315
2293.287372560684 2057.5583211947423
2293.878100914131 2386.6721450295104
2294.468686558086 2061.9523854068448
2295.059129524827 1876.5335495595086
2295.649429846617 2150.88276729697
2296.239587555716 2143.6154323816068
2296.8296026843636 1887.2933381807773
2297.419475264791 1991.3296687570146
2298.0092053292137 2095.4361942568244
2298.598792909839 2084.390309331171
2299.1882380388597 2002.7356058379112
2299.777540748455 2388.7136148086934
2300.3667010707904 2154.548675661799
2300.9557190380256 2025.860224957009
2301.544594682302 1936.2711896839767
2302.1333280357503 1846.5556700396235
2302.721919130485 2112.7114782697086
2303.3103679986198 2294.083073358611
2303.898674672242 2205.5918829248176
2304.486839183437 2260.550226801145
2305.0748615642697 2315.874749402814
2305.6627418468015 1905.2150929768286
2306.2504800630704 1952.5625474832013
2306.8380762451143 1996.840963079634
2307.425530424949 1949.7563215506786
2308.012842634582 1902.5484214746189
2308.6000129060103 2052.381413113406
2309.187041271214 2449.5018021379406
2309.773927762164 2193.729731563851
2310.3606724108213 1958.583656607681
2310.9472752491274 1791.3978155698182
2311.5337363090184 2048.2669206176847
2312.120055622414 1988.707285068215
2312.706233221221 1608.2531246894662
2313.2922691373424 1606.9680031266735
2313.8781634026564 1803.3429761810544
2314.463916049037 2000.1700825321022
2315.049527108342 1987.769680166887
2315.6349966124235 2205.799402826155
2316.2203245931123 2191.880574332664
2316.8055110822315 1811.5255113797666
2317.3905561115935 1873.0294195011788
2317.9754597129977 1799.0358908904077
2318.560221918229 1979.878455128091
2319.1448427590603 1922.4716335814433
2319.729322267256 1679.126888552391
2320.313660474563 2164.755966246811
2320.8978574127195 2383.8609617523853
2321.481913113452 2062.189075367696
2322.0658276084705 1989.9779640862666
2322.6496009294806 1917.6118806783622
2323.233233108165 2248.2760159575114
2323.8167241762058 1978.3341435372724
2324.4000741652617 2044.7943844045071
2324.983283106987 2279.2845028472298
2325.5663510330232 2234.93730396406
2326.1492779749933 1882.0877700629699
2326.7320639645204 1953.0055237386398
2327.3147090332004 1823.0626670571128
2327.897213212629 2172.1308979041137
2328.4795765343843 1972.5330491901939
2329.0617990300307 1819.9382375521677
2329.643880731124 1898.0349856194334
2330.22582166921 1976.329626675959
2330.807621875816 2148.8777636767195
2331.3892813824623 1718.4211657593683
2331.9708002206517 1796.3407448196074
2332.5521784218818 2234.575698762902
2333.133416017634 2007.3644894109846
2333.7145130393765 1839.2977135801307
2334.295469518571 2156.4670903792367
2334.876285486658 1942.214182125772
2335.456960975076 1643.853354644456
2336.037496015242 1932.8805257315148
2336.6178906385667 1796.4788413593
2337.198144876451 1740.3237835529721
2337.778258760278 1684.0471762345423
2338.3582323214214 1545.1991946596233
2338.938065591243 2190.008410327227
2339.517758601087 2161.477387391841
2340.0973113822965 2046.6407679959248
2340.676723966193 1786.5931725816008
2341.255996384094 2000.8054990609294
2341.835128667295 2097.90603625814
2342.4141208470883 1946.0495669319
2342.992972954751 1961.8921017958328
2343.5716850215467 2069.6345293854743
2344.1502570787306 2015.267390726997
2344.7286891575386 1960.6956949163882
2345.3069812892045 2075.4061443376477
2345.885133504944 2169.2748424405154
2346.4631458359618 1958.417730418938
2347.04101831345 1771.5409632582694
2347.6187509685915 2164.920168709724
2348.196343832553 2103.4275562704765
2348.7737969364935 1828.9073464717483
2349.351110311558 1767.1770222249263
2349.9282839888765 1915.156178680103
2350.5053179995757 1801.0696170645297
2351.0822123747585 1893.449223306466
2351.658967145526 1823.1615420176392
2352.2355823429643 1752.8622550593905
2352.812057998144 2100.2041951242854
2353.3883941421263 1903.7594374413864
2353.9645908059647 2160.6832023357174
2354.540648020693 1876.0534069751643
2355.116565817336 1686.0159880341569
2355.6923442269126 1866.0586770719233
2356.2679832804224 1758.6091200954259
2356.8434830088518 1543.0305271641805
2357.41884344318 1604.7989304322755
2357.994064614377 1666.6201734896083
