#exp_cfg={"servo_angle": 0.0, "laser_lim": 100.0, "servo_angle_to": 18.0, "laser_wup": 0.0, "bt_dev": "EnSpectr-25AE3", "laser_wdn_max": 0.0, "frames": 10.0, "servo_used": 0, "servo_calib_use": 0, "laser_wdn_min": 0.0, "servo_pix_from": 90.0, "cooler_tout": 300.0, "servo_angle_from": 0.0, "servo_calib": "[-1.9174921013161362e-09, 3.9322238269163779e-05, -0.27385609119055809, 653.59552119713567]", "laser_autoctl": 0, "servo_pix_to": 3682.0, "laser_pw": 100.0, "cooler_on": 0, "laser_volt": 4.0, "cooler_autoctl": 0, "cooler_curr": 70.0, "cooler_startup": 10.0, "laser_fixed_pw": 0, "gain": 1.3, "offset": 2.53059635486, "servo_calib_degree": 3.0, "laser_curr": 55.0, "shutter": 8200.0, "servo_calib_step": 1.0, "laser_fixed_curr": 0, "exp": 2000.0, "ccd_volt": 4.7, "bt_addr": "00:06:66:62:5A:E3", "servo_delay": 500.0, "laser_autooff": 1}
#proc_cfg={"flat_auto_wnd": 200.0, "flat_auto_fr": 200.0, "flat_auto_shift": 5.0, "yconv": 1, "flatten": 1, "flatten_strength": 100.0, "xfrom": 300.0, "auto_max_frame": 2000.0, "auto_signal": 48000.0, "flat_auto_tol": 0.1, "autoclip": 1, "xrel_range": 0.0, "flat_auto_to": 4000.0, "intensity_adj": 1.0, "xrel": 7852.0, "rmhot": 1, "flat_auto_slit": 4.999999999999997, "auto_ini_exp": 300.0, "auto_off": 0, "xto": 2860.0, "flat_auto_ref": "", "flat_auto_rank": 1, "autobackg": 0, "xrel_adj": 0.0, "auto_black_lvl": 1, "base_wnd": 100.0, "sub_baseline": 0, "xconv": 2, "auto_max_exp": 1000.0, "auto_total_exp": 10000.0, "auto_exp": 0, "rmripple": 0, "black_lvl": 8268.2625, "shutter_clip_adj": 0.0, "auto_bckg": 0, "flat_auto_thr": 0.9, "subbackg": 1}
316.8218498245369 20535.77074511257
317.89969571804795 20514.69088370679
318.977263876126 20442.83693852145
320.05455438786703 20220.223344939284
321.1315673423287 20149.5401234716
322.2083028285215 20308.233584337242
323.2847609354267 20115.7653013406
324.3609417519747 20014.676443875363
325.43684536705587 19936.350636287585
326.5124718695279 19795.04922638923
327.58782134820103 19846.499479428465
328.66289389184385 19782.182510092058
329.7376895891921 19566.560125773576
330.8122085289342 19519.035634304408
331.88645079971866 19441.849111062147
332.9604164901575 19316.05412238635
334.03410568881554 19285.13904251289
335.1075184842266 19486.136850786053
336.18065496487543 19243.251304346795
337.2535152192122 19234.26304036649
338.32609933564163 19194.862322197405
339.39840740253203 19042.544163412123
340.4704395082099 19007.0839280326
341.5421957409617 19064.89802638584
342.6136761890357 19114.14825290622
343.6848809406365 19017.82049264106
344.75581008392874 18952.034294796005
345.82646370703696 18910.786483930446
346.8968418980512 18857.914143220038
347.96694474501055 18826.18667009884
349.0367723359268 18748.061957292834
350.106324758759 18726.089686083735
351.1756021014353 18648.41242813909
352.2446044518383 18629.11696686136
353.31333189781435 18724.686386203797
354.38178452716966 18632.28621242524
355.449962427665 18705.9095337556
356.51786568702846 18593.259734066123
357.58549439294256 18737.63334798485
358.6528486330535 18762.07087491501
359.71992849496564 18649.495993756387
360.7867340662433 18622.598430732236
361.8532654344144 18570.076263387138
362.9195226869597 18810.926890561597
363.9855059113288 18530.795984898683
365.05121519492604 18598.862553479503
366.11665062511565 18741.047100287637
367.1818122892273 18670.095951181145
368.2467002745434 18604.67703065163
369.31131466831175 18689.97333236421
370.375655557742 18678.266812317488
371.4397230299983 18593.45150465633
372.5035171722102 18700.385788373595
373.5670380714637 18645.741740055564
374.6302858148101 18838.073897973496
375.6932604892554 18682.76648178923
376.7559621817709 18735.300418698083
377.81839097928605 18556.204616547486
378.8805469686886 18618.590123477443
379.94243023683157 18527.520635981335
381.0040408705263 18577.702040257976
382.0653789565458 18416.134279581907
383.1264445816196 18626.070685724488
384.1872378324406 18458.97157534315
385.2477587956637 18531.983264048133
386.3080075579037 18421.956452089882
387.3679842057336 18367.175448266913
388.4276888256918 18387.25715671819
389.48712150426945 18441.000139427437
390.54628232792857 18344.17720571222
391.6051713830857 18299.587351900132
392.66378875611736 18369.842522529943
393.7221345333637 18266.71390107365
394.7802088011249 18188.517974472816
395.838011645661 18228.03982946668
396.89554315319765 18112.38204131283
397.9528034099112 18066.24037477492
399.00979250194723 17949.48791236064
400.06651051541485 17967.084781386933
401.1229575363741 17961.230232068705
402.17913365085224 17869.597833048065
403.23503894483656 17934.196346652232
404.2906735042761 17765.339578110485
405.3460374150818 17730.022645342608
406.401130763119 17777.10802194389
407.455953634224 17741.338293435703
408.5105061141876 17701.240773733614
409.56478828876243 17532.95873676206
410.6188002436629 17489.796688958486
411.6725420645689 17486.07977179685
412.72601383711117 17489.287333133376
413.77921564689314 17624.628443509042
414.8321475794728 17399.220635832575
415.88480972036814 17376.7829670457
416.93720215506437 17471.698609247753
417.9893249690049 17280.338273827005
419.04117824759123 17322.867361391756
420.09276207619223 17195.67741825933
421.144076540133 17198.844323858884
422.1951217247042 17193.947517918983
423.24589771515275 17165.968622321863
424.2964045966928 17083.160907346515
425.34664245449494 17118.669718657293
426.3966113736933 17069.88291315332
427.4463114393875 17052.148121182872
428.49574273662984 17075.2792830943
429.5449053504417 16932.51620678271
430.5937993658026 17088.474571196406
431.6424248676558 16868.293311582976
432.6907819409007 16897.264947858566
433.73887067040596 16905.59068019696
434.7866911409965 16920.968924887657
435.8342434374608 16897.692589969352
436.88152764455117 16846.045664802932
437.9285438469724 16859.503671094466
438.9752921294057 16753.678655227894
440.02177257648145 16787.104996416772
441.06798527279716 16667.640335618886
442.1139303029122 16715.944147968425
443.1596077513459 16696.282396572595
444.2050177025794 16729.231091427464
445.25016024105753 16712.483194242726
446.2950354511886 16678.669637152103
447.33964341733736 16750.163649698083
448.383984223834 16652.854694971782
449.4280579549686 16575.96319715607
450.471864694995 16579.401436531287
451.5154045281306 16602.30500176018
452.5586775385509 16572.981212907238
453.60168381039693 16576.186568830646
454.64442342776783 16658.81424308678
455.6868964747264 16582.346398722773
456.7291030353008 16547.97975067634
457.77104319347563 16579.13949376793
458.8127170332027 16535.7445722415
459.854124638392 16576.505380270704
460.895266092919 16630.458748213652
461.93614148061897 16571.313164832212
462.97675088529104 16698.902087380382
464.01709439069236 16654.740133912994
465.0571720805492 16580.044543488028
466.0969840385442 16639.03556594992
467.1365303483253 16710.747143452718
468.17581109350067 16541.144910885436
469.2148263576437 16494.912357120986
470.2535762242878 16627.589494867476
471.29206077693016 16736.849516319715
472.33028009902773 16668.237620534448
473.3682342740012 16854.60941650159
474.40592338523857 16835.274912623972
475.4433475160804 16802.50824267476
476.4805067498364 16871.614441323156
477.51740116978 16953.14054666502
478.5540308591426 17159.33523063983
479.59039590112116 17299.692737444282
480.6264963788726 17370.32958994092
481.6623323755193 17604.262829241907
482.6979039741436 17705.848638047613
483.7332112577915 17858.42716417279
484.76825430947247 18132.72105822662
485.80303321215797 18346.948190255534
486.837548048783 18506.294087086644
487.8717989022425 18744.217241579776
488.90578585539697 18822.960869526556
489.9395089910686 18892.288400315487
490.97296839203955 18891.610461865846
492.00616414106116 18764.357765221866
493.0390963208429 18750.822372523464
494.0717650140559 18747.325004739287
495.10417030333883 18590.221903198413
496.1363122712901 18534.766881947664
497.16819100046814 18269.43340571727
498.1998065734024 18032.926274756388
499.2311590725767 18040.346498780862
500.26224858044407 17772.273522494237
501.2930751794156 17543.105897261143
502.3236389518679 17615.168529043523
503.35393998014115 17174.187768484844
504.38397834653733 17181.989213514626
505.4137541333221 17079.01551128535
506.4432674227228 16798.981609099043
507.4725182969323 16811.90534876881
508.5015068381035 16713.617381748838
509.53023312835467 16770.2616191295
510.55869724976765 16624.586042337007
511.58689928438434 16485.28306717785
512.6148393142121 16419.86630899778
513.6425174212218 16537.715436019647
514.6699336873462 16531.696359980568
515.6970881944835 16482.30734994318
516.7239810244901 16359.023038654912
517.7506122591931 16412.018503865416
518.7769819803761 16514.824701047368
519.8030902697901 16459.48417180137
520.8289372091476 16578.906977861003
521.8545228801249 16700.38055161109
522.8798473643619 16563.584611274688
523.9049107434621 16525.67127445437
524.9297130989908 16604.655408271086
525.9542545124805 16421.344931476062
526.9785350654201 16498.408910215636
528.0025548392696 16468.56796161318
529.0263139154504 16388.405212122896
530.0498123753423 16360.49755698573
531.073050300296 16275.736928432118
532.0960277716204 16240.86960950616
533.1187448705896 16281.649890201234
534.1412016784416 16189.101867071347
535.1633982763833 16244.378256576852
536.1853347455726 16081.305192536098
537.2070111671401 16058.90160211121
538.2284276221817 15989.408275898506
539.2495841917516 15873.767624536238
540.2704809568677 15744.158762865083
541.2911179985167 15824.1529366228
542.3114953976419 15660.274929851823
543.3316132351592 15780.76333714308
544.3514715919409 15603.456372095538
545.3710705488247 15608.82380579978
546.3904101866156 15514.137125652967
547.4094905860784 15633.993169158935
548.4283118279418 15489.875888586812
549.4468739929034 15574.142073459303
550.4651771616191 15336.663049830768
551.4832214147063 15272.875827525064
552.501006832761 15406.786473830007
553.5185334963226 15394.810758295946
554.5358014859103 15362.130582607724
555.5528108820035 15349.462325354305
556.5695617650363 15288.877917684478
557.5860542154242 15400.444159310875
558.6022883135283 15344.365475556497
559.6182641396881 15317.194194381334
560.6339817741991 15244.439549913102
561.6494412973225 15420.871133037354
562.6646427892883 15421.84794115734
563.6795863302796 15363.287737708844
564.694272000459 15312.653861269899
565.7086998799423 15413.743651065317
566.7228700488104 15407.20625282061
567.7367825871115 15398.318927320279
568.7504375748576 15412.574777711
569.7638350920224 15430.709376370354
570.7769752185486 15456.836563920146
571.7898580343353 15486.008720344786
572.802483619258 15412.030042648967
573.8148520531431 15596.86764208723
574.8269634157932 15627.556894536843
575.8388177869692 15611.609728448017
576.8504152463938 15660.794177431482
577.8617558737587 15926.729178706935
578.8728397487175 15868.237306828945
579.883666950891 16021.070360759206
580.8942375598654 16146.217046181544
581.9045516551851 16176.53770675712
582.9146093163617 16455.420562409454
583.924410622878 16360.001640117674
584.9339556541727 16381.139813579915
585.9432444896538 16633.8890891447
586.9522772086875 16373.698146181632
587.9610538906127 16565.368304821524
588.9695746147318 16413.914035982976
589.9778394603054 16588.5235557708
590.985848506567 16506.490195150356
591.9936018327098 16408.59076439963
593.0010995178891 16161.976049836123
594.0083416412344 16301.340920565975
595.0153282818283 16060.49502282851
596.0220595187293 16000.634362075052
597.0285354309508 15846.887143360687
598.0347560974806 15743.752306901875
599.0407215972609 15641.928794464247
600.0464320092051 15665.31369601771
601.0518874121954 15559.640246065022
602.0570878850685 15515.516029829718
603.062033506636 15496.728905859218
604.0667243556636 15457.51670075692
605.0711605108936 15379.337665451301
606.0753420510264 15625.828498997016
607.0792690547278 15449.154215195045
608.082941600629 15457.323042649232
609.0863597673306 15395.356953206665
610.0895236333909 15582.233809836902
611.0924332773357 15650.788427308016
612.0950887776617 15776.465242365643
613.0974902128219 15707.223002188064
614.0996376612384 16001.5466726775
615.1015312013005 15970.562474775597
616.1031709113595 16100.965232888102
617.1045568697336 16018.00305437854
618.1056891547069 16293.300819255819
619.1065678445229 16506.992270314287
620.1071930173985 16876.89727574218
621.1075647515099 16898.503519076672
622.1076831250048 17066.157324899654
623.1075482159849 17218.2589569305
624.1071601025305 17416.134405092987
625.1065188626781 17604.990557124445
626.105624574433 18089.48574134768
627.1044773157682 18088.588567146526
628.1030771646128 18158.204019910725
629.1014241988742 18426.426748385587
630.0995184964158 18685.469691335915
631.0973601350688 18671.86311165653
632.0949491926294 18992.356455898174
633.0922857468631 18745.340276973453
634.089369875499 18852.40304246251
635.0862016562278 18816.963839326323
636.0827811667077 18631.071642710252
637.0791084845641 18573.691384850004
638.0751836873878 18415.106791290695
639.0710068527369 18342.19817076291
640.0665780581294 18087.106623821845
641.0618973810506 17909.792640528885
642.0569648989604 17714.501427816307
643.0517806892676 17327.53063015759
644.0463448293649 17195.101013107203
645.040657396592 16894.94156133213
646.0347184682723 16775.8714793744
647.0285281216875 16399.514154125958
648.0220864340772 16371.953806992937
649.0153934826558 16147.23981949718
650.0084493446047 15986.503976356285
651.0012540970674 15826.865441679707
651.9938078171526 15684.988955193101
652.9861105819346 15594.273115032624
653.9781624684565 15618.397238326323
654.9699635537254 15264.531599600377
655.9615139147136 15393.265819007525
656.9528136283589 15147.618698735096
657.9438627715699 15216.112741520657
658.9346614212154 15136.572861871362
659.925209654135 14919.007684321376
660.9155075471263 14990.22489779675
661.9055551769616 14845.331249313598
662.895352620375 14986.340447282793
663.8848999540678 15015.751113148324
664.8741972547068 14775.411594932719
665.863244598926 14739.41289272135
666.8520420633213 14840.2340816846
667.8405897244611 14653.117346771276
668.8288876588758 14462.507359451707
669.8169359430613 14613.772017479521
670.8047346534822 14621.832357398554
671.7922838665672 14470.178272275933
672.7795836587156 14558.610375400869
673.766634106285 14722.862852911552
674.7534352856092 14449.647689136313
675.7399872729766 14529.374383432694
676.7262901446538 14538.254182165512
677.712343976862 14487.468198445702
678.6981488457986 14615.715213320602
679.6837048276229 14473.173211299476
680.6690119984596 14559.746426356161
681.6540704344043 14440.71349694416
682.6388802115107 14378.825491382002
683.6234414058108 14509.818207104257
684.6077540932874 14311.5310785453
685.591818349907 14369.759981599025
686.575634251587 14242.28915015106
687.5592018742263 14238.574437888858
688.5425212936734 14189.629939200018
689.5255925857564 14220.825940650975
690.5084158262707 14076.116264187056
691.4909910909646 14183.485254943193
692.4733184555644 14020.504812997195
693.4553979957618 14136.898379800714
694.4372297872123 14050.048217751999
695.4188139055404 13963.644154996287
696.4001504263324 14001.351158652213
697.3812394251509 14106.020396853439
698.3620809775111 13948.130256195389
699.3426751589104 14058.773548858848
700.3230220448004 13890.227149890843
701.3031217106054 13910.699762783319
702.2829742317172 14033.716557497377
703.2625796834873 13816.566433447215
704.2419381412474 13776.97280503663
705.22104968028 13861.020847144377
706.1999143758458 13903.130839660585
707.178532303169 13814.924497881566
708.1569035374378 13760.107630948227
709.1350281538107 13838.999403440248
710.1129062274158 13760.654822609893
711.0905378333373 13929.906643269973
712.0679230466376 13890.730980152928
713.0450619423427 13940.879925800376
714.0219545954424 14022.165319996386
714.9986010808989 13891.430633603039
715.9750014736292 13973.733597988912
716.9511558485392 14052.255909147472
717.9270642804786 14105.971547554433
718.9027268442787 14098.675219145802
719.8781436147328 14174.716499091428
720.8533146666014 14001.67154876698
721.828240074612 14006.940923564398
722.8029199134635 14017.824078052072
723.7773542578125 14022.445588943441
724.751543182294 13856.312994324104
725.7254867615029 13936.408052601668
726.6991850700015 13760.410850266122
727.6726381823228 13777.660606140134
728.6458461729599 13787.229567215483
729.6188091163858 13776.966651527178
730.5915270870246 13730.643407075715
731.5640001592856 13555.604678931792
732.536228407529 13742.586653063307
733.5082119060917 13647.550364657243
734.4799507292755 13601.137912556043
735.4514449513481 13506.961477848317
736.4226946465496 13778.997359011668
737.3936998890786 13645.053111614568
738.3644607531078 13486.000620450874
739.3349773127793 13587.978270257305
740.3052496421951 13626.040194628997
741.27527781543 13501.608248045528
742.2450619065221 13432.06031370893
743.2146019894826 13554.368519809708
744.183898138288 13518.544385442234
745.1529504268801 13455.774690969401
746.1217589291682 13333.339495795171
747.0903237190341 13294.23846410207
748.058644870318 13438.685754852399
749.0267224568397 13297.068188242434
749.994556552374 13264.709787814729
750.9621472306771 13291.856280794102
751.9294945654583 13381.283793611476
752.8965986304011 13355.695110153834
753.8634594991636 13268.157707970628
754.8300772453586 13343.689951782915
755.7964519425768 13284.996952953035
756.762583664371 13405.300002675916
757.7284724842611 13403.452693860196
758.6941184757416 13273.742634458566
759.6595217122667 13339.441121254893
760.6246822672638 13289.366704965441
761.5896002141235 13154.598702746696
762.5542756262093 13275.325617747352
763.5187085768503 13298.088636054254
764.4828991393406 13265.859817587154
765.4468473869474 13256.705749201772
766.4105533929032 13195.586263635949
767.3740172304078 13096.186645841157
768.3372389726283 13103.120061638943
769.3002186926988 13104.077726707645
770.2629564637282 12925.057419749599
771.2254523587872 13051.050545979186
772.1877064509154 12809.89840335175
773.1497188131179 12810.094644375295
774.1114895183728 12688.999151423921
775.0730186396268 12770.87977149261
776.0343062497905 12600.135538175893
776.9953524217381 12565.02812785506
777.9561572283274 12609.342106834762
778.9167207423689 12602.493151226068
779.8770430366476 12571.512572271782
780.8371241839159 12634.101781167363
781.7969642568951 12553.044699908374
782.7565633282757 12852.398195922684
783.7159214707099 12590.559582786245
784.6750387568281 12585.182100763766
785.6339152592227 12684.870501397823
786.5925510504512 12499.249952015252
787.5509462030477 12541.441399312964
788.5091007895098 12582.643977409694
789.4670148823006 12560.89358903717
790.4246885538596 12556.464049805696
791.3821218765861 12519.08613495918
792.3393149228505 12473.294581147356
793.2962677649975 12609.311028719663
794.2529804753303 12691.283474786898
795.20945312613 12709.2079513926
796.1656857896378 12700.40615670156
797.1216785380675 12666.878990240517
798.0774314435985 12830.90611586331
799.0329445783846 12946.521135897516
799.9882180145414 12903.698686740703
800.9432518241574 12848.086597101343
801.89804607929 13087.204414092017
802.852600851962 13085.654043335871
803.8069162141637 13069.168735448053
804.760992237856 13259.37297060216
805.714828994971 13219.522736078823
806.6684265574077 13090.833833122842
807.6217849970271 13143.720259417887
808.574904385674 13034.782119879847
809.527784795142 13017.553652508765
810.4804262972102 13119.989303511951
811.4328289636178 12923.003441343273
812.3849928660748 12733.0885262693
813.3369180762638 12825.770606358363
814.2886046658241 12661.774754746546
815.2400527063783 12621.20327866261
816.1912622695108 12458.07303955674
817.1422334267718 12424.57978651196
818.0929662496856 12344.72123786209
819.0434608097457 12252.104719333518
819.9937171784059 12224.01908095624
820.9437354271013 12121.703055322127
821.8935156272255 12149.091385802723
822.8430578501484 12036.421995392304
823.7923621672016 11863.975491747005
824.7414286496896 11942.883922603625
825.6902573688876 11961.344046284996
826.6388483960363 11907.502470303923
827.5872018023492 11763.662264653743
828.5353176590033 11909.209029959946
829.4831960371503 11797.47641490363
830.4308370079016 11789.972427230055
831.3782406423525 11847.293752418
832.3254070115545 11767.058280900561
833.2723361865319 11586.479142349586
834.2190282382799 11664.260966138116
835.1654832377644 11743.76659341164
836.1117012559116 11654.999689312675
837.0576823636256 11810.37999085189
838.003426631778 11659.331263808821
838.9489341312074 11537.137895528582
839.8942049327197 11699.372489198768
840.8392391070975 11762.604299198018
841.7840367250865 11684.224969202503
842.7285978573982 11578.080324720097
843.672922574724 11697.464363530033
844.6170109477152 11549.557261091257
845.560863046996 11628.01009639847
846.5044789431595 11599.018436530703
847.4478587067697 11653.740520332134
848.3910024083561 11731.604204903108
849.333910118421 11650.991066789948
850.2765819074339 11455.137064689705
851.2190178458332 11652.654097649975
852.161218004032 11674.182556751763
853.1031824524016 11601.805069038779
854.0449112612987 11596.677819140841
854.9864045010327 11680.661800663518
855.9276622418947 11432.80076840014
856.8686845541379 11606.39454492179
857.8094715079915 11527.05616233242
858.7500231736467 11654.344412491895
859.690339621271 11538.402619282573
860.6304209209939 11625.300009186962
861.5702671429244 11422.459980162588
862.5098783571284 11546.707993663202
863.4492546336569 11576.099736881717
864.3883960425155 11529.195880417383
865.3273026536863 11418.665122434588
866.2659745371238 11452.807286332161
867.2044117627465 11720.966974196595
868.1426144004472 11594.80796982166
869.0805825200823 11589.500268422988
870.0183161914847 11671.40007557916
870.9558154844526 11754.080937067145
871.8930804687552 11741.696673775261
872.8301112141307 11710.089100207153
873.7669077902865 11929.739733833387
874.7034702669062 11902.612255772274
875.6397987136315 11957.505742312944
876.5758932000863 11878.351798582042
877.5117537958522 12074.222925468908
878.4473805704911 11924.329956208014
879.3827735935283 12056.399675396375
880.3179329344603 12020.596638481817
881.2528586627541 12043.764066672364
882.1875508478479 12106.331685965
883.1220095591489 12038.489554899455
884.0562348660296 11880.514370700344
884.9902268378391 12137.755771907137
885.9239855438955 12014.384543062239
886.8575110534839 11848.695770263357
887.7908034358588 11879.602408599896
888.7238627602474 11898.991793502257
889.6566890958475 11764.735481480568
890.5892825118208 11670.672466338936
891.5216430773125 11673.676026865714
892.4537708614189 11647.243637954385
893.3856659332196 11569.104891278399
894.3173283617652 11411.135467319345
895.2487582160684 11466.132504627423
896.179955565116 11362.04607348143
897.110920477864 11223.85647629738
898.0416530232451 11329.441955828415
898.9721532701478 11197.56315785597
899.9024212874428 11228.966611354044
900.8324571439662 11040.280146352376
901.7622609085302 11089.346584117744
902.6918326499072 10967.955390303365
903.6211724368477 11035.12783134649
904.5502803380696 10983.950712498263
905.4791564222614 11108.093805038228
906.4078007580792 10955.573424103732
907.3362134141571 10927.788795210776
908.2643944590909 10957.923854815828
909.1923439614493 10836.032154074403
910.1200619897754 10861.509289333404
911.0475486125779 10988.867799929794
911.9748038983344 10818.875013135397
912.9018279155007 10868.969490324447
913.8286207324982 10694.868644087182
914.7551824177117 10861.860621652897
915.6815130395116 10857.697089001324
916.6076126662283 10793.157734937291
917.533481366163 10696.323307922801
918.4591192075914 10844.806580165949
919.3845262587565 10815.015656094389
920.3097025878706 10744.128068508504
921.2346482631237 10742.804825189476
922.1593633526682 10776.160088182634
923.0838479246304 10754.3236068677
924.0081020471061 10857.281944301432
924.9321257881656 10615.08329713152
925.8559192158464 10701.585418349747
926.7794823981512 10559.268247838252
927.7028154030686 10649.573559662613
928.6259182985414 10512.974205342274
929.5487911524906 10702.63874220301
930.4714340328119 10661.377787595291
931.3938470073608 10537.520904579495
932.3160301439748 10515.811917076886
933.2379835104548 10627.016586510861
934.1597071745709 10656.649880457384
935.0812012040769 10629.25188351532
936.002465666681 10600.227454284668
936.9235006300696 10629.718455475806
937.8443061619055 10598.713241155705
938.7648823298077 10497.173174655793
939.6852292013809 10606.373007407234
940.6053468441951 10576.934906088452
941.5252353257874 10361.019413324446
942.4448947136698 10469.130143860957
943.364325075323 10471.761038682977
944.2835264782043 10447.290284510496
945.2024989897309 10373.927295643607
946.1212426773054 10510.594016205696
947.0397576082851 10426.59113838395
947.9580438500125 10554.737917541477
948.8761014697939 10477.944507097243
949.7939305349064 10547.801809709123
950.7115311125999 10440.808940568128
951.6289032700952 10401.949792884352
952.5460470745875 10522.997513708737
953.4629625932339 10417.18074177151
954.3796498931715 10524.915447127989
955.2961090415029 10400.826852737495
956.2123401053068 10510.714681520509
957.1283431516276 10444.934428196335
958.0441182474842 10314.768330514056
958.9596654598663 10476.183520029224
959.8749848557309 10374.002642532054
960.7900765020167 10382.718623663857
961.7049404656209 10309.308935141065
962.6195768134185 10383.003412946742
963.5339856122537 10351.513751886876
964.4481669289453 10452.848861715933
965.3621208302793 10323.515970024042
966.2758473830145 10362.986451333083
967.1893466538822 10425.92533857919
968.1026187095813 10315.856995563683
969.0156636167867 10401.26278709866
969.9284814421426 10448.570497338547
970.8410722522622 10342.114680320074
971.753436113735 10373.828332095576
972.6655730931161 10293.30339274506
973.5774832569368 10440.61221439493
974.4891666716958 10337.085802492846
975.4006234038698 10316.017489048303
976.3118535198955 10243.604184191488
977.2228570861935 10359.148549015878
978.1336341691494 10361.069611605992
979.0441848351202 10348.682979477806
979.9545091504333 10326.472011803691
980.864607181391 10481.945515130355
981.7744789942699 10436.73405920597
982.6841246553086 10469.579273670646
983.5935442307236 10431.091637790585
984.5027377867027 10458.081955447666
985.4117053894024 10450.267238125443
986.3204471049557 10488.347701790917
987.2289629994648 10569.632879870782
988.1372531390007 10592.589272310403
989.0453175896091 10454.942066185848
989.9531564173067 10587.664144479748
990.860769688079 10395.475753449828
991.7681574678918 10569.399558741974
992.6753198226706 10657.335419190616
993.582256818323 10632.345382947433
994.4889685207218 10683.498475675322
995.3954549957143 10945.45083311816
996.301716309119 10688.929846523222
997.2077525267232 10785.487848139837
998.1135637142943 10573.45956942231
999.0191499375615 10753.129395695021
999.924511262232 10728.986636506652
1000.8296477539861 10864.11546219355
1001.7345594784656 10698.429205124297
1002.6392465012996 10682.554093622774
1003.5437088880753 10790.062777546013
1004.4479467043584 10715.99659487563
1005.3519600156869 10447.14165384208
1006.2557488875718 10691.224831348783
1007.1593133854858 10522.352403433057
1008.0626535748888 10525.98572710709
1008.9657695212009 10464.222310964149
1009.8686612898182 10616.481398034179
1010.7713289461135 10635.360520402743
1011.6737725554212 10608.828212367824
1012.5759921830577 10500.647618956875
1013.4779878943027 10547.659468739705
1014.379759754418 10468.112023600374
1015.2813078286254 10382.585315628661
1016.18263218213 10285.90594701887
1017.0837328801026 10449.143049793018
1017.9846099876886 10413.27148118578
1018.8852635700023 10317.593542845167
1019.7856936921362 10069.59036921259
1020.6859004191447 10353.250615374984
1021.5858838160675 10163.883428505174
1022.4856439479063 10240.21964190665
1023.3851808796389 10108.926596517993
1024.2844946762143 10264.10903667115
1025.183585402554 10072.294291985554
1026.082453123554 10045.484135413253
1026.9810979040776 10116.797331515321
1027.8795198089647 10069.852579410006
1028.777718903024 10175.706435304322
1029.6756952510368 9993.925927572065
1030.5734489177648 10019.531221720665
1031.4709799679313 10070.532289569235
1032.3682884662358 10203.918206188722
1033.2653744773506 9944.91219289129
1034.1622380659192 10004.220595291737
1035.058879296559 10123.181921580968
1035.9552982338591 10088.869042918275
1036.8514949423825 10050.244688994657
1037.7474694866614 10008.705718532605
1038.6432219312028 9994.66866404367
1039.5387523404825 10056.38816791252
1040.4340607789582 10088.997471373423
1041.3291473110476 9951.097033618924
1042.2240120011465 10158.53671781008
1043.1186549136273 10125.059962634185
1044.0130761128294 10120.858032872758
1044.9072756630649 10126.398280099953
1045.8012536286205 10177.415206927119
1046.6950100737577 10086.226360245408
1047.588545062701 10228.130541590026
1048.481858659663 10131.996766009768
1049.3749509288118 10323.670016654029
1050.2678219343034 10169.687811604555
1051.1604717402515 10185.757811441892
1052.0529004107575 10017.268066676044
1052.9451080098825 10298.38869742573
1053.8370946016694 10109.702929270743
1054.7288602501267 10325.618550519577
1055.6204050192446 10085.373638168618
1056.511728972977 10302.527023789173
1057.402832175254 10172.04661254105
1058.2937146899785 10066.328443482485
1059.1843765810263 10164.786966342925
1060.0748179122456 10238.612875000934
1060.9650387474576 10259.286520389163
1061.855039150456 10280.96325447337
1062.7448191850071 10135.89962542398
1063.6343789148505 10168.476178466179
1064.5237184037014 10260.4267684357
1065.412837715241 10135.263717371232
1066.3017369131267 10031.478519426832
1067.190416060992 10216.775217997554
1068.0788752224398 10012.893786358993
1068.9671144610438 10130.953283562952
1069.8551338403558 10071.729489147587
1070.7429334239023 10265.017578789513
1071.6305132751695 10070.11888753394
1072.517873457633 10167.012744293215
1073.4050140347335 10058.439098579573
1074.2919350698776 10168.916813439635
1075.1786366264623 9954.418812903223
1076.0651187678395 10115.46786840126
1076.95138155735 9938.662827619843
1077.8374250582929 9956.81051971943
1078.7232493339507 9924.62432156467
1079.608854447577 9905.955475821032
1080.4942404623907 9914.887209739898
1081.3794074415982 9973.387641903148
1082.2643554483657 9924.611486678312
1083.149084545841 9920.995202189644
1084.033594797138 9648.291178815252
1084.9178862653516 9747.635770481244
1085.8019590135427 9867.064761459904
1086.6858131047484 9701.402897827908
1087.5694486019802 9841.131440971863
1088.4528655682225 9781.190936212904
1089.3360640664287 9861.111461184388
1090.2190441595321 9755.936959993218
1091.1018059104317 9734.983592412811
1091.98434938201 9811.480130946182
1092.866674637111 9795.589259640192
1093.748781738559 9768.356898550095
1094.6306707491512 9617.606260822819
1095.5123417316554 9656.791158225065
1096.3937947488157 9638.553212977173
1097.2750298633455 9632.421720734224
1098.156047137938 9615.916979316287
1099.0368466352556 9677.272823960253
1099.9174284179317 9611.708738162726
1100.7977925485757 9552.375150271024
1101.6779390897755 9596.403020667069
1102.5578681040806 9663.254740916807
1103.4375796540226 9621.861176361128
1104.3170738021054 9673.111862086958
1105.1963506108077 9513.595564619103
1106.0754101425773 9548.178023467659
1106.9542524598382 9653.5436111883
1107.8328776249855 9604.101004984106
1108.7112857003904 9493.987813802962
1109.5894767483987 9622.034677097441
1110.4674508313292 9762.874744432871
1111.3452080114657 9770.237818867954
1112.2227483510815 9782.287495495959
1113.1000719124077 9856.754534413329
1113.9771787576592 9896.580717278974
1114.854068949022 9828.485228495865
1115.7307425486542 9959.915352242624
1116.6071996186893 10048.460762576999
1117.483440221229 10193.671585758726
1118.3594644183577 10177.179325090518
1119.235272272128 10243.215529127965
1120.1108638445658 10454.430740983205
1120.9862391976712 10602.622728397491
1121.8613983934229 10572.762772600767
1122.7363414937627 10447.090921533247
1123.6110685606182 10703.314362462226
1124.485579655884 10721.296492627167
1125.359874841426 10784.868707328813
1126.2339541790916 10780.246669289274
1127.1078177306936 11052.307480586695
1127.9814655580267 10796.834556010617
1128.854897722851 10946.708624356057
1129.7281142869106 10933.83058699751
1130.6011153119125 11000.613577923836
1131.473900859548 11127.483259628658
1132.3464709914697 10970.038157715302
1133.2188257693178 10827.431178952724
1134.0909652546961 10870.216486567686
1134.96288950919 10723.251535542153
1135.8345985943506 10836.745301617362
1136.7060925717087 10623.5864529768
1137.57737150277 10632.506076594615
1138.4484354490069 10629.71841939962
1139.3192844718778 10566.368325166277
1140.1899186327992 10313.048324433365
1141.060337993178 10490.810541746312
1141.930542614382 10217.956006273233
1142.8005325577597 10296.335143780223
1143.670307884635 9908.91976333279
1144.5398686563003 10028.094418084322
1145.409214934025 10003.295463838675
1146.2783467790541 9691.673186917134
1147.1472642526023 9695.031395240596
1148.0159674158622 9849.39583393512
1148.8844563300026 9686.761369786349
1149.7527310561618 9453.051868134029
1150.6207916554504 9442.150358465628
1151.4886381889592 9478.02508513327
1152.3562707177498 9540.86118249321
1153.2236893028585 9550.187569213736
1154.090894005296 9284.897996598202
1154.9578848860474 9312.724489462813
1155.8246620060709 9318.661333655398
1156.6912254262988 9280.72431924332
1157.5575752076438 9299.72741410194
1158.42371141098 9438.468490443864
1159.2896340971656 9349.858682171896
1160.1553433270346 9350.169216699524
1161.0208391613887 9261.850280658513
1161.8861216610057 9289.16656983138
1162.75119088664 9374.318771568034
1163.6160468990201 9268.762244667174
1164.4806897588442 9125.870513935177
1165.3451195267917 9257.491000860959
1166.2093362635114 9383.582382770737
1167.0733400296285 9300.615922238252
1167.9371308857444 9036.553256816765
1168.8007088924278 9183.817356267155
1169.6640741102328 9252.180119631086
1170.5272265996773 9171.656350076722
1171.390166421259 8883.365645012082
1172.252893635452 9359.35606946689
1173.1154083026995 9362.796584908743
1173.977710483421 9229.676941148775
1174.8398002380145 9172.5249648152
1175.7016776268483 9304.939091829816
1176.563342710264 9163.989742573696
1177.4247955485826 9207.75064132162
1178.2860362020947 9245.124135701877
1179.147064731069 9131.171714211323
1180.0078811957483 9198.370776861699
1180.8684856563486 9288.33642555803
1181.7288781730604 9231.714833352064
1182.589058806052 9306.456933532365
1183.4490276154593 9436.694596665586
1184.3087846614017 9392.946537121923
1185.1683300039676 9354.882237048641
1186.027663703222 9601.639228592945
1186.8867858192025 9457.60597730839
1187.7456964119228 9456.800148500386
1188.6043955413716 9546.324686311058
1189.4628832675116 9628.32068512309
1190.3211596502842 9622.389534122205
1191.179224749596 9758.307764884528
1192.0370786253388 9725.55773774198
1192.8947213373758 9842.697338383994
1193.7521529455407 10045.953709579453
1194.6093735096438 9682.818783511084
1195.466383089477 9841.59754658566
1196.3231817447977 9819.294002523162
1197.1797695353398 9969.49640192967
1198.0361465208189 9840.025578873061
1198.8923127609214 9784.626657134935
1199.7482683153048 9915.225283233824
1200.6040132436028 9864.569923273064
1201.459547605431 9789.897573837281
1202.3148714603722 9694.226546548894
1203.1699848679855 9773.643894978113
1204.0248878878065 9870.541667948453
1204.8795805793507 9542.04188443863
1205.7340630020935 9770.853352879549
1206.5883352155033 9790.042259865797
1207.4423972790064 9647.555764825642
1208.2962492520237 9613.804514676549
1209.1498911939307 9611.524628115982
1210.0033231640937 9678.173329987114
1210.8565452218427 9486.224021741393
1211.7095574264913 9351.39391838286
1212.5623598373222 9249.039348859877
1213.4149525135963 9280.614806745685
1214.2673355145507 9344.3104148427
1215.1195088993936 9313.730753271539
1215.9714727273113 9172.93082658789
1216.8232270574663 9340.651676809886
1217.6747719489904 8980.374017889995
1218.5261074609934 9130.342632381939
1219.3772336525653 9242.576784619061
1220.2281505827668 9238.599970380288
1221.0788583106296 9146.94568338076
1221.9293568951707 9006.210824977974
1222.7796463953746 8950.795557446985
1223.629726870202 9049.103423450066
1224.4795983785934 9055.465149724225
1225.3292609794553 9174.677531752028
1226.1787147316809 8965.603189080657
1227.0279596941327 8966.810072299448
1227.8769959256424 8979.864767481362
1228.7258234850306 9075.329145020452
1229.5744424310833 8890.235895669963
1230.422852822563 9025.625188794127
1231.2710547182105 9174.076961040466
1232.119048176739 9048.424209803465
1232.9668332568417 8840.682720090499
1233.8144100171812 9065.94862867343
1234.6617785163999 9148.566814413778
1235.508938813111 8841.109759282142
1236.3558909659114 8950.704232019687
1237.2026350333617 9120.887732447387
1238.049171074008 9075.641013815159
1238.8954991463652 8923.7904859184
1239.741619308932 8875.4281255923
1240.587531620169 10049.27586207468
1241.4332361385277 9025.642121274313
1242.2787329224248 8897.171241326538
1243.1240220302534 8905.727893669307
1243.9691035203869 8953.106079592488
1244.813977451171 9028.499970560693
1245.6586438809263 9072.987736463987
1246.5031028679496 8782.495912319037
1247.3473544705157 9031.582585030765
1248.1913987468706 8990.188187293079
1249.0352357552383 8763.925863085267
1249.8788655538228 8888.534450023417
1250.7222882007918 9000.541897052652
1251.565503754302 9095.229227199701
1252.4085122724755 8857.31579772371
1253.2513138134182 9043.687229868821
1254.0939084352049 9008.148510844254
1254.9362961958905 8973.197543343449
1255.7784771535007 8992.864558105148
1256.6204513660432 8973.157463056603
1257.4622188915 9175.691499165674
1258.3037797878242 8943.679205137458
1259.1451341129468 8919.088638731972
1259.9862819247755 8945.268952788818
1260.8272232811978 8833.306671554588
1261.6679582400666 9103.90870122597
1262.5084868592203 8835.804740219217
1263.34880919647 8907.327847226548
1264.1889253095997 9012.424935007093
1265.0288352563712 9041.390968430182
1265.8685390945266 8970.956680883923
1266.7080368817751 9052.861472593911
1267.5473286758115 9060.839012819375
1268.386414534294 8994.697606236175
1269.2252945148703 8687.64025514276
1270.0639686751547 8815.616202984636
1270.9024370727402 8825.43444968021
1271.7406997651997 8857.162919804696
1272.5787568100714 8794.177143453027
1273.4166082648808 8807.50517250961
1274.2542541871244 8820.245548378076
1275.091694634275 9004.672066149073
1275.9289296637817 8812.757849144295
1276.7659593330663 8849.173456109906
1277.6027836995308 8789.378344555264
1278.4394028205552 8825.771756597833
1279.2758167534867 8867.219771651355
1280.112025555658 8902.226621879037
1280.9480292843746 8734.316068671196
1281.7838279969128 8738.936574178959
1282.6194217505326 8777.09586141779
1283.4548106024686 8600.72083220212
1284.289994609926 8821.039874847562
1285.1249738300921 8825.892635246562
1285.959748320127 8695.715247370736
1286.7943181371702 8711.980118207368
1287.6286833383328 8808.590495461736
1288.4628439807038 8747.847028310094
1289.2968001213521 8570.85690514308
1290.1305518173194 8686.69800294984
1290.9640991256183 8719.674472869781
1291.7974421032523 8720.149463314201
1292.630580807183 8629.014204664962
1293.463515294361 8778.817528903654
1294.29624562171 8764.257853665908
1295.12877184613 8568.656311243565
1295.961094024493 8639.733260226008
1296.79321221365 8689.674564991166
1297.6251264704333 8783.723482212143
1298.4568368516466 8884.363056913937
1299.2883434140658 8943.113225071298
1300.1196462144526 8646.421757084836
1300.9507453095375 8905.695931791251
1301.7816407560313 8788.409715702708
1302.6123326106172 8905.688871913228
1303.4428209299622 8638.414130756977
1304.2731057707024 9015.891089007167
1305.1031871894502 8704.751243446173
1305.933065242798 8959.546981594065
1306.7627399873181 8821.42181205725
1307.5922114795467 9199.529742149436
1308.4214797760123 9321.827588121092
1309.2505449332057 8960.110651511157
1310.0794070076026 9002.711217959568
1310.9080660556538 9131.446342300218
1311.736522133786 9096.394177024078
1312.5647752983987 8948.968348075232
1313.3928256058734 8868.038367604398
1314.2206731125661 9074.797376654142
1315.048317874809 9004.75794537182
1315.8757599489109 8998.666906785862
1316.7029993911547 9126.264344571033
1317.5300362578055 9231.909460517652
1318.356870605101 8958.427759739428
1319.183502489257 9035.541279155877
1320.0099319664623 9158.4868152175
1320.836159092889 9128.460425463587
1321.66218392468 9153.890640954942
1322.4880065179532 9066.037920879662
1323.3136269288134 8977.767316502664
1324.1390452133292 9115.172273643639
1324.9642614275563 9107.985494424402
1325.7892756275214 9124.708969484716
1326.6140878692295 9023.112825016107
1327.4386982086617 9407.17092371169
1328.2631067017755 9144.225437240948
1329.0873134045069 9206.886656710381
1329.911318372764 9050.81473869269
1330.735121662441 8959.541476898728
1331.558723329399 8937.87841598022
1332.3821234294774 8956.31726816341
1333.2053220185007 9076.590350871496
1334.0283191522612 9044.557726727451
1334.851114886529 9054.60261121448
1335.6737092770582 8974.387877622765
1336.4961023795695 8971.858455836293
1337.3182942497697 8925.877616970629
1338.1402849433325 9021.083469483312
1338.962074515921 8868.985186098083
1339.7836630231632 8635.95370667838
1340.6050505206676 9269.200769307683
1341.426237064028 8918.678088326731
1342.2472227088037 9068.188814154704
1343.0680075105338 8790.92733554578
1343.888591524741 8778.620379370708
1344.7089748069138 9005.994167054874
1345.5291574125276 8799.480578693176
1346.3491393970307 8595.736548229195
1347.168920815846 9005.580150822998
1347.9885017243778 8825.984781126499
1348.8078821780036 8724.498732391585
1349.6270622320844 8794.894657751358
1350.4460419419447 8636.260928054808
1351.2648213629054 8777.86192778055
1352.0834005502438 8608.97851148876
1352.90177955923 8607.37798781076
1353.7199584451064 8841.860355958232
1354.5379372630887 8745.168202530007
1355.355716068374 8634.995675950162
1356.1732949161305 8533.311413762598
1356.9906738615155 8638.605822189955
1357.8078529596478 8617.00865765179
1358.6248322656375 8681.181416393936
1359.441611834567 8560.330595017504
1360.2581917214866 8893.094783832543
1361.0745719814367 8495.155264491717
1361.890752669433 8401.390491771728
1362.7067338404577 8473.915261355096
1363.5225155494845 8626.591982115197
1364.3380978514506 8864.333667004452
1365.1534808012839 8395.351006984401
1365.9686644538815 8220.583454594229
1366.783648864117 8552.673260133157
1367.5984340868417 8494.958632906837
1368.413020176893 8561.543622184445
1369.2274071890715 8550.938744012406
1370.0415951781652 8581.940038080082
1370.8555841989346 8449.941305728165
1371.6693743061223 8348.80807871497
1372.48296555444 8294.099887836392
1373.2963579985844 8537.89332844527
1374.1095516932255 8363.620239270485
1374.9225466930166 8267.50620038182
1375.7353430525782 8407.123434510257
1376.5479408265164 8220.883928141397
1377.36034006941 8354.92528825545
1378.1725408358216 8394.077722967198
1378.9845431802805 8099.673830229326
1379.796347157304 8562.998990148455
1380.6079528213813 8389.853925158604
1381.4193602269788 8154.3518278475485
1382.230569428546 8247.078396644025
1383.0415804805016 8446.627282730416
1383.852393437246 8417.256424944113
1384.6630083531563 8280.484008310405
1385.4734252825892 8226.213082828961
1386.2836442798798 8283.597637406088
1387.0936653993322 8263.993978473598
1387.9034886952395 8256.590795505133
1388.713114221864 8259.75525276274
1389.5225420334482 8183.597254104199
1390.331772184214 8026.91259693796
1391.1408047283585 7997.740279390258
1391.9496397200564 8043.375813562752
1392.758277213461 8385.191516070137
1393.5667172627054 8289.338381743608
1394.3749599218918 8036.091325506155
1395.1830052451114 7926.20847095625
1395.9908532864265 8090.686833015638
1396.7985040998774 8247.629891710885
1397.6059577394808 7937.391931096044
1398.4132142592352 8039.257517181276
1399.2202737131156 8093.748269065652
1400.027136155073 7971.037529062053
1400.8338016390353 7970.635831427938
1401.6402702189134 8046.8363122472465
1402.446541948586 7974.27366858936
1403.2526168819204 7807.468157255384
1404.058495072757 7987.801154860777
1404.8641765749107 7938.956557576004
1405.6696614421799 7962.71102771446
1406.4749497283356 8118.398888832946
1407.280041487129 7930.579915412885
1408.084936772295 7656.414245219117
1408.8896356375335 7782.6768708048085
1409.6941381365323 7883.331627807264
1410.498444322955 7599.807647659513
1411.3025542504402 7761.987029028843
1412.106467972606 7729.911575064985
1412.9101855430508 7763.312774294587
1413.7137070153458 7492.956599501047
1414.5170324430437 7591.815392435766
1415.320161879672 7683.6013627407665
1416.1230953787435 7801.251775847864
1416.925832993742 7394.624587977179
1417.7283747781275 7314.996294016373
1418.5307207853439 7453.905030075883
1419.3328710688093 7518.8350429745315
1420.134825681922 7222.9846617156745
1420.9365846780584 7485.527984226901
1421.7381481105713 7589.199973085726
1422.539516032788 7387.028571603517
1423.3406884980232 7263.1793107949825
1424.1416655595604 7169.358025226989
1424.942447270665 7229.181857904825
1425.7430336845828 7403.428809112536
1426.5434248545298 7112.252388037896
1427.3436208337116 7383.706997191635
1428.143621675301 7430.671115035422
1428.9434274324558 7360.592409825234
1429.7430381583108 7101.961939405121
1430.5424539059713 7188.602038087253
1431.3416747285337 7595.239902789425
1432.1407006790632 7249.048516774373
1432.9395318106053 7242.794843145147
1433.7381681761835 7086.506177984699
1434.5366098288014 7141.88109175713
1435.3348568214424 7165.501154736356
1436.1329092070573 7079.807650744691
1436.9307670385879 7140.38605457742
1437.7284303689503 7321.6968648263155
1438.5258992510335 7409.868912260919
1439.3231737377118 7228.259244463925
1440.1202538818306 7177.238722634966
1440.9171397362225 7198.087233576353
1441.7138313536925 7115.004293111738
1442.5103287870243 7039.294248485405
1443.3066320889775 6968.55928176898
1444.1027413122956 7283.253188678047
1444.8986565096966 7026.952835056732
1445.694377733882 7092.192080112424
1446.4899050375207 6913.017647764764
1447.2852384732687 6896.063992569248
1448.0803780937622 7120.490018408743
1448.8753239516063 7033.450907942612
1449.6700760993954 6824.604302902606
1450.464634589689 6875.99608324301
1451.2589994750397 7065.577345733717
1452.0531708079689 6865.570446543848
1452.8471486409799 6872.885007719737
1453.6409330265524 7102.419623353443
1454.4345240171442 6945.084231672896
1455.2279216651987 6951.706990669021
1456.0211260231263 6939.281513122216
1456.8141371433194 6982.507023363354
1457.6069550781594 6923.315961554552
1458.3995798799897 6868.771298600883
1459.1920116011424 6915.177192336925
1459.98425029393 6780.447695306668
1460.7762960106338 6834.905054779685
1461.5681488035225 6835.819093030109
1462.3598087248392 6837.733693643624
1463.1512758268036 7013.086901931949
1463.942550161617 6733.9721396965015
1464.7336317814625 6823.035193008322
1465.524520738496 6866.114274269831
1466.3152170848552 6728.222332639911
1467.1057208726506 6790.56036027532
1467.8960321539817 6662.81809124814
1468.6861509809169 6624.201286303045
1469.4760774055085 6692.361362973737
1470.265811479785 6823.493072831506
1471.055353255755 6490.297168593706
1471.844702785409 6667.868010183837
1472.6338601207044 6663.760282589154
1473.4228253135934 7305.940909963753
1474.2115984159936 6707.390618859883
1475.0001794798063 6472.868373014449
1475.7885685569145 6716.42943835223
1476.576765699172 6757.694923722102
1477.3647709584238 6713.198311757456
1478.1525843864802 6862.96026745621
1478.9402060351367 6817.518305344691
1479.7276359561693 6854.213737314673
1480.514874201328 6646.797717875042
1481.3019208223468 6556.346313405704
1482.0887758709323 6531.806769624118
1482.8754393987747 6724.698751532023
1483.6619114575406 6511.550165919835
1484.4481920988783 6827.3345253758725
1485.2342813744108 6808.561430229248
1486.0201793357446 6893.050483449122
1486.8058860344572 6725.9321685939385
1487.591401522117 6746.810869516031
1488.3767258502594 6658.649917555585
1489.1618590704056 6668.4418979799575
1489.9468012340494 6566.564032094329
1490.7315523926754 6699.999643965699
1491.5161125977356 6834.118336333266
1492.3004819006637 6581.8048974557605
1493.084660352877 6654.9571131894845
1493.8686480057622 6766.841922626093
1494.6524449106964 6946.779834390085
1495.4360511190262 6904.231749043121
1496.219466682087 6780.414163165602
1497.0026916511779 6890.687264229993
1497.7857260775945 6685.977516316203
1498.5685700125996 6800.48929274779
1499.3512235074395 6620.04293711834
1500.133686613337 6676.025042959324
1500.9159593814966 6615.93257470126
1501.698041863101 7013.532156705502
1502.4799341093094 6580.827735925523
1503.2616361712662 6490.759684106935
1504.043148100087 6779.022821776174
1504.8244699468742 6761.976285948034
1505.6056017626997 6593.600274040569
1506.3865435986281 6313.776043586214
1507.1672955056893 6735.916377489411
1507.9478575348967 6559.379293250953
1508.7282297372512 6782.6926187101735
1509.5084121637192 6570.513909370491
1510.2884048652577 6621.649511080749
1511.0682078927948 6563.716905225953
1511.8478212972423 6547.454864007529
1512.6272451294917 6489.123870294521
1513.4064794404076 6782.97080331403
1514.1855242808433 6528.962745156282
1514.9643797016215 6650.727080692255
1515.743045753552 6534.076468188103
1516.5215224874191 6638.339269740498
1517.2998099539836 6214.005780640236
1518.077908203999 6472.459084179481
1518.8558172881785 6439.783519482783
1519.633537257234 6681.947353753308
1520.4110681618404 6465.902831546496
1521.1884100526604 6688.321635945426
1521.9655629803365 6488.854025169107
1522.7425269954856 6771.71870046684
1523.5193021487103 6716.401060537171
1524.2958884905856 6436.6405433669515
1525.0722860716687 6385.015187943025
1525.848494942502 6525.866787010508
1526.624515153595 6418.745670149499
1527.4003467554485 6516.628088379213
1528.175989798534 6626.900974896547
1528.9514443333064 6523.151071978277
1529.726710410203 6727.639311656463
1530.5017880796331 6351.3631427284045
1531.276677391992 6449.786562077593
1532.0513783976457 6630.258557243318
1532.825891146953 6541.65758235435
1533.6002156902414 6484.315199786487
1534.3743520778207 6536.840097078689
1535.1483003599806 6504.126410801271
1535.9220605869923 6398.536713717795
1536.6956328091019 6645.359588473744
1537.4690170765407 6485.257309872525
1538.242213439511 6608.030404138252
1539.015221948208 6584.235883232594
1539.78804265279 6417.109713774149
1540.560675603405 6236.643546748499
1541.3331208501804 6682.0655601625895
1542.1053784432224 6713.214610556703
1542.8774484326168 6671.161560932012
1543.649330868422 6517.204797789871
1544.4210258006842 6580.655538767207
1545.1925332794308 6633.743848626682
1545.9638533546604 6546.741885184432
1546.7349860763552 6468.211265817125
1547.5059314944829 6762.945248781536
1548.27668965898 6622.718137775254
1549.0472606197673 6707.461206725837
1549.817644426752 6472.394203579346
1550.5878411298072 6781.33896594311
1551.3578507787988 6531.195233048207
1552.1276734235635 6462.367166756665
1552.8973091139233 6484.715568987205
1553.6667578996767 6679.221405946269
1554.436019830604 6679.7171210816105
1555.20509495646 6639.015520227282
1555.9739833269869 6365.329296915399
1556.7426849919011 6472.88880529748
1557.511200000903 6748.515387440343
1558.2795284036674 6615.486685605783
1559.0476702498509 6525.758337562554
1559.8156255890954 6601.4406287004795
1560.5833944710157 6783.434495705522
1561.3509769452048 6451.036710499505
1562.1183730612447 6444.780345306304
1562.8855828686865 6475.988510054877
1563.6526064170703 6822.988081441499
1564.4194437559127 6673.863637120126
1565.1860949347047 6393.8116697925825
1565.9525600029283 6780.772953274021
1566.7188390100328 6622.237313384192
1567.4849320054564 6632.706753987957
1568.250839038612 6461.449090896244
1569.0165601588997 6464.54800040787
1569.7820954156887 6570.575065357283
1570.5474448583373 6405.339133610856
1571.31260853618 6343.1197963627865
1572.0775864985299 6334.136805802375
1572.8423787946813 6491.31278826225
1573.6069854739108 6324.350498233561
1574.371406585471 6434.8555963699055
1575.1356421785986 6520.37439396418
1575.899692302506 6321.8615860736945
1576.6635570063845 6296.941567548155
1577.4272363394157 6112.548944489186
1578.190730350747 6376.814720177625
1578.9540390895163 6325.626461389829
1579.7171626048384 6051.056587629536
1580.480100945806 6125.550321354362
1581.2428541614918 6167.581936831763
1582.0054223009538 6101.217421425701
1582.767805413223 6242.885464700671
1583.5300035473156 6205.038537413436
1584.292016752228 6219.575262997796
1585.0538450769309 6150.053831454978
1585.8154885703807 6077.711775113267
1586.5769472815136 6029.521634160904
1587.3382212592405 6257.971909557422
1588.099310552463 6403.548846971969
1588.8602152100484 5833.449381182564
1589.6209352808564 6258.8381839919475
1590.3814708137234 6138.119847244155
1591.14182185746 5713.439755545729
1591.9019884608679 6265.260686484695
1592.6619706727215 5891.36974268271
1593.4217685417734 6126.355407613073
1594.1813821167616 6385.295652372088
1594.9408114464022 5863.484003154815
1595.7000565793933 6117.877961274058
1596.459117564409 6231.922597310677
1597.2179944501113 5894.148067811699
1597.9766872851324 6015.722306333222
1598.735196118092 6209.186389660416
1599.4935209975883 6297.310266774454
1600.2516619721973 6160.582964833599
1601.0096190904787 5940.3233147358815
1601.7673924009723 6090.9530012493415
1602.524981952196 5948.762947502506
1603.2823877926476 5926.512973300285
1604.0396099708087 5989.1112947624515
1604.7966485351371 5780.369475812046
1605.5535035340745 5951.642398070255
1606.3101750160404 6036.861568198484
1607.0666630294363 5941.166914376436
1607.822967622642 5685.5970820764505
1608.5790888440224 5881.906424374116
1609.3350267419137 6038.724788308952
1610.0907813646445 5810.77362193632
1610.8463527605145 5900.757669743736
1611.601740977805 5902.175270697326
1612.356946064785 5849.841547263901
1613.1119680696902 5538.9232452509395
1613.8668070407512 5734.3607433462075
1614.6214630261748 5737.003284097832
1615.375936074137 5822.135184566521
1616.1302262328118 5816.03868265692
1616.8843335503425 5760.795849167436
1617.638258074854 5671.764970325945
1618.391999854457 5734.91800090778
1619.1455589372363 5912.972785475619
1619.8989353712623 5864.42290492562
1620.65212920458 5453.599021336432
1621.4051404852235 5691.809203667652
1622.1579692611976 5572.5905941041165
1622.9106155804966 5532.726105417822
1623.663079491087 5554.031280960885
1624.4153610409248 5696.45472703705
1625.1674602779385 5549.8507380797255
1625.9193772500403 5412.827721495413
1626.6711120051277 5820.3340248323475
1627.4226645910676 5661.087461905262
1628.174035055721 5474.4859449663545
1628.9252234469168 5586.757111273055
1629.676229812474 5409.227523777355
1630.4270542001905 6077.729005159871
1631.1776966578382 5586.085594464914
1631.9281572331747 5618.039464302998
1632.678435973945 5678.963695036107
1633.4285329278573 5547.69290610323
1634.1784481426203 5506.930348234074
1634.9281816659113 5590.796119824946
1635.677733545388 5797.482232170564
1636.4271038286934 5535.659478185639
1637.176292563452 5550.824232842397
1637.9252997972635 5666.748226456218
1638.674125577716 5799.633815490265
1639.4227699523672 6039.302290710028
1640.171232968767 5322.918042408291
1640.9195146744423 5812.065051136287
1641.6676151168977 5795.253514770326
1642.4155343436178 5716.906392009077
1643.1632724020765 5712.21951611319
1643.9108293397167 5693.127603378101
1644.658205203974 5548.652193119757
1645.4054000422566 6098.315878303034
1646.1524139019566 5718.98994320441
1646.8992468304423 5750.927268840902
1647.6458988750728 5808.332301133761
1648.3923700831765 5901.810165305991
1649.1386605020743 5646.836326712168
1649.8847701790564 5821.291818377699
1650.6306991614038 5838.109441754526
1651.3764474963682 5800.114134215522
1652.1220152311944 5576.194539208634
1652.867402413096 5853.505560436346
1653.6126090892776 5688.834360340929
1654.3576353069184 5914.367330175869
1655.1024811131829 5790.072316429368
1655.8471465552066 5868.2612864604125
1656.5916316801213 6019.357026763283
1657.3359365350298 5831.494152461228
1658.0800611670165 5683.426986523533
1658.824005623148 5655.653588577165
1659.5677699504722 5588.891419076256
1660.3113541960192 5775.9048754698
1661.054758406799 5632.806304273193
1661.7979826297997 5384.456476104476
1662.5410269119966 5446.3562257973645
1663.283891300338 5752.675207583065
1664.0265758417645 5376.446687579353
1664.7690805831826 5528.798020221553
1665.5114055714948 5599.12432967152
1666.2535508535748 5757.683918575273
1666.9955164762814 5131.793831811242
1667.7373024864555 5343.253251661996
1668.478908930916 5471.589768882909
1669.220335856462 5118.933027092358
1669.9615833098778 5269.384595900231
1670.7026513379296 5094.22726280169
1671.44353998736 5172.194476178016
1672.1842493048916 5202.054821486226
1672.9247793372379 5039.208180143926
1673.6651301310812 5258.099753552637
1674.4053017330934 5032.428673465318
1675.1452941899242 5152.5059407532435
1675.885107548207 4692.916548223177
1676.6247418545518 4918.307568368007
1677.3641971555535 5033.617954627911
1678.1034734977893 5034.756544953564
1678.8425709278108 5029.056791552161
1679.5814894921605 5038.784568213879
1680.320229237359 4850.443834579513
1681.0587902098978 5025.706655640647
1681.7971724562685 4849.645674878449
1682.5353760229264 4913.901985101405
1683.2734009563173 4866.4640731734435
1684.0112473028657 4676.135505785191
1684.7489151089794 4796.06269871892
1685.4864044210462 4823.09246849472
1686.2237152854377 4578.588949904301
1686.960847748498 4820.821848789861
1687.6978018565642 4597.439238174231
1688.434577655944 4491.292821124868
1689.1711751929379 4551.936253408614
1689.9075945138156 4570.661217552347
1690.6438356648396 4579.953744225754
1691.3798986922448 4237.867690751451
1692.1157836422499 4504.973572322017
1692.851490561059 4438.571104879826
1693.587019494853 4381.923078595934
1694.3223704897991 4285.4826584858
1695.0575435920364 4182.802843124706
1695.792538847696 4550.065881632984
1696.527356302886 4425.151889281059
1697.2619960036936 4137.798040645918
1697.9964579961907 4322.63473241608
1698.730742326432 3817.7972506988276
1699.4648490404488 3975.019539822012
1700.1987781842563 4283.380254344526
1700.9325298038548 4282.9101856119
1701.6661039452174 4222.392018283312
1702.3995006543082 4177.346599698047
1703.1327199770658 4257.2350647709445
1703.865761959416 3706.260524375194
1704.598626647261 4351.8074606904875
1705.3313140864866 4008.0213461166013
1706.0638243229587 4149.9511211710305
1706.7961574025303 4174.981440545067
1707.528313371029 4076.0485992579074
1708.260292274268 3823.1801588750504
1708.9920941580403 3960.6263959602175
1709.7237190681226 4021.0683049630156
1710.4551670502697 4024.329633283794
1711.18643815022 3664.567498884206
1711.9175324136959 4106.703614768015
1712.6484498863938 3943.783841870044
1713.379190614005 3730.4354094298783
1714.109754642188 4067.1152514997157
1714.8401420165883 3868.252201522567
1715.570352782839 3763.751915701193
1716.3003869865497 4167.509148767611
1717.0302446733076 3849.5404291829677
1717.7599258886876 3857.495835681629
1718.4894306782444 4100.441115827113
1719.2187590875183 3751.469301077471
1719.9479111620203 3971.435848108778
1720.6768869472544 3870.0684081673244
1721.4056864887025 4030.6271608607867
1722.1343098318284 4079.8295218141056
1722.8627570220742 3865.110052816498
1723.591028104871 3680.757034867182
1724.3191231256242 3744.6698492181577
1725.0470421297232 3785.1608404292165
1725.7747851625427 3929.2767476350114
1726.5023522694337 3934.727112275125
1727.2297434957363 3887.1691423092125
1727.9569588867635 3531.8606176687745
1728.6839984878152 3961.9365887384984
1729.4108623441734 3469.8977665110215
1730.1375505011038 3882.0694801265354
1730.8640630038426 3715.822443702499
1731.5903998976264 3585.3708953366186
1732.316561227657 3905.564126280888
1733.0425470391274 3612.933899161106
1733.7683573772065 3756.884650216878
1734.4939922870508 3768.257307494628
1735.2194518137949 3656.324393388174
1735.9447360025606 3793.6987927409914
1736.669844898439 3647.522054033584
1737.3947785465189 3576.305430996775
1738.1195369918605 3400.012228218008
1738.8441202795093 3660.3318774738195
1739.5685284544943 3623.992270987744
1740.292761561821 3737.3915257946874
1741.0168196464838 3787.1905853567237
1741.7407027534518 3651.521848867793
1742.464410927687 3592.388233151409
1743.187944214118 3692.8755822457947
1743.9113026576688 3439.737105750097
1744.634486303241 3665.9245748982894
1745.3574951957125 3608.1919721900604
1746.0803293799509 3628.3374316628406
1746.8029889008048 3510.0390002516456
1747.5254738031017 3770.2939055836205
1748.2477841316504 3460.6566573826217
1748.969919931249 3568.455579933109
1749.6918812466665 3394.1272001066855
1750.4136681226646 3869.084937482427
1751.1352806039777 3622.6894000817933
1751.856718735331 3449.60077472246
1752.5779825614281 3579.9716590048965
1753.2990721269507 3585.5614382153703
1754.0199874765676 3721.2114249573765
1754.7407286549314 3291.2807609923148
1755.4612957066693 3567.8740959894194
1756.1816886763954 3520.6128945210608
1756.9019076087097 3653.4235026047813
1757.6219525481865 3638.1762741728026
1758.3418235393856 3745.3681124828413
1759.061520626854 3666.738490264469
1759.7810438551096 3660.650738884163
1760.5003932686614 3572.935246703399
1761.2195689119999 3854.527228728235
1761.938570829594 3400.5483272296465
1762.657399065898 3482.489699796545
1763.376053665348 3438.2937463625444
1764.0945346723602 3477.6388938495884
1764.812842131334 3584.961783567618
1765.5309760866512 3425.0018379007875
1766.2489365826787 3449.3721976856186
1766.9667236637597 3462.1221560872837
1767.684337374223 3350.2918203544677
1768.401777758383 3249.4327296634947
1769.1190448605284 3404.0662749722856
1769.836138724937 3437.153017138705
1770.5530593958665 3513.216353697086
1771.2698069175603 3617.2427305245837
1771.9863813342326 3489.3442004653757
1772.702782690094 3413.5118909770667
1773.4190110293293 3502.967681119032
1774.1350663961111 3692.742808531668
1774.8509488345844 3300.0649818828433
1775.5666583888924 3450.2836811589477
1776.2821951031437 3722.799799155161
1776.9975590214362 3514.2517990163215
1777.7127501878585 3733.5437171401195
1778.4277686464684 3428.794949116679
1779.1426144413108 3783.3193033850707
1779.8572876164162 3446.4836661662675
1780.571788215797 3426.3734658931726
1781.2861162834415 3575.943296822645
1782.0002718633277 3484.585836260222
1782.7142549994132 3451.00404641595
1783.4280657356376 3542.960382582782
1784.141704115922 3108.9182446322457
1784.855170184177 3323.0085455862986
1785.5684639842839 3436.224987438348
1786.2815855601148 3251.9261124466434
1786.9945349555237 3423.3486499638057
1787.707312214343 3202.432706190824
1788.4199173803918 3555.945486072641
1789.132350497468 3266.352956715481
1789.8446116093583 3237.129447567925
1790.556700759822 3426.719950313761
1791.2686179926077 3049.7197771868073
1791.9803633514493 3425.4440429917586
1792.6919368800554 3168.3112008136663
1793.4033386221236 3428.9694906185696
1794.1145686213295 3378.719092850822
1794.8256269213307 3591.750083329777
1795.536513565774 3524.2636605389293
1796.247228598284 3132.7701450780028
1796.9577720624693 3253.389047352902
1797.6681440019165 3314.2364535926426
1798.3783444602013 3357.835750491579
1799.0883734808776 3385.7388953563145
1799.7982311074884 3439.046257986666
1800.5079173835475 3356.1756626615133
1801.2174323525633 3400.8749194483726
1801.9267760580187 3326.5248146543336
1802.635948543386 3265.13446477043
1803.3449498521113 3201.071703175122
1804.0537800276325 3346.2049355208073
1804.7624391133668 3277.064195124431
1805.47092715271 3118.396592893178
1806.1792441890484 3175.144328780011
1806.8873902657433 3336.5795381469325
1807.5953654261448 3361.344231151168
1808.3031697135812 3124.502118340826
1809.0108031713662 3269.7354770398656
1809.71826584279 3300.293891420287
1810.425557771141 3259.1773813405534
1811.1326789996747 3675.1438557206784
1811.839629571632 3293.781272591913
1812.5464095302468 3186.182962890941
1813.2530189187182 3351.139567626464
1813.959457780249 3162.2778093960046
1814.6657261580076 3350.610989409119
1815.371824095153 3295.2159246083656
1816.0777516348262 3249.036016958492
1816.78350882015 3033.1893996384156
1817.4890956942272 3075.7134598497714
1818.1945123001533 3140.1400263552687
1818.8997586809928 3270.8503512897805
1819.6048348798067 3214.0360855045037
1820.3097409396287 3162.128739717461
1821.0144769034796 3430.452261359289
1821.7190428143622 3123.2160978315783
1822.423438715261 3498.015232659476
1823.1276646491478 3147.3536227366635
1823.8317206589727 3254.108872143108
1824.5356067876692 3228.887286290704
1825.2393230781581 3214.4991765935547
1825.942869573335 3010.090008710863
1826.646246316086 3199.066041776784
1827.3494533492758 3277.145738297244
1828.052490715756 3336.8135688121874
1828.7553584583547 3182.8852590251317
1829.458056619891 3215.8009771070906
1830.1605852431585 3019.862173562652
1830.8629443709433 3077.41933408532
1831.5651340460063 3150.339183648974
1832.2671543110919 3298.5238538330173
1832.9690052089318 3226.0835743236876
1833.6706867822395 2968.1366072450905
1834.3721990737104 3281.0396095038645
1835.0735421260233 3277.0426798234853
1835.774715981841 3130.6127459262148
1836.4757206838058 3366.6149142748545
1837.1765562745459 2917.780015628929
1837.8772227966747 2900.10356592674
1838.5777202927839 3291.1816851404997
1839.2780488054523 3249.376168380707
1839.9782083772352 2918.5553616083344
1840.6781990506806 3294.0380069984794
1841.378020868313 3100.744161050704
1842.0776738726418 3141.980735424341
1842.777158106157 3115.765848265184
1843.4764736113375 3015.4736270515664
1844.1756204306403 3183.59691451138
1844.8745986065078 3127.0672682931677
1845.5734081813607 2973.059893215683
1846.2720491976124 2835.353267877353
1846.970521697649 3004.1586719719917
1847.6688257238511 3045.0958812167737
1848.3669613185684 3099.498125387982
1849.0649285241452 2921.5910315381248
1849.7627273829057 3146.0214842204905
1850.460357937156 3229.157669006506
1851.1578202291857 2708.921245664899
1851.8551143012664 3071.3886178102375
1852.5522401956569 3164.8588198474367
1853.2491979545957 3302.903697351271
1853.9459876203055 2827.5474904499633
1854.6426092349902 2928.765043566888
1855.3390628408451 2845.9796496714025
1856.0353484800362 3069.6383446811005
1856.7314661947203 3111.641671751735
1857.4274160270397 2878.172289092637
1858.123198019115 2980.762749243049
1858.8188122130487 3113.8048473478243
1859.5142586509319 2994.1315501717463
1860.209537374838 3179.355817543401
1860.9046484268183 2824.41026421092
1861.599591848917 3258.862082342427
1862.294367683151 2879.0396705241997
1862.988975971528 3033.2754814249743
1863.6834167560355 3137.237093580116
1864.3776900786452 3213.461484384993
1865.0717959813119 2862.884787166803
1865.7657345059724 2940.8007558110376
1866.4595056945564 3075.616819745159
1867.1531095889586 3041.344088741499
1867.846546231076 3090.145552600802
1868.5398156627743 3253.702248514479
1869.2329179259123 3078.7976490340743
1869.9258530623283 3344.296930814882
1870.618621113843 2936.7227838627864
1871.3112221222636 2967.18882413924
1872.0036561293764 2921.198788117299
1872.695923176956 3095.688804279107
1873.3880233067594 3231.7078868491826
1874.0799565605212 2896.115345026764
1874.7717229799673 2974.986516375304
1875.4633226068036 3136.030396866311
1876.1547554827175 3101.507392531879
1876.8460216493859 2988.350128553073
1877.5371211484617 2981.947827092433
1878.2280540215852 3308.9740505840696
1878.9188203103804 2841.5475543594757
1879.6094200564548 3121.949051369165
1880.299853301396 3014.415104803938
1880.9901200867826 3237.628010637041
1881.6802204541673 2982.5477087192003
1882.3701544450942 3151.781845847922
1883.059922101087 2954.8563168780565
1883.7495234636517 3231.8845690056273
1884.4389585742792 2982.989570900185
1885.1282274744517 2911.034799337848
1885.8173302056166 3433.6877693353026
1886.506266809225 3055.8903310051314
1887.195037326701 2781.188489799383
1887.8836417994517 3048.487654404485
1888.5720802688702 3268.8497517452906
1889.260352776333 3112.0183591041964
1889.9484593632042 3049.046488396398
1890.63640007082 2899.1143169302
1891.3241749405151 2853.0342692144486
1892.0117840135954 3105.8338004635007
1892.6992273313572 2891.014480780571
1893.3865049350788 2986.917426787508
1894.0736168660223 3225.093928974583
1894.7605631654333 2992.541485398725
1895.4473438745408 2792.843226534609
1896.133959034556 3108.557287579666
1896.820408686679 2855.1307208822845
1897.506692872088 3061.7853862230922
1898.192811631945 2995.7862338655395
1898.8787650073991 3023.755116934891
1899.5645530395832 3165.8264755102396
1900.2501757696118 3100.071526875989
1900.9356332385796 2788.9686941970235
1901.620925487574 3139.377344685261
1902.3060525576602 3024.2509704153917
1902.9910144898859 3211.5679529299605
1903.6758113252872 2825.753903359525
1904.3604431048789 3005.366268489108
1905.0449098696663 2954.917684296207
1905.7292116606295 2845.997938693776
1906.4133485187394 3004.3882008301703
1907.0973204849488 2622.790740945455
1907.7811276001976 2950.4775700528658
1908.4647699053967 2945.2896321176154
1909.1482474414588 2740.0597547285097
1909.8315602492694 2734.39761615089
1910.5147083696957 3004.183212119955
1911.1976918436012 3022.3328371808034
1911.880510711815 3020.1153814157105
1912.5631650151681 3015.0046084689584
1913.2456547944657 3010.7250845512535
1913.927980090495 2821.9558961181488
1914.6101409440362 2937.466334801488
1915.2921373958416 2891.553235377962
1915.9739694866603 2789.244765594331
1916.655637257214 3101.1831755288035
1917.3371407482136 2960.0691759805804
1918.0184800003572 3101.2380173320025
1918.6996550543154 2875.456748058544
1919.3806659507554 2955.342184949775
1920.0615127303208 3053.741646936036
1920.7421954336423 3054.5902111590267
1921.4227141013343 3027.4457502902264
1922.103068773993 2810.5576152540043
1922.783259492202 3173.004950192636
1923.4632862965227 2772.7433637067384
1924.1431492275078 2748.399056842844
1924.8228483256917 2826.6833314006526
1925.5023836315922 2838.997673135014
1926.1817551857057 2553.6999527952476
1926.8609630285227 3104.09704529107
1927.5400072005123 2939.389615479456
1928.218887742125 2688.457522357302
1928.8976046938005 2643.2919284643644
1929.5761580959588 2924.51428540291
1930.2545479890086 2958.723815461146
1930.9327744133352 2728.1435666742427
1931.6108374093164 2960.9454401378016
1932.2887370173066 3198.0685543261347
1932.9664732776473 2532.193941502759
1933.6440462306673 3002.404351362291
1934.3214559166754 2797.7356320309236
1934.9987023759659 2947.3555654281313
1935.675785648813 3039.458181737861
1936.3527057754836 2596.9891521685163
1937.029462796223 2960.3993147786496
1937.70605675126 2767.8524885957195
1938.3824876808085 2871.7371701090615
1939.058755625072 2734.033791925166
1939.7348606242267 2834.4068980561447
1940.4108027184448 2775.6331853536685
1941.0865819478713 3044.4845981720605
1941.7621983526478 2573.4675733154777
1942.4376519728921 2653.0211352920296
1943.1129428487038 2738.4620051177853
1943.7880710201734 2938.259119975083
1944.4630365273733 2822.2599641451834
1945.1378394103576 2503.9140306911
1945.8124797091714 2522.3288949624066
1946.4869574638324 2540.6921078805144
1947.161272714353 2856.6426224097168
1947.8354255007234 2845.7586108737087
1948.5094158629272 2792.276983610788
1949.1832438409183 2978.588403080357
1949.8569094746435 3013.2098108076034
1950.530412804037 3010.0890279623723
1951.2037538690092 3009.863487829416
1951.8769327094578 2696.987100009114
1952.5499493652678 2777.9946477945973
1953.222803876306 2846.3793821298905
1953.895496282421 2793.0908520327384
1954.5680266234522 2770.740703928087
1955.2403949392155 2897.34625002741
1955.9126012695142 2566.6707555024936
1956.5846456541403 2779.0709174599
1957.2565281328643 2666.627686211049
1957.9282487454457 2925.4139453985363
1958.5998075316202 3038.9929076393882
1959.27120453112 2980.6429995055437
1959.9424397836501 2671.5896887977765
1960.613513328908 2872.715297053736
1961.2844252065697 2994.689538344786
1961.9551754563017 2826.1989217502423
1962.6257641177453 2767.3606436291975
1963.29619123054 2730.914389321702
1963.966456834296 2622.4718959050974
1964.6365609686181 2530.5278006165104
1965.306503673086 2912.0821408841675
1965.976284987275 2760.9110161486374
1966.645904950734 2635.136557875332
1967.315363603002 2523.942110152237
1967.9846609836077 2757.881962577969
1968.6537971320486 2722.398649848808
1969.3227720878222 2724.293552663804
1969.9915858904042 2637.2437076111532
1970.660238579252 2740.884764840583
1971.3287301938108 2800.2901298084016
1971.997060773514 2481.252428659963
1972.665230357772 2627.2506971080916
1973.3332389859843 2484.5877622910084
1974.0010866975335 2697.7242514592895
1974.6687735317864 2831.006028784578
1975.3362995280932 2875.1656852329133
1976.003664725793 2749.363951261591
1976.6708691642052 2437.222938315971
1977.3379128826364 2682.6629698483894
1978.004795920373 2791.8375165316
1978.6715183166925 3050.4631358584807
1979.3380801108524 2448.139955120233
1980.0044813420973 2833.6016874125353
1980.6707220496555 2588.941583136879
1981.3368022727373 2631.7885048322496
1982.0027220505417 2687.9151229110485
1982.66848142225 2410.182629224624
1983.3340804270283 2515.6445412767093
1983.999519104027 2774.78633012738
1984.6647974923835 2742.476395082164
1985.329915631215 2824.5817866459533
1985.99487355963 2787.1135879558237
1986.6596713167146 2869.212130997012
1987.3243089415428 2736.785816037372
1987.9887864731754 2962.9547756331076
1988.6531039506553 2586.0830023097324
1989.3172614130071 2934.6781639642954
1989.9812588992481 2820.9986399473755
1990.645096448372 2661.6434875416517
1991.3087740993633 2712.6601919785912
1991.9722918911848 2611.7818878170715
1992.635649862792 2512.7757020500835
1993.2988480531185 2972.109376812624
1993.9618865010852 3085.8381645805002
1994.6247652455968 2688.1482881253232
1995.287484325545 2415.0374472671424
1995.9500437798033 2838.93346757776
1996.6124436472292 2486.9945916522993
1997.2746839666706 2772.101592586638
1997.936764776954 2701.7793996859136
1998.598686116895 2609.737781644027
1999.2604480252903 2980.068444372973
1999.9220505409212 2503.857836582026
2000.5834937025593 2413.021730102428
2001.2447775489582 2585.3001038705706
2001.9059021188514 2605.2487418751143
2002.5668674509616 2650.7808889601756
2003.2276735839987 2598.1396600095727
2003.8883205566508 2863.2869695225213
2004.5488084075987 2471.5558725440724
2005.2091371755014 2544.594981234267
2005.8693068990033 2518.514226647967
2006.5293176167397 2817.7489274727145
2007.1891693673224 2488.6012480198756
2007.848862189354 2482.7602386729673
2008.5083961214223 2686.9251590601752
2009.1677712020955 2378.0673836187298
2009.8269874699254 2568.3570609875087
2010.4860449634598 2800.9749828532595
2011.1449437212177 2354.844764567392
2011.8036837817108 2775.194678139143
2012.4622651834325 2820.041473081031
2013.1206879648653 2730.9471390629897
2013.7789521644736 2940.8861362742623
2014.4370578207036 2425.917670369157
2015.0950049719922 2674.9824325732457
2015.7527936567585 2653.6677820252507
2016.4104239134067 2757.8960607633126
2017.067895780323 2820.017943860418
2017.725209295886 2391.7974768914455
2018.3823644984514 2877.7249478958065
2019.0393614263648 2564.060605167554
2019.6962001179545 2349.4888955577335
2020.3528806115355 2779.7416613686446
2021.0094029454067 2315.331280227717
2021.6657671578487 2538.5176299188342
2022.321973287133 2531.410522138831
2022.9780213715148 2517.970577207309
2023.6339114492293 2575.4271836966295
2024.2896435585026 2510.7404564843946
2024.9452177375442 2566.497754800498
2025.600634024544 2831.6665414305235
2026.2558924576842 2617.309330952731
2026.9109930751292 2721.325431665312
2027.565935915025 2514.738330788883
2028.2207210155066 2931.473310201577
2028.8753484146964 2664.6405684520732
2029.529818150695 2440.365885789207
2030.1841302615903 2602.403076562018
2030.8382847854573 2404.2481776915447
2031.4922817603601 2398.8754711654396
2032.1461212243357 2606.7843254862514
2032.7998032154192 2385.0195798472223
2033.4533277716218 2610.3313585297797
2034.1066949309443 2542.4365016093047
2034.7599047313688 2529.1774286842574
2035.4129572108704 2769.958947221178
2036.0658524074006 2832.6211306508026
2036.7185903589016 2666.156143075331
2037.3711711032956 2687.0720767357334
2038.023594678496 2500.6685839905404
2038.675861122394 2408.101449642668
2039.3279704728757 2699.490069773996
2039.9799227678031 2374.824537633372
2040.6317180450278 2480.9425566697096
2041.2833563423865 2554.091665267725
2041.9348376977014 2470.627901019402
2042.5861621487784 2521.5566296759253
2043.2373297334088 2660.481558532797
2043.8883404893695 2728.0774404006293
2044.5391944544208 2719.6012624894847
2045.1898916663158 2703.00867345562
2045.8404321627804 2718.573230059211
2046.4908159815368 2542.4748361033417
2047.1410431602853 2397.3036601985377
2047.7911137367173 2146.4397273188324
2048.441027748504 2289.3778398849586
2049.090785233302 2432.3689865801935
2049.7403862287592 2405.3951690148997
2050.389830772503 2354.8362682563775
2051.0391189021466 2304.296230774028
2051.688250655294 2533.7194316997297
2052.337226069527 2240.5488486212075
2052.986045182417 2571.856492109857
2053.634708031521 2271.9441026058057
2054.283214654375 2628.942053095609
2054.931565088511 2266.7876732833993
2055.579759371436 2351.2050643225402
2056.2277975406523 2514.7672466525282
2056.8756796336384 2840.1006581718325
2057.5234056878617 2235.2073540915517
2058.1709757407752 2444.5895766512126
2058.8183898298194 2520.144227438302
2059.465647992416 2466.307592063235
2060.1127502659747 2676.2636778362858
2060.759696687888 2368.319641324783
2061.4064872955405 2736.9088769147697
2062.053122126292 2778.1318690829053
2062.699601217497 2198.263326780872
2063.345924606485 2422.2754678182055
2063.992092330587 2524.051963103056
2064.638104427102 2387.6954318559556
2065.283960933324 2631.616644560074
2065.92966188653 2628.177215235719
2066.5752073239855 2625.8936010508414
2067.2205972829397 2401.958778621299
2067.86583180062 2524.7066672315477
2068.5109109142522 2430.280148219682
2069.15583466104 2503.6912925090915
2069.8006030781708 2577.173304588592
2070.445216202821 2562.411569573876
2071.089674072153 2877.0374156684547
2071.7339767233116 2439.293488453423
2072.3781241934303 2442.70269442644
2073.0221165196253 2461.0053149330065
2073.6659537390024 2531.9466738369247
2074.3096358886505 2622.4871736978307
2074.953163005637 2225.013642378318
2075.596535127028 2399.1581526791074
2076.2397522898664 2262.1711457981487
2076.882814531182 2503.0511745572207
2077.5257218879924 2597.509478531844
2078.1684743973 2345.6668743345867
2078.8110720960885 2289.735075063365
2079.453515021336 2748.1779789488023
2080.095803209997 2426.8555354250666
2080.7379366990135 2417.8135523191822
2081.37991552532 2412.1499385509546
2082.0217397258275 2504.273152274189
2082.6634093374414 2201.5742076112692
2083.3049243970418 2539.20380842967
2083.9462849415067 2439.3361546822666
2084.587491007689 2477.9635031927774
2085.2285426324324 2530.693440408482
2085.869439852564 2554.766540407106
2086.510182704902 2161.4687788985902
2087.1507712262483 2599.731785635222
2087.791205453381 2239.3488026340196
2088.4314854230743 2560.062372372764
2089.0716111720867 2406.6663422130127
2089.7115827371617 2199.6170337852463
2090.351400155023 2252.6592628561616
2090.991063462385 2305.9102457937133
2091.6305726959527 2267.393771931811
2092.2699278924047 2684.719905730984
2092.9091290884153 2492.6861348327698
2093.548176320641 2308.4744103239327
2094.187069625721 2641.9847960363672
2094.8258090402887 2215.192867904287
2095.464394600951 2388.756805879958
2096.102826344313 2453.5819745314643
2096.741104306955 2618.4165123094003
2097.379228525453 2058.023281111629
2098.017199036358 2198.059501941184
2098.6550158762147 2650.7167406236554
2099.2926790815527 2302.0026560096208
2099.9301886888825 2526.546623275578
2100.5675447347076 2389.710682248964
2101.2047472555114 2650.2890536688096
2101.841796287761 2404.2668348569546
2102.47869186792 2415.1395690691506
2103.1154340324265 2378.562398100393
2103.752022817709 2409.6849506454464
2104.388458260184 2450.4132825849574
2105.024740396251 2500.7896867584013
2105.660869262292 2290.097565475339
2106.296844894685 2427.6505191476945
2106.93266732978 2349.1917296086094
2107.5683366039284 2094.65505895606
2108.2038527534532 2360.860154115035
2108.8392158146726 2660.164937489043
2109.4744258238843 2580.625431729358
2110.1094828173755 2350.551681218688
2110.744386831422 2360.223114226251
2111.3791379022787 2369.9581971312073
2112.01373606619 2563.913889837923
2112.648181359389 2344.797419722673
2113.28247381809 2573.0758699781127
2113.916613478492 2347.1973601817235
2114.550600376786 2569.770473213429
2115.1844345491445 2446.3720242108902
2115.818116031729 2360.2633876729174
2116.451644860679 2355.4279390209717
2117.085021072133 2391.9061220619274
2117.718244702204 2175.7378307209988
2118.3513157869984 2224.0969356006867
2118.984234362604 2301.774043609592
2119.617000465092 2329.3303585055423
2120.249614130529 2558.894298797503
2120.8820753949585 2314.6267018973767
2121.5143842944162 2377.850055716547
2122.14654086492 2233.9066727048057
2122.7785451424734 2598.565767756896
2123.4103971630702 2551.6255077620144
2124.042096962681 2504.8568161154903
2124.6736445772767 2339.201817479236
2125.305040042802 2171.9859211945395
2125.936283395191 2309.7161306750336
2126.567374670365 2285.5056037917675
2127.198313904233 2251.1084159560705
2127.8291011326855 2244.907833003547
2128.4597363916037 2238.4275042059535
2129.0902197168507 2160.815957051647
2129.720551144279 2135.132924317785
2130.3507307097225 2413.0627996650283
2130.980758449008 2675.011083930781
2131.6106343979427 2248.9801730775107
2132.2403585923203 2538.322084008379
2132.8699310679276 2539.5939603849006
2133.499351860526 2437.1918433383353
2134.1286210058715 2349.6849698778083
2134.7577385397053 2079.6833705169347
2135.3867044977487 2364.7144452563716
2136.0155189157176 2551.37523124785
2136.644181829308 2356.542472818591
2137.2726932742025 2323.2212238361844
2137.901053286074 2619.7991473858287
2138.5292619005777 2242.960724900814
2139.1573191533535 2360.505072816254
2139.7852250800315 2561.2997609685367
2140.4129797162295 2493.181294650476
2141.0405830975433 2247.3548899713737
2141.6680352595613 2574.8120680851753
2142.2953362378576 2136.805929063275
2142.9224860679915 2156.5742591383214
2143.549484785508 2237.089858644652
2144.1763324259373 2470.9146255078003
2144.803029024799 2308.5356063674108
2145.429574617594 2362.599457253646
2146.0559692398165 2547.3249761461616
2146.682212926942 2433.6428575092295
2147.308305714432 2319.606866186263
2147.9342476377333 2542.312664467824
2148.5600387322847 2539.9803464593206
2149.185679033506 2475.3051115498465
2149.8111685768017 2242.511074087681
2150.4365073975678 2306.6898787942123
2151.061695531187 2306.1351265290787
2151.686733013021 2401.6092684680416
2152.311619878423 2277.4839131311733
2152.9363561627342 2267.0603139020723
2153.560941901278 2027.15945842347
2154.1853771293663 2345.8182315713148
2154.809661882293 2487.606453887788
2155.433796195348 2490.5494788040073
2156.0577801037944 2506.0339248945975
2156.681613642895 2354.1378107224714
2157.3052968478896 2316.4460734924965
2157.928829754006 2278.6961990285854
2158.552212396462 2507.4397539899196
2159.1754448104566 2213.7170313429797
2159.7985270311783 2169.87969272975
2160.4214590938027 1851.5699653504284
2161.0442410334927 1858.1609658914906
2161.6668728853874 2185.2034626642776
2162.289354684628 2206.5593562165045
2162.911686466332 2178.8176332353223
2163.533868265602 2473.440530480321
2164.1559001175337 2526.1174727734656
2164.7777820572046 2437.383410568572
2165.399514119681 2079.6988623968855
2166.021096340013 1930.6033566292767
2166.6425287532384 2105.7198956815932
2167.263811394385 2281.2466882687504
2167.8849442984574 2417.5474576787683
2168.505927500455 2193.18301020717
2169.126761035366 2340.6097186909715
2169.7474449381552 2181.4646190713756
2170.367979243778 2054.787147862843
2170.9883639871823 2381.3147605445606
2171.608599203293 2123.4390733242803
2172.2286849270276 2717.7180979300724
2172.8486211932886 2689.7538065108192
2173.4684080369625 2174.08901621894
2174.0880454929265 2042.2624852041693
2174.7075335960417 2135.9492578210925
2175.3268723811543 2434.8716102917897
2175.9460618831 2392.923493262845
2176.565102136701 2059.211598123633
2177.1839931767627 2156.1808104196443
2177.802735038078 2253.437263549059
2178.421327755432 2171.2316775165873
2179.0397713635866 2216.7325053048653
2179.658065897298 2062.0688842637846
2180.276211391305 2334.53556394141
2180.8942078803357 2072.383777845538
2181.5120553991 2137.6907740540178
2182.129753982299 2034.1405329650715
2182.7473036646206 2321.0063226600773
2183.3647044807367 2183.897019588343
2183.9819564653044 2068.0795130827482
2184.599059652968 2424.912863318763
2185.216014078367 2388.7920569363573
2185.832819776113 2422.077893713501
2186.4494767808137 2455.304156650688
2187.065985127063 2379.436415462283
2187.682344849436 2121.638139406242
2188.298555982501 2446.2599687590837
2188.9146185608097 2224.3560916716447
2189.530532618901 2205.771429675914
2190.1462981912937 2053.9496881698597
2190.761915312507 2167.2355580603535
2191.377384017036 2207.278481648601
2191.9927043393654 2368.798682565593
2192.6078763139667 1912.7075057198795
2193.2228999753006 1881.1632613545705
2193.837775357808 1849.5882295532888
2194.452502495922 1851.477003621765
2195.0670814240602 2199.925263703321
2195.6815121766285 2095.1935408053314
2196.2957947880186 2062.988049739336
2196.9099292926057 2030.7247254653444
2197.523915724758 2353.277444153521
2198.137754118825 2186.424473686667
2198.7514445091456 2383.1833175233187
2199.3649869300443 2040.9285748272891
2199.9783814158327 2250.591637076962
2200.5916280008096 2749.936109761292
2201.2047267192593 2487.4455452541038
2201.8176776054515 2257.610439956519
2202.430480693649 2154.961363932847
2203.0431360180955 2350.993180962897
2203.6556436130195 2329.0290846073453
2204.268003512645 1925.12549214094
2204.8802157511727 2349.396751613304
2205.492280362796 2449.2500419336734
2206.1041973816937 2123.845319594408
2206.715966842032 2068.077114164883
2207.3275887779655 2107.5200138589857
2207.93906322363 2148.268497087575
2208.550390213153 2216.9639455476963
2209.1615697806465 2179.754955339315
2209.7726019602105 1927.7871063823798
2210.3834867859277 1752.7226410069281
2210.9942242918787 2246.4858117658023
2211.6048145121167 2078.002477887693
2212.2152574806914 2836.358801504989
2212.825553231638 2017.5467385107659
2213.435701798975 2919.6005234564186
2214.045703216707 2091.942489968106
2214.655557518832 1814.4517274938657
2215.2652647393297 1891.2102047311296
2215.874824912169 1756.9344366305154
2216.4842380713 2146.8512149008757
2217.09350425067 2183.6465418177463
2217.7026234842033 2039.7092837545465
2218.311595805819 2260.478958434345
2218.9204212494133 1947.6441622798309
2219.52909984888 2433.0416560975746
2220.137631638092 2409.160460841521
2220.7460166509154 2385.0770919698507
2221.354254921198 2213.8642452973904
2221.9623464827764 2254.6790405233914
2222.5702913694713 1988.140081461826
2223.178089615096 2319.258423152519
2223.7857412534486 2006.2356758528051
2224.39324631831 1969.1988651185814
2225.000604843457 1868.6053697776865
2225.607816862641 2417.1325478309373
2226.214882409611 2205.325983511796
2226.8218015180973 2240.1880040591786
2227.4285742218217 2149.1020404275373
2228.0352005544864 2154.723983655381
2228.6416805497847 1885.1526405775262
2229.248014241399 2019.4189911578146
2229.8542016629945 1739.298191278092
2230.460242848223 2271.023865803357
2231.0661378307304 2453.7154637186904
2231.671886644139 2174.980983010415
2232.277489322065 1958.418082538341
2232.8829458981127 1830.2864816791139
2233.48825640587 2349.3416421683496
2234.0934208789095 2512.452992089443
2234.6984393507955 2534.5294907213665
2235.3033118550793 2424.0561196089084
2235.9080384252975 1913.8222845622556
2236.5126190949723 1799.9669855492928
2237.1170538976166 1906.5966582498281
2237.721342866729 1630.3383384648369
2238.32548603579 2162.8819627257003
2238.9294834382763 2082.613659589554
2239.533335107646 1801.3823188588121
2240.1370410773434 2283.9321190512046
2240.740601380803 2178.551316521145
2241.3440160514474 1967.244662626382
2241.9472851226783 2089.410905365348
2242.550408627896 2124.989369943759
2243.1533866004793 2160.6628963315875
2243.756219073799 2090.2975873257637
2244.3589060812064 2043.4426998237548
2244.961447656049 1912.365317184897
2245.5638438316564 1973.244964709023
2246.166094641343 2155.6087394892775
2246.7682001184166 1907.4286571260163
2247.3701602961664 1986.3984723933067
2247.971975207871 2148.6215864822107
2248.5736448867974 2253.193693129511
2249.175169366197 2131.8961274165017
2249.7765486793123 2245.3577974458503
2250.3777828593684 2183.134320809473
2250.9788719395783 2385.9382180449065
2251.579815953146 2080.36299527636
2252.1806149332606 1854.8707059359817
2252.781268913097 2038.1742005319961
2253.381777925817 1688.2977394897462
2253.9821420045737 2039.1460318888865
2254.5823611825035 2243.8637596215385
2255.1824354927303 1998.328526529837
2255.782364968365 1930.7765261420438
2256.38214964251 1863.1911908398956
2256.9817895482483 1771.5705894791524
2257.5812847186553 1729.41141017562
2258.180635186791 1687.2442759810351
2258.779840985704 2013.4738085392314
2259.37890214843 2012.2207541789533
2259.97781870799 2010.9973342431683
2260.5765906973957 2009.7882174475885
2261.175218149645 2031.204123458653
2261.773701097718 1900.0742810798536
2262.3720395745895 1768.6671846851539
2262.970233613216 1593.1036643648235
2263.568283246548 1810.8634010876842
2264.1661885075137 2051.608729498397
2264.763949429038 1855.9456414579504
2265.3615660440246 2054.4872957321504
2265.959038385374 1893.4523689719067
2266.5563664859637 2071.0863038161724
2267.153550378669 1853.7085286512254
2267.7505900963424 2188.572064306488
2268.3474856718312 1849.3364839409155
2268.9442371379664 1973.1319734587119
2269.5408445275643 1723.3091564813753
2270.1373078734377 1986.4318237033829
2270.7336272083758 2141.5145738352835
2271.32980256516 1912.5592621930286
2271.925833976562 2038.6982204432886
2272.5217214753357 2316.9538129195053
2273.117465094223 1987.4930956031178
2273.7130648659586 1746.5290403636304
2274.308520823257 1943.6807636168421
2274.903832998827 2326.0645253551984
2275.4990014253563 1672.9946192353977
2276.094026135528 2335.1565196372785
2276.6889071620117 1762.6270028702947
2277.2836445374614 2173.8944556339666
2277.878238294519 2070.4469290783004
2278.472688465812 1934.2184834359455
2279.066995083962 1797.7191602253017
2279.6611581815705 1895.1880288926684
2280.255177791232 2099.9282354998154
2280.8490539455233 2305.073375473229
2281.442786677013 2383.218363204095
2282.0363760182554 2315.396447327554
2282.6298220017943 1940.758647353849
2283.223124660155 2203.201539049191
2283.816284025859 1854.4323816395558
2284.4093001314086 1620.5940953667732
2285.002173009292 2285.8958462398587
2285.5949026919952 2053.6181059759474
2286.1874892119777 1976.0096691241422
2286.7799326016993 2050.430762575807
2287.3722328936 1661.2437359563223
2287.964390120109 1721.0847955181573
2288.556404313642 1886.4149099114634
2289.1482755066027 1853.3438571544816
2289.7400037313873 1820.1377156391366
2290.3315890203703 1980.9940277310295
2290.9230314059205 1636.6058279120964
2291.5143309203904 1911.4780535555637
2292.1054875961236 1767.5670572567112
2292.6965014654506 1976.7105546915914
2293.287372560684 2088.0788356875173
2293.878100914131 2317.2344683245783
2294.468686558086 1774.7646422650323
2295.059129524827 1891.2467814590004
2295.649429846617 2383.765687687259
2296.239587555716 2300.232064641501
2296.8296026843636 2008.9641198643826
2297.419475264791 2440.546808791432
2298.0092053292137 2060.665462061451
2298.598792909839 2060.790419050891
2299.1882380388597 1956.7003080822928
2299.777540748455 2029.3850700353582
2300.3667010707904 2102.0378149154367
2300.9557190380256 1957.2753707761244
2301.544594682302 2394.9567792816524
2302.1333280357503 2322.347900741288
2302.721919130485 2249.7022776783356
2303.3103679986198 2255.8952527928022
2303.898674672242 2175.422378781217
2304.486839183437 1761.739589043956
2305.0748615642697 2114.7921845947394
2305.6627418468015 1826.5538727501757
2306.2504800630704 1859.2756915434663
2306.8380762451143 1820.9701756854975
2307.425530424949 1957.4468696323609
2308.012842634582 2094.221563829783
2308.6000129060103 2289.7095662407714
2309.187041271214 2474.2770649352237
2309.773927762164 2041.24620063958
2310.3606724108213 2092.521304295049
2310.9472752491274 1723.3287745686443
2311.5337363090184 2084.588051507299
2312.120055622414 2052.8591329736414
2312.706233221221 1652.8472713674491
2313.2922691373424 1627.039742141001
2313.8781634026564 1825.079882648554
2314.463916049037 2023.5758913402176
2315.049527108342 1935.5573224872192
2315.6349966124235 2161.7575039453195
2316.2203245931123 2271.4129959995566
2316.8055110822315 2122.17882726885
2317.3905561115935 1972.566374319213
2317.9754597129977 2124.4418311640807
2318.560221918229 2276.6739500741173
2319.1448427590603 2033.9492945931718
2319.729322267256 1629.7530067293778
2320.313660474563 2115.3209326671968
2320.8978574127195 2034.039452620688
2321.481913113452 1952.6443921074047
2322.0658276084705 1491.5450009583924
2322.6496009294806 1879.6021483451605
2323.233233108165 2365.8137946522206
2323.8167241762058 2052.474550779724
2324.4000741652617 2187.8251300623406
2324.983283106987 2249.4652289017436
2325.5663510330232 2225.265891359888
2326.1492779749933 2022.2656335008965
2326.7320639645204 2051.182500444379
2327.3147090332004 1659.8599716717085
2327.897213212629 1791.8919355937182
2328.4795765343843 1923.969293965002
2329.0617990300307 1840.6433626137084
2329.643880731124 1870.5517434574235
2330.22582166921 1900.5935951677172
2330.807621875816 1944.36387996128
2331.3892813824623 1449.3219203198619
2331.9708002206517 1793.3715865637073
2332.5521784218818 1819.7589672996007
2333.133416017634 1846.2823082789153
2333.7145130393765 2086.494561044867
2334.295469518571 2022.3001669209195
2334.876285486658 2131.9584875145683
2335.456960975076 1821.8556524597607
2336.037496015242 2058.0925518290906
2336.6178906385667 1933.813851618013
2337.198144876451 2186.2201799789245
2337.778258760278 1922.9099919113032
2338.3582323214214 2029.066794654454
2338.938065591243 2135.4193881267247
2339.517758601087 2196.3329853171326
2340.0973113822965 2126.335262224349
2340.676723966193 1807.7235287139927
2341.255996384094 1847.5614964359822
2341.835128667295 2053.398451966773
2342.4141208470883 2005.3091336510975
2342.992972954751 2035.0679493357788
2343.5716850215467 2182.7601026147117
2344.1502570787306 2025.2461097768833
2344.7286891575386 1867.3292332537033
2345.3069812892045 2166.2459106552533
2345.885133504944 2124.471291453675
2346.4631458359618 1608.8712895373183
2347.04101831345 1839.9284555699364
2347.6187509685915 2175.8166865711582
2348.196343832553 1896.268508120264
2348.7737969364935 1633.841351751426
2349.351110311558 1912.5859543724182
2349.9282839888765 1735.5693227737552
2350.5053179995757 1805.0049476189313
2351.0822123747585 1792.3660778052424
2351.658967145526 2280.813190206069
2352.2355823429643 2260.8810981736274
2352.812057998144 2241.036772236234
2353.3883941421263 1793.530228952854
2353.9645908059647 2245.527934390813
2354.540648020693 2031.4010149184512
2355.116565817336 1820.3862196386563
2355.6923442269126 1921.1892217738828
2356.2679832804224 1640.720936548984
2356.8434830088518 1607.120881343157
2357.41884344318 1916.7325521457449
2357.994064614377 1789.3025513946366
