#exp_cfg={"servo_angle": 0.0, "laser_lim": 100.0, "servo_angle_to": 18.0, "laser_wup": 0.0, "bt_dev": "EnSpectr-25AE3", "laser_wdn_max": 0.0, "frames": 10.0, "servo_used": 0, "servo_calib_use": 0, "laser_wdn_min": 0.0, "servo_pix_from": 90.0, "cooler_tout": 300.0, "servo_angle_from": 0.0, "servo_calib": "[-1.9174921013161362e-09, 3.9322238269163779e-05, -0.27385609119055809, 653.59552119713567]", "laser_autoctl": 0, "servo_pix_to": 3682.0, "laser_pw": 100.0, "cooler_on": 0, "laser_volt": 4.0, "cooler_autoctl": 0, "cooler_curr": 70.0, "cooler_startup": 10.0, "laser_fixed_pw": 0, "gain": 1.3, "offset": 2.53059635486, "servo_calib_degree": 3.0, "laser_curr": 55.0, "shutter": 8200.0, "servo_calib_step": 1.0, "laser_fixed_curr": 0, "exp": 2000.0, "ccd_volt": 4.7, "bt_addr": "00:06:66:62:5A:E3", "servo_delay": 500.0, "laser_autooff": 1}
#proc_cfg={"flat_auto_wnd": 200.0, "flat_auto_fr": 200.0, "flat_auto_shift": 5.0, "yconv": 1, "flatten": 1, "flatten_strength": 100.0, "xfrom": 300.0, "auto_max_frame": 2000.0, "auto_signal": 48000.0, "flat_auto_tol": 0.1, "autoclip": 1, "xrel_range": 0.0, "flat_auto_to": 4000.0, "intensity_adj": 1.0, "xrel": 7852.0, "rmhot": 1, "flat_auto_slit": 4.999999999999997, "auto_ini_exp": 300.0, "auto_off": 0, "xto": 2860.0, "flat_auto_ref": "", "flat_auto_rank": 1, "autobackg": 0, "xrel_adj": 0.0, "auto_black_lvl": 1, "base_wnd": 100.0, "sub_baseline": 0, "xconv": 2, "auto_max_exp": 1000.0, "auto_total_exp": 10000.0, "auto_exp": 0, "rmripple": 0, "black_lvl": 8265.85, "shutter_clip_adj": 0.0, "auto_bckg": 0, "flat_auto_thr": 0.9, "subbackg": 1}
316.8218498245369 24359.410010284562
317.89969571804795 24226.25133347452
318.977263876126 23968.9348825941
320.05455438786703 23874.342935589266
321.1315673423287 23732.433089550017
322.2083028285215 23747.97873400957
323.2847609354267 23554.495756150805
324.3609417519747 23419.661694505663
325.43684536705587 23419.69111637128
326.5124718695279 23154.86732265818
327.58782134820103 23257.54433841631
328.66289389184385 23057.782010493665
329.7376895891921 22877.6705590605
330.8122085289342 22920.712218868146
331.88645079971866 22831.78470828103
332.9604164901575 22651.76639261147
334.03410568881554 22712.228365496732
335.1075184842266 22790.107067490877
336.18065496487543 22421.874459267965
337.2535152192122 22429.711972042896
338.32609933564163 22483.623361033788
339.39840740253203 22373.01023496502
340.4704395082099 22325.711644166637
341.5421957409617 22209.551615481752
342.6136761890357 22326.628523418825
343.6848809406365 22160.97633398178
344.75581008392874 22129.299428637656
345.82646370703696 22029.910768689333
346.8968418980512 21926.600739878377
347.96694474501055 22048.062865721506
349.0367723359268 21952.61380550598
350.106324758759 21859.97616171449
351.1756021014353 21765.9885910171
352.2446044518383 21881.273090658215
353.31333189781435 21906.384911724585
354.38178452716966 21836.109522551596
355.449962427665 21851.40672881226
356.51786568702846 21752.069634004984
357.58549439294256 21951.976734783955
358.6528486330535 21948.114769198895
359.71992849496564 21755.212281434782
360.7867340662433 21832.8416248054
361.8532654344144 21834.082369227755
362.9195226869597 22053.54499728827
363.9855059113288 21799.83140350751
365.05121519492604 21946.54986879101
366.11665062511565 22071.314843023098
367.1818122892273 22033.04483872845
368.2467002745434 22028.045603223123
369.31131466831175 22090.579230746425
370.375655557742 22207.37745727488
371.4397230299983 22101.26643679389
372.5035171722102 22070.66300075347
373.5670380714637 22148.909545714057
374.6302858148101 22276.01434302591
375.6932604892554 22290.225359663065
376.7559621817709 22224.533448216327
377.81839097928605 22053.18578927706
378.8805469686886 22138.330528606304
379.94243023683157 22031.41768337544
381.0040408705263 22039.31085456101
382.0653789565458 22066.175410745665
383.1264445816196 22036.91214653101
384.1872378324406 22090.410655367807
385.2477587956637 22083.811290664093
386.3080075579037 21996.73785108727
387.3679842057336 21792.363924805668
388.4276888256918 21832.113061957123
389.48712150426945 21863.050178288384
390.54628232792857 21814.06332960636
391.6051713830857 21777.39545594367
392.66378875611736 21717.43087585213
393.7221345333637 21797.085860563882
394.7802088011249 21656.064146739598
395.838011645661 21704.062908189564
396.89554315319765 21576.12162318415
397.9528034099112 21433.873064433214
399.00979250194723 21395.607816648546
400.06651051541485 21317.8607861472
401.1229575363741 21370.748799203124
402.17913365085224 21401.218632390246
403.23503894483656 21455.69380394327
404.2906735042761 21207.989473758513
405.3460374150818 21076.12274297548
406.401130763119 21101.44058567286
407.455953634224 21162.022217904385
408.5105061141876 20992.27990677838
409.56478828876243 20823.413951722483
410.6188002436629 20787.39673347968
411.6725420645689 20836.78926965328
412.72601383711117 20864.381013168728
413.77921564689314 21011.001031063042
414.8321475794728 20729.64230506747
415.88480972036814 20660.01871224789
416.93720215506437 20779.614848889374
417.9893249690049 20509.277558418322
419.04117824759123 20590.08493387778
420.09276207619223 20560.800947329382
421.144076540133 20517.595335066224
422.1951217247042 20464.07302535892
423.24589771515275 20523.040016406805
424.2964045966928 20410.826372026808
425.34664245449494 20352.98515857168
426.3966113736933 20352.73262544514
427.4463114393875 20288.315663092544
428.49574273662984 20283.212718408373
429.5449053504417 20248.868145024542
430.5937993658026 20392.52176333941
431.6424248676558 20197.546974871108
432.6907819409007 20268.991681809708
433.73887067040596 20243.057643856802
434.7866911409965 20250.18392551131
435.8342434374608 20279.948967467113
436.88152764455117 20135.828442089594
437.9285438469724 20168.038551994636
438.9752921294057 20042.57582552579
440.02177257648145 20143.835307401234
441.06798527279716 20024.869913533963
442.1139303029122 20112.620461295766
443.1596077513459 20100.88808670292
444.2050177025794 20094.06673054611
445.25016024105753 20144.385695647856
446.2950354511886 19975.295267689842
447.33964341733736 20099.83613417343
448.383984223834 20038.124943956867
449.4280579549686 19939.26584633439
450.471864694995 20049.234246464235
451.5154045281306 20072.352918310546
452.5586775385509 19964.883321618625
453.60168381039693 20035.616793547935
454.64442342776783 20134.176305225443
455.6868964747264 19967.45127773612
456.7291030353008 19941.962239324854
457.77104319347563 20018.182856976
458.8127170332027 19949.38276365669
459.854124638392 19886.391871838645
460.895266092919 19862.800185780958
461.93614148061897 20036.851681952205
462.97675088529104 20052.537802228915
464.01709439069236 19984.84102540365
465.0571720805492 20013.31915318745
466.0969840385442 19971.114439667846
467.1365303483253 20057.31642965947
468.17581109350067 19996.352208576976
469.2148263576437 19968.43076671381
470.2535762242878 20156.501363598007
471.29206077693016 20163.89489536605
472.33028009902773 20225.372147884267
473.3682342740012 20288.280012214924
474.40592338523857 20292.668523497323
475.4433475160804 20522.494576828874
476.4805067498364 20586.329070721065
477.51740116978 20731.515590033003
478.5540308591426 20939.1680436064
479.59039590112116 21132.705848147576
480.6264963788726 21170.157730780797
481.6623323755193 21761.869542003187
482.6979039741436 21794.664395851927
483.7332112577915 22287.149099369573
484.76825430947247 22525.2750269984
485.80303321215797 22851.85444927267
486.837548048783 22991.747984365982
487.8717989022425 23390.105808684333
488.90578585539697 23487.294754897208
489.9395089910686 23688.315565889054
490.97296839203955 23615.53803935466
492.00616414106116 23563.116120695733
493.0390963208429 23532.773901964436
494.0717650140559 23438.43060484437
495.10417030333883 23251.00661699398
496.1363122712901 23017.011819650223
497.16819100046814 22728.83238601799
498.1998065734024 22460.277341281202
499.2311590725767 22196.576945347166
500.26224858044407 21927.003406105265
501.2930751794156 21586.624657821885
502.3236389518679 21323.859425307717
503.35393998014115 21047.036062609266
504.38397834653733 20995.468904880334
505.4137541333221 20835.19035720817
506.4432674227228 20568.182351799354
507.4725182969323 20519.692778157398
508.5015068381035 20400.534827779942
509.53023312835467 20323.90256880214
510.55869724976765 20288.212462741445
511.58689928438434 20200.848641059696
512.6148393142121 20131.43948034016
513.6425174212218 20127.63149507519
514.6699336873462 20192.4589309812
515.6970881944835 20285.456301062794
516.7239810244901 20134.02780435164
517.7506122591931 20123.72319189852
518.7769819803761 20160.659947767213
519.8030902697901 20102.26300607701
520.8289372091476 20130.773961843235
521.8545228801249 20303.987202267483
522.8798473643619 20253.643017426766
523.9049107434621 20214.296331605015
524.9297130989908 20133.285665451967
525.9542545124805 20109.339495347587
526.9785350654201 20183.867371486987
528.0025548392696 20074.020496362624
529.0263139154504 20045.17692996014
530.0498123753423 20092.68806488411
531.073050300296 19977.690310605372
532.0960277716204 19964.53236912503
533.1187448705896 19821.202773075078
534.1412016784416 19739.12503073453
535.1633982763833 19723.73932943595
536.1853347455726 19693.033604919663
537.2070111671401 19497.394748280178
538.2284276221817 19453.945744207267
539.2495841917516 19337.51215988116
540.2704809568677 19249.434448850363
541.2911179985167 19362.533873857756
542.3114953976419 19119.213750944255
543.3316132351592 19119.274531243555
544.3514715919409 18912.012420833074
545.3710705488247 18984.968201044794
546.3904101866156 19042.8611405584
547.4094905860784 19019.18168658483
548.4283118279418 18990.29406721994
549.4468739929034 18918.914726517796
550.4651771616191 18845.45792882694
551.4832214147063 18822.42151908823
552.501006832761 18794.629145470015
553.5185334963226 18876.29340671264
554.5358014859103 18850.442725369747
555.5528108820035 18836.628220178194
556.5695617650363 18697.365023125214
557.5860542154242 18910.65212851865
558.6022883135283 18782.841739921405
559.6182641396881 18673.598019364486
560.6339817741991 18743.032784423885
561.6494412973225 18869.234081847775
562.6646427892883 18834.096753477388
563.6795863302796 18690.78954895253
564.694272000459 18825.84083495661
565.7086998799423 18893.821111526693
566.7228700488104 18898.486212043612
567.7367825871115 18804.44753136897
568.7504375748576 18946.312462161655
569.7638350920224 18905.969821388364
570.7769752185486 19002.43618067243
571.7898580343353 18992.063025691103
572.802483619258 18928.37153102765
573.8148520531431 19184.218778161634
574.8269634157932 19310.301760207298
575.8388177869692 19264.6343607996
576.8504152463938 19456.056347564427
577.8617558737587 19590.33882439345
578.8728397487175 19610.938480976103
579.883666950891 19889.375192487154
580.8942375598654 20058.112633872435
581.9045516551851 20248.996797776304
582.9146093163617 20455.532359412104
583.924410622878 20552.940040360725
584.9339556541727 20580.5007365255
585.9432444896538 20845.089859359614
586.9522772086875 20817.839949181198
587.9610538906127 20761.677780082864
588.9695746147318 20511.344473742647
589.9778394603054 20642.01928537139
590.985848506567 20612.91315175869
591.9936018327098 20436.712565604834
593.0010995178891 20163.356251371333
594.0083416412344 20105.910857225004
595.0153282818283 19821.88643712671
596.0220595187293 19727.227111257835
597.0285354309508 19474.647944436998
598.0347560974806 19428.567299955765
599.0407215972609 19323.113500622938
600.0464320092051 19314.172431458694
601.0518874121954 19341.495439169485
602.0570878850685 19116.612347229704
603.062033506636 19230.17922265885
604.0667243556636 19226.28058661597
605.0711605108936 19161.176014016164
606.0753420510264 19343.505447552765
607.0792690547278 19340.98191698132
608.082941600629 19326.739567934685
609.0863597673306 19267.27731831991
610.0895236333909 19488.96777650576
611.0924332773357 19626.05451467361
612.0950887776617 19814.53195932943
613.0974902128219 19889.393609953277
614.0996376612384 20221.07404818022
615.1015312013005 20340.29237236856
616.1031709113595 20518.565623154846
617.1045568697336 20584.59970594531
618.1056891547069 21087.311187288215
619.1065678445229 21240.183605605132
620.1071930173985 21657.32452433196
621.1075647515099 21877.998463782667
622.1076831250048 22120.747430954783
623.1075482159849 22602.565390007472
624.1071601025305 22891.724817992384
625.1065188626781 23216.10889079005
626.105624574433 23674.12989830973
627.1044773157682 23968.86648904747
628.1030771646128 24065.27744742047
629.1014241988742 24538.29292403986
630.0995184964158 24847.80484336489
631.0973601350688 24869.108093366787
632.0949491926294 25088.157537516934
633.0922857468631 24952.37117140052
634.089369875499 24909.899685165212
635.0862016562278 24831.228317834823
636.0827811667077 24685.250219631453
637.0791084845641 24550.141166264944
638.0751836873878 24374.448459174982
639.0710068527369 24049.759808560128
640.0665780581294 23682.882659827883
641.0618973810506 23337.646305379032
642.0569648989604 23023.592705141655
643.0517806892676 22582.040884068374
644.0463448293649 22317.98575534582
645.040657396592 21925.533537771105
646.0347184682723 21651.648434122595
647.0285281216875 21379.690460594247
648.0220864340772 21085.093546595253
649.0153934826558 20769.540399002115
650.0084493446047 20528.22963546928
651.0012540970674 20383.468349149298
651.9938078171526 20129.03891507327
652.9861105819346 19979.001980285044
653.9781624684565 19848.1497558571
654.9699635537254 19542.819101595036
655.9615139147136 19585.162681615682
656.9528136283589 19364.914837020908
657.9438627715699 19449.48463678736
658.9346614212154 19290.618004368655
659.925209654135 19054.622871174557
660.9155075471263 19009.680650379614
661.9055551769616 19045.55303107063
662.895352620375 18952.908880450574
663.8848999540678 18891.73243160785
664.8741972547068 18703.968721980076
665.863244598926 18755.558203123575
666.8520420633213 18660.369579114667
667.8405897244611 18571.752988053242
668.8288876588758 18454.47659036844
669.8169359430613 18521.151820664152
670.8047346534822 18563.099238030492
671.7922838665672 18486.93020640389
672.7795836587156 18439.54503786115
673.766634106285 18468.33101153669
674.7534352856092 18376.465765381497
675.7399872729766 18388.016387575826
676.7262901446538 18496.72210336917
677.712343976862 18440.00496852531
678.6981488457986 18503.668575529355
679.6837048276229 18400.7954541342
680.6690119984596 18410.30591933028
681.6540704344043 18375.660388584984
682.6388802115107 18261.59101860147
683.6234414058108 18274.223610299654
684.6077540932874 18149.38764854355
685.591818349907 18182.42980617087
686.575634251587 18219.63064478468
687.5592018742263 18055.02769301466
688.5425212936734 18035.099682379336
689.5255925857564 17973.783163526117
690.5084158262707 17986.322837796033
691.4909910909646 17952.564418481932
692.4733184555644 17809.281551124976
693.4553979957618 17874.13078563045
694.4372297872123 17825.78966809053
695.4188139055404 17761.065022409515
696.4001504263324 17737.19017523214
697.3812394251509 17826.422029648467
698.3620809775111 17723.400405748493
699.3426751589104 17750.386263485692
700.3230220448004 17711.8313802769
701.3031217106054 17709.584764032483
702.2829742317172 17789.350346747247
703.2625796834873 17601.97726539862
704.2419381412474 17593.928478962043
705.22104968028 17641.515661145895
706.1999143758458 17616.31282582016
707.178532303169 17547.6003909626
708.1569035374378 17605.89924432547
709.1350281538107 17741.476708282447
710.1129062274158 17722.935817658516
711.0905378333373 17882.84828141489
712.0679230466376 17765.899721250917
713.0450619423427 17919.75094608098
714.0219545954424 18019.067310334372
714.9986010808989 18023.616635725324
715.9750014736292 18125.579005102867
716.9511558485392 18321.61227146096
717.9270642804786 18352.415282218728
718.9027268442787 18412.288104960662
719.8781436147328 18447.080078038234
720.8533146666014 18372.63049568126
721.828240074612 18357.798294194712
722.8029199134635 18287.515400463686
723.7773542578125 18345.919228088063
724.751543182294 18152.507240266117
725.7254867615029 18029.079374939414
726.6991850700015 17915.21258242591
727.6726381823228 17920.975068777854
728.6458461729599 17951.49810144307
729.6188091163858 17833.881841375005
730.5915270870246 17780.70876154169
731.5640001592856 17686.783177593585
732.536228407529 17819.253120090965
733.5082119060917 17678.61702047984
734.4799507292755 17666.702375605513
735.4514449513481 17657.47020645356
736.4226946465496 17691.148020730874
737.3936998890786 17755.9775798543
738.3644607531078 17656.962891647334
739.3349773127793 17591.88115841631
740.3052496421951 17741.6203570437
741.27527781543 17467.43874223466
742.2450619065221 17511.021178965533
743.2146019894826 17478.152504454414
744.183898138288 17471.33774836104
745.1529504268801 17438.82775350252
746.1217589291682 17273.022597816496
747.0903237190341 17175.9123417046
748.058644870318 17383.846075054385
749.0267224568397 17137.08770111358
749.994556552374 17105.090840333945
750.9621472306771 17057.367311071757
751.9294945654583 17117.934632540488
752.8965986304011 17136.001198926297
753.8634594991636 17171.70080995229
754.8300772453586 17223.712801577363
755.7964519425768 17246.448241481696
756.762583664371 17206.27064047014
757.7284724842611 17161.547321295475
758.6941184757416 17200.711838454103
759.6595217122667 17156.71583422045
760.6246822672638 17173.696435737635
761.5896002141235 17098.058902619967
762.5542756262093 17199.506294791823
763.5187085768503 17277.39328229848
764.4828991393406 17144.29680389951
765.4468473869474 17200.474369696054
766.4105533929032 17051.356362090635
767.3740172304078 16916.131318606516
768.3372389726283 17014.109513219482
769.3002186926988 16883.746738978996
770.2629564637282 16820.368592144743
771.2254523587872 16820.913791847128
772.1877064509154 16600.919663974113
773.1497188131179 16624.659643650095
774.1114895183728 16409.27486379318
775.0730186396268 16485.257697071345
776.0343062497905 16376.195801285308
776.9953524217381 16426.93401128757
777.9561572283274 16331.408813338645
778.9167207423689 16333.443286978005
779.8770430366476 16365.946457208702
780.8371241839159 16259.703358441751
781.7969642568951 16304.10276196588
782.7565633282757 16518.574806150817
783.7159214707099 16375.737422256658
784.6750387568281 16408.91417389462
785.6339152592227 16411.005101819334
786.5925510504512 16248.282938623883
787.5509462030477 16216.952462627556
788.5091007895098 16370.20983338438
789.4670148823006 16334.011731573593
790.4246885538596 16309.24225667142
791.3821218765861 16278.542922169567
792.3393149228505 16279.855614567272
793.2962677649975 16388.300763526135
794.2529804753303 16522.611181900364
795.20945312613 16389.293466843115
796.1656857896378 16463.804263191418
797.1216785380675 16524.74582085961
798.0774314435985 16759.845782308883
799.0329445783846 16839.542069902345
799.9882180145414 16955.061675703026
800.9432518241574 16895.45571329952
801.89804607929 17088.022154863913
802.852600851962 17274.298355086044
803.8069162141637 17364.88170585319
804.760992237856 17468.24265621883
805.714828994971 17498.625975237344
806.6684265574077 17738.506526536807
807.6217849970271 17512.262132234864
808.574904385674 17525.23723736794
809.527784795142 17579.836723670338
810.4804262972102 17551.930255573192
811.4328289636178 17348.14661244648
812.3849928660748 17052.26849228111
813.3369180762638 17058.89124060318
814.2886046658241 16943.515872517753
815.2400527063783 16711.841289390766
816.1912622695108 16613.48457854891
817.1422334267718 16641.859421092646
818.0929662496856 16322.840119031569
819.0434608097457 16150.214964016286
819.9937171784059 16132.913807569985
820.9437354271013 15915.123776099135
821.8935156272255 15991.764786811551
822.8430578501484 15831.437319308743
823.7923621672016 15641.591666503376
824.7414286496896 15792.584412054512
825.6902573688876 15647.659474339851
826.6388483960363 15617.973694716851
827.5872018023492 15471.774021249232
828.5353176590033 15587.46756838967
829.4831960371503 15474.264043934838
830.4308370079016 15485.468964802723
831.3782406423525 15522.00136582012
832.3254070115545 15499.05237689222
833.2723361865319 15321.59513285809
834.2190282382799 15442.298752720377
835.1654832377644 15487.27179374115
836.1117012559116 15333.465535401256
837.0576823636256 15478.669161149763
838.003426631778 15375.516987686142
838.9489341312074 15167.603413235824
839.8942049327197 15394.235599162566
840.8392391070975 15398.97160342558
841.7840367250865 15388.484990393936
842.7285978573982 15238.437682463531
843.672922574724 15437.520481832878
844.6170109477152 15356.484403508937
845.560863046996 15320.46910429902
846.5044789431595 15376.742695870878
847.4478587067697 15323.922861808267
848.3910024083561 15393.60147438748
849.333910118421 15334.288851957328
850.2765819074339 15234.669462157934
851.2190178458332 15468.217668947069
852.161218004032 15337.062457641616
853.1031824524016 15397.573548342014
854.0449112612987 15265.605089480028
854.9864045010327 15492.776727452598
855.9276622418947 15196.093778225879
856.8686845541379 15279.186543563099
857.8094715079915 15258.134597466676
858.7500231736467 15431.701272511176
859.690339621271 15358.151926142178
860.6304209209939 15478.492611770635
861.5702671429244 15230.793010803955
862.5098783571284 15433.348475671839
863.4492546336569 15449.327252912664
864.3883960425155 15437.26697097464
865.3273026536863 15410.621937999065
866.2659745371238 15545.575953895523
867.2044117627465 15737.79081175426
868.1426144004472 15651.081943123256
869.0805825200823 15746.034460821023
870.0183161914847 15846.658103911386
870.9558154844526 15967.20363540736
871.8930804687552 15977.703182481497
872.8301112141307 15989.332669997302
873.7669077902865 16166.154807451812
874.7034702669062 16190.920531918524
875.6397987136315 16271.035364029865
876.5758932000863 16413.441676486007
877.5117537958522 16552.03329827255
878.4473805704911 16457.658244537197
879.3827735935283 16447.630761192435
880.3179329344603 16552.741536273963
881.2528586627541 16596.60540314688
882.1875508478479 16674.32989646663
883.1220095591489 16502.616364137837
884.0562348660296 16459.19715646645
884.9902268378391 16608.61014404105
885.9239855438955 16452.689845847857
886.8575110534839 16401.956391652773
887.7908034358588 16372.798996956477
888.7238627602474 16291.398749257176
889.6566890958475 16184.58501401771
890.5892825118208 15962.331401529333
891.5216430773125 15917.575732628431
892.4537708614189 15888.309316145274
893.3856659332196 15729.782146697567
894.3173283617652 15587.406495976791
895.2487582160684 15557.137289908813
896.179955565116 15451.592817197155
897.110920477864 15342.959013614367
898.0416530232451 15264.758900790956
898.9721532701478 15126.625043158274
899.9024212874428 15251.482439495132
900.8324571439662 14990.740786578512
901.7622609085302 15038.74116256021
902.6918326499072 14874.873822957074
903.6211724368477 15042.99527624186
904.5502803380696 14951.127665696073
905.4791564222614 15091.568235685292
906.4078007580792 14902.62788252567
907.3362134141571 14896.464395111
908.2643944590909 14809.122992588873
909.1923439614493 14842.827014984006
910.1200619897754 14775.151725596816
911.0475486125779 14895.416198647348
911.9748038983344 14810.762170838678
912.9018279155007 14820.802311373107
913.8286207324982 14615.299508020404
914.7551824177117 14675.585952291754
915.6815130395116 14692.272956540319
916.6076126662283 14593.009040343892
917.533481366163 14647.150275134822
918.4591192075914 14666.260276957177
919.3845262587565 14709.306756251073
920.3097025878706 14544.91572320319
921.2346482631237 14524.863426803659
922.1593633526682 14621.051557107528
923.0838479246304 14646.938244762434
924.0081020471061 14692.820238989943
924.9321257881656 14512.741911118172
925.8559192158464 14596.915927218226
926.7794823981512 14524.407552418945
927.7028154030686 14457.231298974322
928.6259182985414 14380.452923075214
929.5487911524906 14610.201309666134
930.4714340328119 14508.234684177154
931.3938470073608 14355.653958967141
932.3160301439748 14573.791486016056
933.2379835104548 14535.546038347218
934.1597071745709 14521.92031518021
935.0812012040769 14566.88789330563
936.002465666681 14426.52813295805
936.9235006300696 14533.639905502696
937.8443061619055 14513.490562474984
938.7648823298077 14402.60111318163
939.6852292013809 14462.241364762935
940.6053468441951 14551.24191858735
941.5252353257874 14414.78473999938
942.4448947136698 14535.162759930527
943.364325075323 14466.722964177588
944.2835264782043 14536.596760900178
945.2024989897309 14439.623420247506
946.1212426773054 14472.026663763743
947.0397576082851 14488.837185777476
947.9580438500125 14548.242281716084
948.8761014697939 14569.755576368614
949.7939305349064 14541.267410233835
950.7115311125999 14424.947011092507
951.6289032700952 14573.652493784286
952.5460470745875 14480.374175643748
953.4629625932339 14511.572744849263
954.3796498931715 14608.703452702332
955.2961090415029 14484.116502739056
956.2123401053068 14413.464998469604
957.1283431516276 14437.129601995237
958.0441182474842 14412.138056500198
958.9596654598663 14649.629676892879
959.8749848557309 14377.053030178049
960.7900765020167 14421.448688435188
961.7049404656209 14374.029856231922
962.6195768134185 14495.582597439052
963.5339856122537 14509.614048964339
964.4481669289453 14522.014031466702
965.3621208302793 14292.148778441668
966.2758473830145 14391.327013228638
967.1893466538822 14431.96570409083
968.1026187095813 14393.342207969783
969.0156636167867 14372.039231137333
969.9284814421426 14472.20401048147
970.8410722522622 14391.070865338697
971.753436113735 14362.071400355508
972.6655730931161 14337.266214777454
973.5774832569368 14407.391270468794
974.4891666716958 14301.709239045744
975.4006234038698 14409.94881295416
976.3118535198955 14356.536659626854
977.2228570861935 14499.198280519111
978.1336341691494 14460.34138652642
979.0441848351202 14446.75285108691
979.9545091504333 14399.139506267707
980.864607181391 14574.49174084595
981.7744789942699 14506.694088711058
982.6841246553086 14592.53865303839
983.5935442307236 14601.51832154539
984.5027377867027 14601.062566127337
985.4117053894024 14654.93164469435
986.3204471049557 14661.711154862098
987.2289629994648 14665.797977994309
988.1372531390007 14810.369661683184
989.0453175896091 14666.291821547866
989.9531564173067 14730.06032007538
990.860769688079 14722.121100732304
991.7681574678918 14905.298209425378
992.6753198226706 14994.095555908472
993.582256818323 15027.931506601113
994.4889685207218 14983.44665291607
995.3954549957143 15273.066008653914
996.301716309119 15106.567642261492
997.2077525267232 15220.210475425716
998.1135637142943 15129.452535446695
999.0191499375615 15359.869002176729
999.924511262232 15181.350740562964
1000.8296477539861 15315.00228595854
1001.7345594784656 15248.203353996369
1002.6392465012996 15256.223134004671
1003.5437088880753 15128.300981843155
1004.4479467043584 15120.279639103417
1005.3519600156869 15041.48387987011
1006.2557488875718 15046.24965881257
1007.1593133854858 14968.263511635974
1008.0626535748888 15081.20161495565
1008.9657695212009 14878.353043734887
1009.8686612898182 15106.063750443107
1010.7713289461135 14989.10706111536
1011.6737725554212 14978.14431711233
1012.5759921830577 14857.305571216153
1013.4779878943027 14920.060496960257
1014.379759754418 14815.898545843738
1015.2813078286254 14766.27819992642
1016.18263218213 14598.58809585917
1017.0837328801026 14677.851504435373
1017.9846099876886 14765.879572092399
1018.8852635700023 14586.119559434117
1019.7856936921362 14437.495613391624
1020.6859004191447 14575.813872160457
1021.5858838160675 14443.666579707624
1022.4856439479063 14281.07299502545
1023.3851808796389 14353.06773025227
1024.2844946762143 14439.707045712144
1025.183585402554 14298.696807168055
1026.082453123554 14157.261855115761
1026.9810979040776 14200.468128227445
1027.8795198089647 14195.932556498421
1028.777718903024 14213.923450806
1029.6756952510368 14180.035877690581
1030.5734489177648 14072.770376040196
1031.4709799679313 14161.347301557314
1032.3682884662358 14259.022326991977
1033.2653744773506 14141.06018517226
1034.1622380659192 14106.561624714188
1035.058879296559 14216.062055285214
1035.9552982338591 14253.23564142013
1036.8514949423825 14192.251448900894
1037.7474694866614 14131.771843864379
1038.6432219312028 14302.688643846157
1039.5387523404825 14300.569493600557
1040.4340607789582 14255.711588342374
1041.3291473110476 14278.284192511765
1042.2240120011465 14434.058820403723
1043.1186549136273 14440.37240998413
1044.0130761128294 14467.756860769101
1044.9072756630649 14602.54018637393
1045.8012536286205 14653.393002237985
1046.6950100737577 14456.385838867576
1047.588545062701 14693.443838571597
1048.481858659663 14567.753663718022
1049.3749509288118 14703.080765686438
1050.2678219343034 14564.964464178114
1051.1604717402515 14683.444441227708
1052.0529004107575 14527.75598799313
1052.9451080098825 14683.852076828469
1053.8370946016694 14588.361046539776
1054.7288602501267 14654.617023520803
1055.6204050192446 14526.695338795398
1056.511728972977 14707.216309586229
1057.402832175254 14719.760273216729
1058.2937146899785 14622.886978804347
1059.1843765810263 14629.673788076156
1060.0748179122456 14672.895822728242
1060.9650387474576 14499.820257246643
1061.855039150456 14649.324565134031
1062.7448191850071 14681.644170476331
1063.6343789148505 14723.476798663609
1064.5237184037014 14631.483694435494
1065.412837715241 14501.28117094652
1066.3017369131267 14529.295548520566
1067.190416060992 14609.882992524956
1068.0788752224398 14466.047792455565
1068.9671144610438 14568.792795916412
1069.8551338403558 14539.532989800422
1070.7429334239023 14750.825026038505
1071.6305132751695 14431.362916888693
1072.517873457633 14518.307781632378
1073.4050140347335 14359.263994525882
1074.2919350698776 14563.510056340592
1075.1786366264623 14449.653454720445
1076.0651187678395 14561.193456430055
1076.95138155735 14212.076907907627
1077.8374250582929 14306.812228253277
1078.7232493339507 14264.993163572246
1079.608854447577 14236.037939023518
1080.4942404623907 14090.234215081678
1081.3794074415982 14341.058905908667
1082.2643554483657 14144.332400695183
1083.149084545841 14132.111643326924
1084.033594797138 13976.72874319934
1084.9178862653516 14086.836649319997
1085.8019590135427 14033.053843797341
1086.6858131047484 13990.424849772675
1087.5694486019802 13980.84672054353
1088.4528655682225 14011.790424178267
1089.3360640664287 13971.028424708862
1090.2190441595321 13773.611770106803
1091.1018059104317 13868.189395758756
1091.98434938201 13880.165143850052
1092.866674637111 13800.85608150144
1093.748781738559 13926.422984910449
1094.6306707491512 13813.704840399112
1095.5123417316554 13753.870909117202
1096.3937947488157 13717.630743333993
1097.2750298633455 13624.205200019973
1098.156047137938 13674.405694330413
1099.0368466352556 13700.734314460913
1099.9174284179317 13699.00870306657
1100.7977925485757 13623.28041569957
1101.6779390897755 13654.538312746145
1102.5578681040806 13703.838611913612
1103.4375796540226 13607.782773172668
1104.3170738021054 13741.722017749777
1105.1963506108077 13659.030985648791
1106.0754101425773 13699.035356194494
1106.9542524598382 13696.59499469343
1107.8328776249855 13696.850967057926
1108.7112857003904 13644.550789478511
1109.5894767483987 13729.012321390843
1110.4674508313292 13865.567172078585
1111.3452080114657 13800.32014342184
1112.2227483510815 13908.416133437126
1113.1000719124077 13989.377974900834
1113.9771787576592 14178.326192742763
1114.854068949022 14234.789066838584
1115.7307425486542 14194.563777370462
1116.6071996186893 14442.104648278479
1117.483440221229 14694.40417550786
1118.3594644183577 14695.503887595716
1119.235272272128 14749.078239163573
1120.1108638445658 15056.957321459447
1120.9862391976712 15336.340614148308
1121.8613983934229 15340.831940965232
1122.7363414937627 15257.75222899077
1123.6110685606182 15636.847739003459
1124.485579655884 15610.62068145924
1125.359874841426 15741.314749909641
1126.2339541790916 15769.20787646362
1127.1078177306936 16061.66979458465
1127.9814655580267 15794.241404515367
1128.854897722851 16118.606962334303
1129.7281142869106 16052.165301879042
1130.6011153119125 16191.042837407378
1131.473900859548 16129.947135311533
1132.3464709914697 16120.841360680837
1133.2188257693178 15887.390848317833
1134.0909652546961 15975.926585003075
1134.96288950919 15801.44345622673
1135.8345985943506 15665.448010996139
1136.7060925717087 15498.4875955642
1137.57737150277 15564.8704841236
1138.4484354490069 15289.772773187258
1139.3192844718778 15098.493717970941
1140.1899186327992 14929.242687450804
1141.060337993178 15063.115033652784
1141.930542614382 14701.521566359788
1142.8005325577597 14741.18696573156
1143.670307884635 14362.264014289267
1144.5398686563003 14545.247679286409
1145.409214934025 14119.471324701299
1146.2783467790541 14124.102043449511
1147.1472642526023 13903.807864117392
1148.0159674158622 13941.856302495595
1148.8844563300026 13676.38903116569
1149.7527310561618 13597.71941896038
1150.6207916554504 13502.798636225325
1151.4886381889592 13525.384654468658
1152.3562707177498 13458.948638041431
1153.2236893028585 13502.690295514785
1154.090894005296 13258.491279091493
1154.9578848860474 13447.806609406503
1155.8246620060709 13271.21781940991
1156.6912254262988 13171.644401507601
1157.5575752076438 13108.957466262911
1158.42371141098 13352.344977942843
1159.2896340971656 13203.423883892221
1160.1553433270346 13099.220077708786
1161.0208391613887 13219.328242522597
1161.8861216610057 13154.862303069447
1162.75119088664 13138.514205110832
1163.6160468990201 12987.927340300459
1164.4806897588442 12999.4308743502
1165.3451195267917 13212.25463848655
1166.2093362635114 13078.686667245205
1167.0733400296285 13004.084764140722
1167.9371308857444 12903.768464516843
1168.8007088924278 13094.186778409088
1169.6640741102328 12955.67072931709
1170.5272265996773 12882.116354709742
1171.390166421259 12680.785799409812
1172.252893635452 13123.057089074593
1173.1154083026995 13066.87180318426
1173.977710483421 13072.829382552492
1174.8398002380145 12848.748264141392
1175.7016776268483 13088.477851459014
1176.563342710264 13005.46265102089
1177.4247955485826 12866.349861588958
1178.2860362020947 13041.209560248488
1179.147064731069 13031.051578485483
1180.0078811957483 13009.435782419005
1180.8684856563486 13007.626558706743
1181.7288781730604 13103.758086204714
1182.589058806052 13243.785230491816
1183.4490276154593 13390.080684818575
1184.3087846614017 13359.827357171607
1185.1683300039676 13312.580409368593
1186.027663703222 13509.019158369007
1186.8867858192025 13415.254956936453
1187.7456964119228 13500.184904925398
1188.6043955413716 13563.961143229471
1189.4628832675116 13725.257178263093
1190.3211596502842 13669.761831345333
1191.179224749596 13871.859086914066
1192.0370786253388 13687.945183715667
1192.8947213373758 13926.522363179398
1193.7521529455407 14031.26438226118
1194.6093735096438 13843.663113525748
1195.466383089477 13913.875380230678
1196.3231817447977 14061.140563414796
1197.1797695353398 14003.863498843706
1198.0361465208189 13983.451471041024
1198.8923127609214 13961.225560669496
1199.7482683153048 14045.324770564781
1200.6040132436028 14138.783359591605
1201.459547605431 14026.126078070447
1202.3148714603722 13773.394428181744
1203.1699848679855 13958.407946959114
1204.0248878878065 13842.672498158656
1204.8795805793507 13679.999563228781
1205.7340630020935 13755.463545362238
1206.5883352155033 13855.531098637532
1207.4423972790064 13642.622083019087
1208.2962492520237 13529.329157341863
1209.1498911939307 13459.736741071898
1210.0033231640937 13563.12294498813
1210.8565452218427 13362.228896240955
1211.7095574264913 13274.838051652225
1212.5623598373222 13224.524708452625
1213.4149525135963 13176.185313756334
1214.2673355145507 13107.334716645113
1215.1195088993936 12911.58849705749
1215.9714727273113 12955.659903973881
1216.8232270574663 13117.637364309838
1217.6747719489904 12748.386099322812
1218.5261074609934 12842.074535542011
1219.3772336525653 12743.009728555186
1220.2281505827668 12932.367360151928
1221.0788583106296 12786.285513603238
1221.9293568951707 12663.150919946096
1222.7796463953746 12655.054732631539
1223.629726870202 12716.589549346321
1224.4795983785934 12767.395399693098
1225.3292609794553 12571.777314739222
1226.1787147316809 12515.48748384329
1227.0279596941327 12643.350546572383
1227.8769959256424 12596.959326686374
1228.7258234850306 12689.718093371619
1229.5744424310833 12480.407827464727
1230.422852822563 12645.544279268572
1231.2710547182105 12702.985597800589
1232.119048176739 12582.893792083289
1232.9668332568417 12448.107714080714
1233.8144100171812 12653.373723941155
1234.6617785163999 12633.918931219914
1235.508938813111 12579.849173878503
1236.3558909659114 12556.477491889831
1237.2026350333617 12736.226740346683
1238.049171074008 12655.37659707083
1238.8954991463652 12558.049106081817
1239.741619308932 12549.50243535305
1240.587531620169 12692.140639915717
1241.4332361385277 12501.96518581311
1242.2787329224248 12511.792140875457
1243.1240220302534 12477.1651918729
1243.9691035203869 12522.396549430026
1244.813977451171 12623.849059633167
1245.6586438809263 12688.729692020375
1246.5031028679496 12399.904541846157
1247.3473544705157 12722.216814743084
1248.1913987468706 12505.147011945499
1249.0352357552383 12522.411550878433
1249.8788655538228 12520.072564922546
1250.7222882007918 12535.040802095358
1251.565503754302 12571.17523261212
1252.4085122724755 12566.392653180597
1253.2513138134182 12555.988435732048
1254.0939084352049 12614.72214133284
1254.9362961958905 12638.628207803034
1255.7784771535007 12571.401182568417
1256.6204513660432 12692.787379555197
1257.4622188915 12752.166896511759
1258.3037797878242 12630.096138288145
1259.1451341129468 12603.608830865167
1259.9862819247755 12626.915194234469
1260.8272232811978 12534.268004995072
1261.6679582400666 12576.303257641648
1262.5084868592203 12390.883588482064
1263.34880919647 12283.061854824944
1264.1889253095997 12514.737993303872
1265.0288352563712 12415.207727577237
1265.8685390945266 12417.446558970425
1266.7080368817751 12388.403321095675
1267.5473286758115 12387.984959092313
1268.386414534294 12469.82681432043
1269.2252945148703 12293.410955458763
1270.0639686751547 12279.837536818455
1270.9024370727402 12324.052058988955
1271.7406997651997 12168.921903921067
1272.5787568100714 12263.31611368123
1273.4166082648808 12220.107043328355
1274.2542541871244 12281.977784086408
1275.091694634275 12227.393318781662
1275.9289296637817 12134.81758532191
1276.7659593330663 12149.835713575862
1277.6027836995308 12100.774581256814
1278.4394028205552 12070.318394075326
1279.2758167534867 12079.049952993073
1280.112025555658 12117.562660792082
1280.9480292843746 12125.882105462593
1281.7838279969128 11986.923787444217
1282.6194217505326 11912.35029934094
1283.4548106024686 11737.39384109172
1284.289994609926 11962.561167934578
1285.1249738300921 12077.128336125466
1285.959748320127 11903.202699525908
1286.7943181371702 11987.063056182893
1287.6286833383328 12032.631186138666
1288.4628439807038 12003.48093029199
1289.2968001213521 11834.1357122984
1290.1305518173194 11909.05322139152
1290.9640991256183 12096.351599514968
1291.7974421032523 11933.48424910152
1292.630580807183 11980.626358432575
1293.463515294361 11944.019868968293
1294.29624562171 11956.526803085268
1295.12877184613 11828.477913190307
1295.961094024493 12007.702641889719
1296.79321221365 11912.017317568118
1297.6251264704333 12025.351910358779
1298.4568368516466 12155.701316312696
1299.2883434140658 12127.301256907884
1300.1196462144526 12032.430690298266
1300.9507453095375 12094.336901405451
1301.7816407560313 12106.266664109906
1302.6123326106172 12175.975742630206
1303.4428209299622 11936.716010891814
1304.2731057707024 12379.628420493962
1305.1031871894502 11990.884613543192
1305.933065242798 12152.418360423055
1306.7627399873181 12040.729846540573
1307.5922114795467 12588.305358098125
1308.4214797760123 12503.867374747906
1309.2505449332057 12215.03342428511
1310.0794070076026 12334.570563848265
1310.9080660556538 12583.4339116397
1311.736522133786 12394.383241585518
1312.5647752983987 12463.561951303613
1313.3928256058734 12201.12888998682
1314.2206731125661 12339.332287675195
1315.048317874809 12369.358778186377
1315.8757599489109 12427.701126114554
1316.7029993911547 12472.033714454517
1317.5300362578055 12737.635960495161
1318.356870605101 12372.808502952867
1319.183502489257 12421.183419926758
1320.0099319664623 12623.18244990507
1320.836159092889 12561.539087512745
1321.66218392468 12498.637492880385
1322.4880065179532 12619.149457773958
1323.3136269288134 12484.334827829787
1324.1390452133292 12659.548597294688
1324.9642614275563 12581.434991573806
1325.7892756275214 12676.781450711249
1326.6140878692295 12503.573734995898
1327.4386982086617 12756.113316173723
1328.2631067017755 12624.201276634783
1329.0873134045069 12581.393272442449
1329.911318372764 12470.340222720197
1330.735121662441 12506.357105747986
1331.558723329399 12410.772332604236
1332.3821234294774 12471.361826696837
1333.2053220185007 12408.187315335164
1334.0283191522612 12599.741663867784
1334.851114886529 12619.104939402707
1335.6737092770582 12384.94673072343
1336.4961023795695 12426.207684520226
1337.3182942497697 12335.209832431825
1338.1402849433325 12538.784981679757
1338.962074515921 12265.117211672708
1339.7836630231632 12052.140278620713
1340.6050505206676 12528.113691409553
1341.426237064028 12452.6442775663
1342.2472227088037 12484.030387438705
1343.0680075105338 11991.27334963408
1343.888591524741 12194.091172966704
1344.7089748069138 12394.082672058317
1345.5291574125276 12045.623317347747
1346.3491393970307 11943.431347197362
1347.168920815846 12170.059694182735
1347.9885017243778 12095.705980474995
1348.8078821780036 12087.629013069058
1349.6270622320844 12094.44302277555
1350.4460419419447 12176.590484533157
1351.2648213629054 12147.789745896365
1352.0834005502438 12056.889782239143
1352.90177955923 11971.713374499943
1353.7199584451064 12171.097708003359
1354.5379372630887 12069.631618051968
1355.355716068374 12006.014910775659
1356.1732949161305 11969.914473964704
1356.9906738615155 12038.894881854092
1357.8078529596478 12111.034261198316
1358.6248322656375 12040.47621513549
1359.441611834567 11868.760511907032
1360.2581917214866 12254.191252219689
1361.0745719814367 11898.525526800457
1361.890752669433 11911.37424115343
1362.7067338404577 11984.161634649212
1363.5225155494845 11951.776141500577
1364.3380978514506 12126.027862194342
1365.1534808012839 11897.874898544449
1365.9686644538815 11778.52579230662
1366.783648864117 12065.941059831563
1367.5984340868417 11924.684884792241
1368.413020176893 11989.178033843302
1369.2274071890715 11826.120013083617
1370.0415951781652 11945.490794184148
1370.8555841989346 11833.260115762245
1371.6693743061223 11707.100969036179
1372.48296555444 11733.664548313267
1373.2963579985844 11883.550141952193
1374.1095516932255 11660.52209371917
1374.9225466930166 11664.33144626429
1375.7353430525782 11540.225130356963
1376.5479408265164 11595.960272706652
1377.36034006941 11685.513853848077
1378.1725408358216 11679.618544740504
1378.9845431802805 11546.506362767219
1379.796347157304 11820.366534433693
1380.6079528213813 11704.837880314326
1381.4193602269788 11509.87376469192
1382.230569428546 11567.072772470043
1383.0415804805016 11652.220472060402
1383.852393437246 11670.344670740209
1384.6630083531563 11726.625433330952
1385.4734252825892 11450.884045059343
1386.2836442798798 11714.368845977975
1387.0936653993322 11564.90589710907
1387.9034886952395 11495.240418388463
1388.713114221864 11575.979420635378
1389.5225420334482 11485.308160015924
1390.331772184214 11468.697245911186
1391.1408047283585 11331.13173507535
1391.9496397200564 11291.95004707581
1392.758277213461 11661.070100387858
1393.5667172627054 11523.928102692053
1394.3749599218918 11295.724118665827
1395.1830052451114 11210.302558257446
1395.9908532864265 11399.21431812495
1396.7985040998774 11565.976328353314
1397.6059577394808 11328.84085211845
1398.4132142592352 11254.466828483126
1399.2202737131156 11374.59437784871
1400.027136155073 11364.28535498448
1400.8338016390353 11303.25737776433
1401.6402702189134 11294.130465856251
1402.446541948586 11294.322451999607
1403.2526168819204 11161.111492099259
1404.058495072757 11226.545899862083
1404.8641765749107 11205.305270385299
1405.6696614421799 11187.69474034842
1406.4749497283356 11312.290201701118
1407.280041487129 11008.159608392381
1408.084936772295 10757.140523150065
1408.8896356375335 11039.862408970155
1409.6941381365323 11095.90140845943
1410.498444322955 10814.771305236369
1411.3025542504402 10830.87792372735
1412.106467972606 10930.65094367878
1412.9101855430508 10923.267434134974
1413.7137070153458 10690.703074483423
1414.5170324430437 10597.447733830639
1415.320161879672 10727.459409220757
1416.1230953787435 10952.23172493743
1416.925832993742 10630.186692574927
1417.7283747781275 10355.697211986346
1418.5307207853439 10698.405822157716
1419.3328710688093 10508.825019527134
1420.134825681922 10349.541748875632
1420.9365846780584 10366.066611199312
1421.7381481105713 10508.547084653492
1422.539516032788 10462.608727334049
1423.3406884980232 10199.740351311995
1424.1416655595604 10184.287882891893
1424.942447270665 10266.980066276004
1425.7430336845828 10257.20548869111
1426.5434248545298 10170.156592026928
1427.3436208337116 10302.36033034062
1428.143621675301 10450.32547671635
1428.9434274324558 10370.524943519225
1429.7430381583108 10065.703566484657
1430.5424539059713 10112.813030536516
1431.3416747285337 10502.349301662167
1432.1407006790632 10145.79209819181
1432.9395318106053 10178.704416988276
1433.7381681761835 10120.263374447433
1434.5366098288014 10053.533635659282
1435.3348568214424 10161.447461840082
1436.1329092070573 10127.889321958954
1436.9307670385879 9965.574372095525
1437.7284303689503 10248.725622972966
1438.5258992510335 10328.954362347713
1439.3231737377118 10160.482302881292
1440.1202538818306 10122.166710309433
1440.9171397362225 10080.216094827412
1441.7138313536925 9993.51583968115
1442.5103287870243 9951.298398628014
1443.3066320889775 9900.43833457197
1444.1027413122956 10185.290449675562
1444.8986565096966 10009.39635176341
1445.694377733882 9884.796397002474
1446.4899050375207 9846.571876889568
1447.2852384732687 9754.374649943598
1448.0803780937622 10024.441374966711
1448.8753239516063 9841.593686630107
1449.6700760993954 9642.507521975027
1450.464634589689 9726.038603283208
1451.2589994750397 9896.46768200369
1452.0531708079689 9718.741646508659
1452.8471486409799 9699.288288130589
1453.6409330265524 9935.470073370761
1454.4345240171442 9687.691927923215
1455.2279216651987 9711.856434652997
1456.0211260231263 9750.57146115757
1456.8141371433194 9728.080144795
1457.6069550781594 9820.984156021937
1458.3995798799897 9663.069516999098
1459.1920116011424 9742.929581174221
1459.98425029393 9734.044105450132
1460.7762960106338 9671.557747343464
1461.5681488035225 9637.898578842454
1462.3598087248392 9667.982430484763
1463.1512758268036 9799.851226829178
1463.942550161617 9716.693711850998
1464.7336317814625 9530.721337348847
1465.524520738496 9614.712027869507
1466.3152170848552 9633.421840964242
1467.1057208726506 9649.19196374815
1467.8960321539817 9536.173012236366
1468.6861509809169 9400.437046448436
1469.4760774055085 9437.38726342496
1470.265811479785 9667.750092325412
1471.055353255755 9433.163458689636
1471.844702785409 9383.376751449849
1472.6338601207044 9510.676045866985
1473.4228253135934 9929.441207306209
1474.2115984159936 9503.714626043115
1475.0001794798063 9251.471080673895
1475.7885685569145 9689.69869130506
1476.576765699172 9613.073993982694
1477.3647709584238 9434.676687692061
1478.1525843864802 9558.11852554949
1478.9402060351367 9681.352052568323
1479.7276359561693 9691.516959166009
1480.514874201328 9412.521630642612
1481.3019208223468 9491.812775819395
1482.0887758709323 9485.854047643574
1482.8754393987747 9545.979137669725
1483.6619114575406 9380.942222742377
1484.4481920988783 9565.06578788887
1485.2342813744108 9591.597917886706
1486.0201793357446 9634.446457935755
1486.8058860344572 9501.001575446335
1487.591401522117 9539.063809760843
1488.3767258502594 9562.535577462904
1489.1618590704056 9529.723442010447
1489.9468012340494 9416.109011968732
1490.7315523926754 9487.218229211438
1491.5161125977356 9745.752380020009
1492.3004819006637 9512.555543547029
1493.084660352877 9483.231958046912
1493.8686480057622 9522.280577099835
1494.6524449106964 9802.259799914094
1495.4360511190262 9726.143233183722
1496.219466682087 9601.567834210113
1497.0026916511779 9728.404762977556
1497.7857260775945 9622.191629592453
1498.5685700125996 9528.395162548612
1499.3512235074395 9628.476524109834
1500.133686613337 9459.212026344041
1500.9159593814966 9672.295347782772
1501.698041863101 9755.189043551041
1502.4799341093094 9602.80402349195
1503.2616361712662 9407.450230304761
1504.043148100087 9701.646240312013
1504.8244699468742 9608.303006659426
1505.6056017626997 9634.018581393251
1506.3865435986281 9335.473258890495
1507.1672955056893 9694.342614958297
1507.9478575348967 9473.79920515593
1508.7282297372512 9657.243274786788
1509.5084121637192 9393.521563567476
1510.2884048652577 9615.165439933447
1511.0682078927948 9394.910955278818
1511.8478212972423 9453.604685057577
1512.6272451294917 9306.675894136904
1513.4064794404076 9519.417497793132
1514.1855242808433 9310.40388671101
1514.9643797016215 9335.390435306414
1515.743045753552 9390.073973141563
1516.5215224874191 9491.23554424017
1517.2998099539836 9216.115364624482
1518.077908203999 9325.096301346402
1518.8558172881785 9356.905812982757
1519.633537257234 9490.650593950413
1520.4110681618404 9247.362436223613
1521.1884100526604 9519.567093322083
1521.9655629803365 9390.188076656947
1522.7425269954856 9502.848586238344
1523.5193021487103 9629.037772842745
1524.2958884905856 9358.852987845397
1525.0722860716687 9306.945960795936
1525.848494942502 9519.867406344876
1526.624515153595 9293.297169060734
1527.4003467554485 9395.033344628411
1528.175989798534 9560.794141128841
1528.9514443333064 9347.073439047726
1529.726710410203 9563.31280687059
1530.5017880796331 9355.884749683912
1531.276677391992 9318.768697578305
1532.0513783976457 9479.448389780326
1532.825891146953 9489.469654946337
1533.6002156902414 9545.628095951997
1534.3743520778207 9485.578817132495
1535.1483003599806 9505.885245760564
1535.9220605869923 9457.168116724732
1536.6956328091019 9537.57528835058
1537.4690170765407 9543.69146118427
1538.242213439511 9533.647824632444
1539.015221948208 9625.163457448918
1539.78804265279 9468.660259278902
1540.560675603405 9331.152144331958
1541.3331208501804 9768.485329669127
1542.1053784432224 9673.707081647382
1542.8774484326168 9606.925843188506
1543.649330868422 9427.467119586294
1544.4210258006842 9608.809679606915
1545.1925332794308 9540.961180387163
1545.9638533546604 9556.011663447907
1546.7349860763552 9369.865405171771
1547.5059314944829 9767.877491311601
1548.27668965898 9642.35664944752
1549.0472606197673 9644.130334939242
1549.817644426752 9465.876522734794
1550.5878411298072 9750.687068430114
1551.3578507787988 9663.005190939808
1552.1276734235635 9639.868111487098
1552.8973091139233 9695.385100560774
1553.6667578996767 9658.984721587483
1554.436019830604 9738.585550271418
1555.20509495646 9646.964172290873
1555.9739833269869 9522.512084669832
1556.7426849919011 9667.383106411693
1557.511200000903 9945.949000095372
1558.2795284036674 9779.547650367982
1559.0476702498509 9680.363480502656
1559.8156255890954 9839.170399964842
1560.5833944710157 9950.277526234211
1561.3509769452048 9649.363472841089
1562.1183730612447 9692.079762439356
1562.8855828686865 9885.242727460782
1563.6526064170703 9899.310952233775
1564.4194437559127 9844.530572706039
1565.1860949347047 9631.679954689354
1565.9525600029283 9995.914396865528
1566.7188390100328 9824.117832838969
1567.4849320054564 9703.99854867704
1568.250839038612 9793.213873702627
1569.0165601588997 9718.426609814556
1569.7820954156887 9882.940466119324
1570.5474448583373 9613.588963525313
1571.31260853618 9563.331384814468
1572.0775864985299 9574.656944918916
1572.8423787946813 9704.581818781768
1573.6069854739108 9616.779859233971
1574.371406585471 9596.631242885353
1575.1356421785986 9641.923768071536
1575.899692302506 9683.84340642953
1576.6635570063845 9496.633621006898
1577.4272363394157 9465.893748793049
1578.190730350747 9639.922512035018
1578.9540390895163 9451.546698209608
1579.7171626048384 9331.922758486511
1580.480100945806 9352.507352758139
1581.2428541614918 9582.587958140353
1582.0054223009538 9444.548543577383
1582.767805413223 9508.100327922128
1583.5300035473156 9449.14945397986
1584.292016752228 9640.398870938796
1585.0538450769309 9437.51113052295
1585.8154885703807 9297.699381409308
1586.5769472815136 9265.149298174396
1587.3382212592405 9430.010915216846
1588.099310552463 9475.919313896282
1588.8602152100484 9048.893077308443
1589.6209352808564 9350.292835476745
1590.3814708137234 9283.52842730041
1591.14182185746 8970.730018988004
1591.9019884608679 9377.946090159821
1592.6619706727215 9102.184358464894
1593.4217685417734 9530.924744152431
1594.1813821167616 9485.445357948647
1594.9408114464022 9164.084927109781
1595.7000565793933 9212.582667666458
1596.459117564409 9395.229270191821
1597.2179944501113 9095.774423600069
1597.9766872851324 9241.931959996964
1598.735196118092 9202.068161981346
1599.4935209975883 9411.652708164915
1600.2516619721973 9433.869041341039
1601.0096190904787 9286.066971742239
1601.7673924009723 9237.14036228136
1602.524981952196 9233.266551287557
1603.2823877926476 9097.398600209903
1604.0396099708087 9154.519354399106
1604.7966485351371 9083.990844164957
1605.5535035340745 9268.86317609089
1606.3101750160404 9180.810183075027
1607.0666630294363 9185.174525713563
1607.822967622642 8962.920752471457
1608.5790888440224 9159.742937179046
1609.3350267419137 9360.382750404695
1610.0907813646445 9124.605048034111
1610.8463527605145 9204.544650855289
1611.601740977805 9214.49336832819
1612.356946064785 9093.592745731346
1613.1119680696902 8888.188570037615
1613.8668070407512 9000.304970017602
1614.6214630261748 9141.464016538335
1615.375936074137 9034.69303661599
1616.1302262328118 9097.41088770212
1616.8843335503425 8790.253611615006
1617.638258074854 8964.426858971969
1618.391999854457 9002.886585241195
1619.1455589372363 9050.190228706244
1619.8989353712623 9041.558971238645
1620.65212920458 8791.929597574766
1621.4051404852235 8738.83795409275
1622.1579692611976 8900.19371270291
1622.9106155804966 8766.783933784733
1623.663079491087 8756.04790463849
1624.4153610409248 8888.147281949676
1625.1674602779385 8834.038554318215
1625.9193772500403 8638.14270380225
1626.6711120051277 8958.62423601618
1627.4226645910676 8858.05982230292
1628.174035055721 8701.37527405261
1628.9252234469168 8683.971937120563
1629.676229812474 8803.772147339045
1630.4270542001905 9269.749767772413
1631.1776966578382 8853.193681108514
1631.9281572331747 8861.329434704487
1632.678435973945 8824.515034767624
1633.4285329278573 8852.011129172917
1634.1784481426203 8795.351795592722
1634.9281816659113 8855.117519738884
1635.677733545388 9067.643732087345
1636.4271038286934 8857.387836940663
1637.176292563452 8825.241994149796
1637.9252997972635 8873.431596340646
1638.674125577716 9144.573302654697
1639.4227699523672 9224.443671029438
1640.171232968767 8841.61464527153
1640.9195146744423 9047.56056652175
1641.6676151168977 9179.60979636132
1642.4155343436178 9041.92920164116
1643.1632724020765 9232.085810480366
1643.9108293397167 9089.646636407626
1644.658205203974 8965.27112666881
1645.4054000422566 9376.824197712627
1646.1524139019566 9070.025272397968
1646.8992468304423 9092.942208912147
1647.6458988750728 9070.860130440376
1648.3923700831765 9263.009132081808
1649.1386605020743 9153.959325778178
1649.8847701790564 9212.79737514404
1650.6306991614038 9228.9904017974
1651.3764474963682 9351.94864508988
1652.1220152311944 9108.722438484478
1652.867402413096 9267.08274379545
1653.6126090892776 9197.125256308987
1654.3576353069184 9330.105473454112
1655.1024811131829 9203.55042354624
1655.8471465552066 9111.87276944665
1656.5916316801213 9307.49176255632
1657.3359365350298 9222.344795607245
1658.0800611670165 9105.554961707037
1658.824005623148 8962.548641392537
1659.5677699504722 8900.841660223858
1660.3113541960192 9018.01618494598
1661.054758406799 9026.731806415615
1661.7979826297997 8812.434490636166
1662.5410269119966 8873.863699732825
1663.283891300338 8975.869950751332
1664.0265758417645 8812.354197936515
1664.7690805831826 8763.068926726368
1665.5114055714948 8905.483970892916
1666.2535508535748 8885.46925911616
1666.9955164762814 8536.708572956126
1667.7373024864555 8531.96461278779
1668.478908930916 8674.128647633337
1669.220335856462 8440.90431374151
1669.9615833098778 8474.142228378158
1670.7026513379296 8346.51698279545
1671.44353998736 8386.716189288274
1672.1842493048916 8369.631643093193
1672.9247793372379 8342.40308548767
1673.6651301310812 8308.758588426528
1674.4053017330934 8288.650939336001
1675.1452941899242 8194.769168824361
1675.885107548207 8005.129625254151
1676.6247418545518 8012.70097925335
1677.3641971555535 8101.012492602655
1678.1034734977893 8021.0942672706615
1678.8425709278108 8037.3629560804575
1679.5814894921605 8037.254816784751
1680.320229237359 7873.386772588997
1681.0587902098978 8103.223384283997
1681.7971724562685 7869.378183589188
1682.5353760229264 7887.235987761693
1683.2734009563173 7657.065800170708
1684.0112473028657 7698.589451618944
1684.7489151089794 7795.90282609437
1685.4864044210462 7802.53671233841
1686.2237152854377 7548.590715946285
1686.960847748498 7633.947548537164
1687.6978018565642 7430.249165609481
1688.434577655944 7386.711114801599
1689.1711751929379 7402.109452232175
1689.9075945138156 7358.85712050471
1690.6438356648396 7356.909475605376
1691.3798986922448 7024.582064752858
1692.1157836422499 7260.575792481948
1692.851490561059 7127.128284371235
1693.587019494853 7129.236126718711
1694.3223704897991 6931.677019618687
1695.0575435920364 6985.220534925506
1695.792538847696 7132.6627565724575
1696.527356302886 6946.17158714197
1697.2619960036936 6780.614619534443
1697.9964579961907 6830.7190343672355
1698.730742326432 6561.290280303993
1699.4648490404488 6526.709396583217
1700.1987781842563 6692.91898219405
1700.9325298038548 6954.736353871308
1701.6661039452174 6881.140535266565
1702.3995006543082 6790.802276373268
1703.1327199770658 6644.082393093229
1703.865761959416 6321.869021671353
1704.598626647261 6834.122777936114
1705.3313140864866 6452.640223297779
1706.0638243229587 6503.864313137174
1706.7961574025303 6612.061426549274
1707.528313371029 6517.462619851163
1708.260292274268 6293.948184333089
1708.9920941580403 6385.253660262651
1709.7237190681226 6467.3506976377175
1710.4551670502697 6354.479764251111
1711.18643815022 6037.530452325403
1711.9175324136959 6475.809661159589
1712.6484498863938 6307.598548500305
1713.379190614005 6126.168281053076
1714.109754642188 6385.116703756974
1714.8401420165883 6164.307267029246
1715.570352782839 6433.537960112359
1716.3003869865497 6289.7294604955105
1717.0302446733076 6146.517925741821
1717.7599258886876 6141.639974274567
1718.4894306782444 6399.290558959897
1719.2187590875183 6132.220206448443
1719.9479111620203 6296.656222617318
1720.6768869472544 6250.379306758253
1721.4056864887025 6414.475815735944
1722.1343098318284 6341.33770515529
1722.8627570220742 6077.581779755595
1723.591028104871 5956.691175830653
1724.3191231256242 5938.342752586765
1725.0470421297232 6177.532499444538
1725.7747851625427 6160.798565808471
1726.5023522694337 6074.2726252608345
1727.2297434957363 6076.856343149505
1727.9569588867635 5859.8191625974605
1728.6839984878152 6212.629891403218
1729.4108623441734 5767.837373760541
1730.1375505011038 6127.877250772957
1730.8640630038426 6067.630917214541
1731.5903998976264 6039.158730595537
1732.316561227657 6152.219260611613
1733.0425470391274 5906.875974033601
1733.7683573772065 6079.375033545633
1734.4939922870508 5997.825375455947
1735.2194518137949 5909.0579594049905
1735.9447360025606 6009.370803179279
1736.669844898439 5844.1821813236365
1737.3947785465189 5935.345071960045
1738.1195369918605 5700.051385354424
1738.8441202795093 5774.204109543329
1739.5685284544943 5871.729879018199
1740.292761561821 5774.616245600881
1741.0168196464838 5984.976931750227
1741.7407027534518 5872.082020418913
1742.464410927687 5868.733599833089
1743.187944214118 5763.500384419481
1743.9113026576688 5793.5672504787235
1744.634486303241 5884.755966823798
1745.3574951957125 5847.306947259572
1746.0803293799509 5817.106587412039
1746.8029889008048 5725.529623064673
1747.5254738031017 6058.140868361512
1748.2477841316504 5645.036957446728
1748.969919931249 5740.351095919087
1749.6918812466665 5575.16139325865
1750.4136681226646 5977.2116526558675
1751.1352806039777 5796.525873507532
1751.856718735331 5714.177171747372
1752.5779825614281 5802.744526639649
1753.2990721269507 5768.070757044497
1754.0199874765676 5881.294861293448
1754.7407286549314 5604.98761729077
1755.4612957066693 5933.9898126920025
1756.1816886763954 5700.056194671625
1756.9019076087097 5841.01243905027
1757.6219525481865 5725.71778044705
1758.3418235393856 5695.689305538659
1759.061520626854 5869.512842536093
1759.7810438551096 5811.194900887828
1760.5003932686614 5685.252918401746
1761.2195689119999 5834.481798978452
1761.938570829594 5667.858432061538
1762.657399065898 5773.810519380614
1763.376053665348 5631.266484093521
1764.0945346723602 5782.979787499343
1764.812842131334 5737.895753518727
1765.5309760866512 5650.6133051815195
1766.2489365826787 5645.470526709616
1766.9667236637597 5631.913939687726
1767.684337374223 5534.091068270234
1768.401777758383 5356.455889370344
1769.1190448605284 5488.829376748446
1769.836138724937 5473.531513738326
1770.5530593958665 5685.928527290649
1771.2698069175603 5765.427199454837
1771.9863813342326 5640.725596956748
1772.702782690094 5626.078288725619
1773.4190110293293 5711.388486563036
1774.1350663961111 5747.7378383820505
1774.8509488345844 5516.3486495239695
1775.5666583888924 5592.388032674591
1776.2821951031437 5621.905132414354
1776.9975590214362 5513.807099506112
1777.7127501878585 5836.112546165543
1778.4277686464684 5564.935403535574
1779.1426144413108 5615.02564531601
1779.8572876164162 5523.587615252829
1780.571788215797 5535.895191914532
1781.2861162834415 5645.721375549584
1782.0002718633277 5423.701145159013
1782.7142549994132 5400.094657150554
1783.4280657356376 5619.644124802135
1784.141704115922 5398.811176536629
1784.855170184177 5333.031101062341
1785.5684639842839 5444.544173533613
1786.2815855601148 5368.416996453399
1786.9945349555237 5469.337527133588
1787.707312214343 5434.570812574495
1788.4199173803918 5537.07025373062
1789.132350497468 5407.438397597005
1789.8446116093583 5434.746154769833
1790.556700759822 5441.370782107721
1791.2686179926077 5176.457893551787
1791.9803633514493 5349.303348172044
1792.6919368800554 5352.029939173704
1793.4033386221236 5581.617346284128
1794.1145686213295 5571.280166000856
1794.8256269213307 5744.908123745025
1795.536513565774 5418.412048740794
1796.247228598284 5208.455833815811
1796.9577720624693 5332.872186080187
1797.6681440019165 5302.192953047886
1798.3783444602013 5311.587506429851
1799.0883734808776 5305.960339426698
1799.7982311074884 5440.9168149948055
1800.5079173835475 5316.848124802667
1801.2174323525633 5511.618736613285
1801.9267760580187 5444.572632574837
1802.635948543386 5368.082290212218
1803.3449498521113 5168.922470069864
1804.0537800276325 5331.824657629508
1804.7624391133668 5274.672032485289
1805.47092715271 5138.799034745245
1806.1792441890484 5123.909886053918
1806.8873902657433 5382.8995380233155
1807.5953654261448 5261.335963685817
1808.3031697135812 5156.290412557705
1809.0108031713662 5164.974504579737
1809.71826584279 5266.732867340752
1810.425557771141 5203.601358321363
1811.1326789996747 5654.063465588633
1811.839629571632 5336.298628987433
1812.5464095302468 5077.953038950518
1813.2530189187182 5321.352270543772
1813.959457780249 5094.102807267822
1814.6657261580076 5408.475186508369
1815.371824095153 5206.096604083016
1816.0777516348262 5273.572782733987
1816.78350882015 5035.26788377475
1817.4890956942272 5008.542571967426
1818.1945123001533 5063.967485532381
1818.8997586809928 5180.678182973654
1819.6048348798067 5279.940308804135
1820.3097409396287 5135.263121494699
1821.0144769034796 5397.877441999195
1821.7190428143622 5106.640829224185
1822.423438715261 5495.6593708810615
1823.1276646491478 5086.055855098417
1823.8317206589727 5267.294741400848
1824.5356067876692 5202.253720904261
1825.2393230781581 5094.193327455541
1825.942869573335 5031.404115893745
1826.646246316086 5112.357658845353
1827.3494533492758 5116.8611007173495
1828.052490715756 5146.690061336406
1828.7553584583547 5202.740626531317
1829.458056619891 5200.060010400253
1830.1605852431585 4985.414018653132
1830.8629443709433 4952.748059719174
1831.5651340460063 5073.644847001667
1832.2671543110919 5142.66885855633
1832.9690052089318 5006.280770213969
1833.6706867822395 4968.010424839945
1834.3721990737104 5209.706055637418
1835.0735421260233 5140.559582885992
1835.774715981841 5210.090533224467
1836.4757206838058 5275.849426004801
1837.1765562745459 4842.621844418448
1837.8772227966747 4850.523085691546
1838.5777202927839 5152.852148246226
1839.2780488054523 5070.160177078402
1839.9782083772352 4899.6531955006485
1840.6781990506806 5177.180502045229
1841.378020868313 4995.326797456909
1842.0776738726418 5125.167512716957
1842.777158106157 4987.718919831519
1843.4764736113375 4837.286244398625
1844.1756204306403 5081.539589739132
1844.8745986065078 5012.043240199256
1845.5734081813607 4835.606572239949
1846.2720491976124 4860.087694035801
1846.970521697649 4779.387587669438
1847.6688257238511 4940.877731030943
1848.3669613185684 5013.522443307598
1849.0649285241452 4846.895786091803
1849.7627273829057 5056.822053660948
1850.460357937156 5079.168985682621
1851.1578202291857 4675.096338181176
1851.8551143012664 4958.555436228229
1852.5522401956569 5118.089408490699
1853.2491979545957 5117.681809085123
1853.9459876203055 4840.9262367433685
1854.6426092349902 4835.338095151887
1855.3390628408451 4895.056977338291
1856.0353484800362 5152.029491976621
1856.7314661947203 4945.202860091986
1857.4274160270397 4818.5732294894315
1858.123198019115 4848.333404887333
1858.8188122130487 4834.002449491426
1859.5142586509319 4976.379583794454
1860.209537374838 4906.581170779774
1860.9046484268183 4860.906785144481
1861.599591848917 5092.026260154487
1862.294367683151 4791.757128157648
1862.988975971528 4787.417649074058
1863.6834167560355 4997.9053566350585
1864.3776900786452 4989.255909048097
1865.0717959813119 4793.2737210881805
1865.7657345059724 4935.35549315449
1866.4595056945564 4905.008973149253
1867.1531095889586 4800.5625552319925
1867.846546231076 4877.892195738826
1868.5398156627743 5070.079342119831
1869.2329179259123 4903.742480984805
1869.9258530623283 5225.13539496701
1870.618621113843 4756.006764348103
1871.3112221222636 4616.815485740609
1872.0036561293764 4688.047581584142
1872.695923176956 4947.377875223099
1873.3880233067594 4983.627375659453
1874.0799565605212 4684.565601880582
1874.7717229799673 4761.2888474155025
1875.4633226068036 4899.055638427627
1876.1547554827175 4771.545592532641
1876.8460216493859 4769.250941164295
1877.5371211484617 4798.768477301702
1878.2280540215852 4824.757923428306
1878.9188203103804 4635.60640453889
1879.6094200564548 5053.843282912183
1880.299853301396 4657.880869388129
1880.9901200867826 4869.917344925567
1881.6802204541673 4872.667394847275
1882.3701544450942 4910.886194015968
1883.059922101087 4656.532993948648
1883.7495234636517 4856.447140337253
1884.4389585742792 4678.117916796617
1885.1282274744517 4796.20159977375
1885.8173302056166 5238.970736220805
1886.506266809225 4722.298556578605
1887.195037326701 4619.261677309452
1887.8836417994517 4887.843875983276
1888.5720802688702 5013.8643031291485
1889.260352776333 4738.434940793159
1889.9484593632042 4772.530089904604
1890.63640007082 4695.657819935149
1891.3241749405151 4642.066584170027
1892.0117840135954 4776.061005550186
1892.6992273313572 4582.39944824004
1893.3865049350788 4658.1233523450355
1894.0736168660223 4892.251074213728
1894.7605631654333 4686.202443816063
1895.4473438745408 4610.297897206443
1896.133959034556 4881.2443207184115
1896.820408686679 4657.804220241492
1897.506692872088 4960.333855492914
1898.192811631945 4770.751181497536
1898.8787650073991 4691.283746911224
1899.5645530395832 4881.421762158619
1900.2501757696118 4969.788023860995
1900.9356332385796 4556.813883659724
1901.620925487574 4708.329446397642
1902.3060525576602 4834.162643847871
1902.9910144898859 4801.6278710846755
1903.6758113252872 4662.027982089074
1904.3604431048789 4758.970636272151
1905.0449098696663 4786.991705678671
1905.7292116606295 4752.1666302047215
1906.4133485187394 4663.365249339489
1907.0973204849488 4257.978267416306
1907.7811276001976 4553.552842537971
1908.4647699053967 4693.854952398328
1909.1482474414588 4565.562667376137
1909.8315602492694 4424.866199465724
1910.5147083696957 4676.8678671709185
1911.1976918436012 4696.419730242752
1911.880510711815 4608.102999412915
1912.5631650151681 4767.176746824573
1913.2456547944657 4704.257944611333
1913.927980090495 4537.896439078389
1914.6101409440362 4568.796062008338
1915.2921373958416 4520.360739951795
1915.9739694866603 4624.423183580114
1916.655637257214 4738.888598767443
1917.3371407482136 4575.877731216541
1918.0184800003572 4750.681198929338
1918.6996550543154 4600.255725461246
1919.3806659507554 4672.97249948028
1920.0615127303208 4713.981620219896
1920.7421954336423 4699.0793277664
1921.4227141013343 4642.164791790364
1922.103068773993 4606.495099017144
1922.783259492202 4756.891161312872
1923.4632862965227 4513.910316104909
1924.1431492275078 4456.194717820314
1924.8228483256917 4527.248363139897
1925.5023836315922 4607.0175159376195
1926.1817551857057 4172.804991853912
1926.8609630285227 4707.697585898387
1927.5400072005123 4577.077925614688
1928.218887742125 4378.159625525262
1928.8976046938005 4243.773812595461
1929.5761580959588 4636.360766464636
1930.2545479890086 4624.58998654338
1930.9327744133352 4481.455089426413
1931.6108374093164 4587.430781907175
1932.2887370173066 4858.509044710155
1932.9664732776473 4241.719567326887
1933.6440462306673 4462.712930040801
1934.3214559166754 4447.726213497472
1934.9987023759659 4725.881220128193
1935.675785648813 4447.599186899097
1936.3527057754836 4172.521978672358
1937.029462796223 4627.759517176924
1937.70605675126 4424.656397352413
1938.3824876808085 4554.150431472847
1939.058755625072 4316.44750722285
1939.7348606242267 4472.973902967975
1940.4108027184448 4538.262864850849
1941.0865819478713 4730.788400537646
1941.7621983526478 4202.393621174064
1942.4376519728921 4313.493907671668
1943.1129428487038 4454.495345378373
1943.7880710201734 4507.3984388853305
1944.4630365273733 4483.412678400623
1945.1378394103576 4226.437102467192
1945.8124797091714 4879.7001763274675
1946.4869574638324 4227.117457845305
1947.161272714353 4358.466284102533
1947.8354255007234 4517.955629695346
1948.5094158629272 4414.76243495213
1949.1832438409183 4557.063708358428
1949.8569094746435 4484.654953597346
1950.530412804037 4534.213106572666
1951.2037538690092 4531.466849113466
1951.8769327094578 4487.879249414464
1952.5499493652678 4407.175795407085
1953.222803876306 4401.032999645702
1953.895496282421 4285.679188662341
1954.5680266234522 4401.716037007021
1955.2403949392155 4552.807352648815
1955.9126012695142 4114.950039365284
1956.5846456541403 4449.331082849521
1957.2565281328643 4277.430454829244
1957.9282487454457 4470.868410917089
1958.5998075316202 4584.584317450919
1959.27120453112 4519.585871234
1959.9424397836501 4260.722824113408
1960.613513328908 4621.9132096127905
1961.2844252065697 4464.753009520056
1961.9551754563017 4350.410015294904
1962.6257641177453 4298.581958225145
1963.29619123054 4318.233801851538
1963.966456834296 4303.261448656163
1964.6365609686181 4069.600025519866
1965.306503673086 4370.277482439942
1965.976284987275 4343.052453422786
1966.645904950734 4357.081969934393
1967.315363603002 4341.385086745106
1967.9846609836077 4393.5551131471875
1968.6537971320486 4358.688066770943
1969.3227720878222 4185.367534616404
1969.9915858904042 4192.612509419743
1970.660238579252 4306.654709246968
1971.3287301938108 4321.211915586575
1971.997060773514 4099.83944911927
1972.665230357772 4278.497551206231
1973.3332389859843 3974.63485219625
1974.0010866975335 4316.841954639267
1974.6687735317864 4370.191966867855
1975.3362995280932 4371.013820028965
1976.003664725793 4441.199019119819
1976.6708691642052 3934.4469746014174
1977.3379128826364 4135.129440100826
1978.004795920373 4440.343393190806
1978.6715183166925 4654.085728609035
1979.3380801108524 4100.522284865091
1980.0044813420973 4405.185903827472
1980.6707220496555 4139.599322516208
1981.3368022727373 4182.583614546376
1982.0027220505417 4404.909621864292
1982.66848142225 4120.709451101949
1983.3340804270283 4080.5992702163385
1983.999519104027 4244.067269158657
1984.6647974923835 4318.610091679535
1985.329915631215 4273.724331568351
1985.99487355963 4285.928662503406
1986.6596713167146 4373.44766486218
1987.3243089415428 4354.166300022837
1987.9887864731754 4328.683866349499
1988.6531039506553 4063.961834711425
1989.3172614130071 4440.076668969295
1989.9812588992481 4335.794555105431
1990.645096448372 4116.07585983167
1991.3087740993633 4307.132792223567
1991.9722918911848 4245.22240831423
1992.635649862792 4164.986592737486
1993.2988480531185 4509.125028440249
1993.9618865010852 4478.010088509635
1994.6247652455968 4188.594419330779
1995.287484325545 3887.576228180688
1995.9500437798033 4243.805289278024
1996.6124436472292 4030.327365366743
1997.2746839666706 4351.021459400308
1997.936764776954 4225.304104257854
1998.598686116895 4141.242469708832
1999.2604480252903 4512.354497558637
1999.9220505409212 4045.0834957845227
2000.5834937025593 4010.4148699782336
2001.2447775489582 4083.4645325939346
2001.9059021188514 4055.3776815067185
2002.5668674509616 4138.236530244398
2003.2276735839987 4190.9576569956835
2003.8883205566508 4244.528652913491
2004.5488084075987 4035.587323138368
2005.2091371755014 3985.6231071623174
2005.8693068990033 4158.2258180782055
2006.5293176167397 4288.950941217254
2007.1891693673224 3965.2689242124275
2007.848862189354 3810.4481797205276
2008.5083961214223 3992.1533232760366
2009.1677712020955 4041.453770908885
2009.8269874699254 3887.086604842237
2010.4860449634598 4353.850836879763
2011.1449437212177 3848.2166480368114
2011.8036837817108 4130.584602511854
2012.4622651834325 4215.080085054557
2013.1206879648653 4272.739776521992
2013.7789521644736 4266.634141699756
2014.4370578207036 3904.0633770302074
2015.0950049719922 4034.2605382590255
2015.7527936567585 4159.473951162841
2016.4104239134067 4292.312427584494
2017.067895780323 4263.545039795156
2017.725209295886 3792.860641291735
2018.3823644984514 4217.078917724846
2019.0393614263648 3974.280660976749
2019.6962001179545 3763.7424110905185
2020.3528806115355 4178.864984651872
2021.0094029454067 3799.5402166864505
2021.6657671578487 3955.3538134034557
2022.321973287133 4105.32062894077
2022.9780213715148 3938.880866509189
2023.6339114492293 4051.0552485744543
2024.2896435585026 3926.3892862891794
2024.9452177375442 4111.440624966175
2025.600634024544 4233.689105041835
2026.2558924576842 4107.024251558691
2026.9109930751292 4065.4260268014755
2027.565935915025 3945.6661546767514
2028.2207210155066 4274.7713008051
2028.8753484146964 4187.41851060781
2029.529818150695 3794.6954474056574
2030.1841302615903 3949.073046634385
2030.8382847854573 3876.3859405142043
2031.4922817603601 3838.0776925375235
2032.1461212243357 3932.83524904177
2032.7998032154192 3712.6119442501113
2033.4533277716218 3977.722924626737
2034.1066949309443 3772.6587878649952
2034.7599047313688 4014.4506192085914
2035.4129572108704 4261.893281850065
2036.0658524074006 4148.366487192164
2036.7185903589016 3819.786696198589
2037.3711711032956 3986.140712355895
2038.023594678496 3895.8401651082204
2038.675861122394 3788.076749734764
2039.3279704728757 4086.505216023909
2039.9799227678031 3666.010768142934
2040.6317180450278 3801.4733078742984
2041.2833563423865 3866.325662963836
2041.9348376977014 4081.4144704874693
2042.5861621487784 3985.158829047699
2043.2373297334088 4301.896696878741
2043.8883404893695 4053.273135695444
2044.5391944544208 4147.740950099145
2045.1898916663158 3947.9660646959446
2045.8404321627804 4059.6101636833264
2046.4908159815368 3831.834804313279
2047.1410431602853 3700.9075401411947
2047.7911137367173 3729.859347311899
2048.441027748504 3920.132009631571
2049.090785233302 3706.5438267309282
2049.7403862287592 3753.098347734721
2050.389830772503 4081.5898658932297
2051.0391189021466 3600.462860584418
2051.688250655294 3978.9596277261035
2052.337226069527 3756.3920596785333
2052.986045182417 4042.584163897077
2053.634708031521 3569.2022204391346
2054.283214654375 3920.51411504071
2054.931565088511 3647.4943636522294
2055.579759371436 3782.8060585484673
2056.2277975406523 3903.469755134047
2056.8756796336384 4065.8201253174275
2057.5234056878617 3650.6736313930087
2058.1709757407752 3898.0815091095055
2058.8183898298194 3799.6837474087324
2059.465647992416 3908.1260778574374
2060.1127502659747 3997.0456913662542
2060.759696687888 3621.2485520507616
2061.4064872955405 4006.9790909923768
2062.053122126292 4115.270767209686
2062.699601217497 3641.121634002342
2063.345924606485 3876.8739997128987
2063.992092330587 3772.6777811426045
2064.638104427102 3757.088127401432
2065.283960933324 3898.2524491880367
2065.92966188653 3879.4434148078894
2066.5752073239855 3868.6054174936326
2067.2205972829397 3607.698320504346
2067.86583180062 3885.645815809319
2068.5109109142522 3940.885285995627
2069.15583466104 3145.906037265842
2069.8006030781708 3856.862844005248
2070.445216202821 4005.6195309054056
2071.089674072153 4137.379851301147
2071.7339767233116 3752.6660080809133
2072.3781241934303 3858.2238056787537
2073.0221165196253 4022.1770248900734
2073.6659537390024 3770.7247107234784
2074.3096358886505 4018.504515317425
2074.953163005637 3679.033188288892
2075.596535127028 3566.917207024676
2076.2397522898664 3657.353179322886
2076.882814531182 3958.701444291856
2077.5257218879924 4063.265392622835
2078.1684743973 3685.034056889387
2078.8110720960885 3647.1491360102345
2079.453515021336 4054.725297973172
2080.095803209997 3865.143763643515
2080.7379366990135 3797.0911063124868
2081.37991552532 3779.4806395911487
2082.0217397258275 3828.554316294182
2082.6634093374414 3650.891119453691
2083.3049243970418 3742.7766208701737
2083.9462849415067 3777.3829330555054
2084.587491007689 3890.780508693897
2085.2285426324324 3909.97620481907
2085.869439852564 4041.5083644505553
2086.510182704902 3545.418842755308
2087.1507712262483 3705.934444087698
2087.791205453381 3577.035336799291
2088.4314854230743 4031.040239695985
2089.0716111720867 3775.5738641895864
2089.7115827371617 3623.0822413341666
2090.351400155023 4256.209630835718
2090.991063462385 3572.517541816692
2091.6305726959527 3610.9293919911747
2092.2699278924047 4019.1381936560538
2092.9091290884153 3779.509094712643
2093.548176320641 3767.261424616121
2094.187069625721 3774.900974482794
2094.8258090402887 3688.8903165936513
2095.464394600951 3741.003551455834
2096.102826344313 3701.714196690449
2096.741104306955 4006.5502325380303
2097.379228525453 3458.2876214136877
2098.017199036358 3515.114504125345
2098.6550158762147 3959.79541997067
2099.2926790815527 3691.5668553685805
2099.9301886888825 3762.8742383993535
2100.5675447347076 3954.891364440664
2101.2047472555114 3985.1250685009427
2101.841796287761 3683.6442859459726
2102.47869186792 3750.450189725599
2103.1154340324265 3810.3162430128577
2103.752022817709 3695.58830044875
2104.388458260184 3794.8529402683935
2105.024740396251 3853.870004710013
2105.660869262292 3618.4585198765453
2106.296844894685 3844.700457879165
2106.93266732978 3678.23350106371
2107.5683366039284 3523.434236491839
2108.2038527534532 3592.4471945374185
2108.8392158146726 3907.6797022367377
2109.4744258238843 3566.6063600358693
2110.1094828173755 3589.20760970122
2110.744386831422 4072.0473485459347
2111.3791379022787 3611.8494597818635
2112.01373606619 3904.0661247081625
2112.648181359389 3805.231939491279
2113.28247381809 3815.0390494549015
2113.916613478492 3594.3732819027646
2114.550600376786 3926.5018552539273
2115.1844345491445 3929.857245424964
2115.818116031729 3653.161531377899
2116.451644860679 3565.6447436517383
2117.085021072133 3337.5593738748275
2117.718244702204 3578.664688408631
2118.3513157869984 3591.6386915481844
2118.984234362604 3470.003826563465
2119.617000465092 3648.983478826155
2120.249614130529 3788.9847848372715
2120.8820753949585 3649.840986822627
2121.5143842944162 3747.275240911478
2122.14654086492 3537.044469725291
2122.7785451424734 3793.6449357119955
2123.4103971630702 3120.1140179421814
2124.042096962681 3828.3269781455374
2124.6736445772767 3659.4728485558308
2125.305040042802 3340.940964839142
2125.936283395191 3668.2044825599505
2126.567374670365 3668.06006691973
2127.198313904233 3679.976550436997
2127.8291011326855 4072.463225107699
2128.4597363916037 3891.3950400012145
2129.0902197168507 3628.7379307521164
2129.720551144279 3381.482552014505
2130.3507307097225 3957.880576888663
2130.980758449008 3815.8933437895917
2131.6106343979427 3503.9802994549864
2132.2403585923203 3855.1156442352076
2132.8699310679276 3807.129017209686
2133.499351860526 3645.409098410294
2134.1286210058715 3599.7117525968933
2134.7577385397053 3419.088822524668
2135.3867044977487 3772.3979418690274
2136.0155189157176 3957.4313642359907
2136.644181829308 3703.462388456235
2137.2726932742025 3418.0266947101736
2137.901053286074 3729.2790699338902
2138.5292619005777 3542.908338650513
2139.1573191533535 3672.900039957143
2139.7852250800315 3803.206367577085
2140.4129797162295 3581.4310173754043
2141.0405830975433 3383.2359507062743
2141.6680352595613 3760.9499364969643
2142.2953362378576 3346.8054176154596
2142.9224860679915 3429.657401350066
2143.549484785508 3492.4494624057106
2144.1763324259373 3656.608705057154
2144.803029024799 3445.9360219222654
2145.429574617594 3451.5606067171407
2146.0559692398165 3789.4949375771766
2146.682212926942 3443.0298921265917
2147.308305714432 3539.386435716745
2147.9342476377333 3797.174158776027
2148.5600387322847 3789.212288525846
2149.185679033506 3667.9940810327926
2149.8111685768017 3604.1835476610213
2150.4365073975678 3462.8241405295507
2151.061695531187 3571.749613684477
2151.686733013021 3670.997092915296
2152.311619878423 3615.9532805233603
2152.9363561627342 3594.1258639689017
2153.560941901278 3501.6392620357683
2154.1853771293663 3757.525615257838
2154.809661882293 3722.0233948698383
2155.433796195348 3661.5669248881372
2156.0577801037944 3829.3322874791643
2156.681613642895 3510.8764025216924
2157.3052968478896 3553.3684684407554
2157.928829754006 3642.166486102614
2158.552212396462 3648.772139444713
2159.1754448104566 3459.898706600519
2159.7985270311783 3321.4202853048205
2160.4214590938027 3136.6929735956974
2161.0442410334927 3230.7322106183688
2161.6668728853874 3579.6105924487556
2162.289354684628 3469.077775211647
2162.911686466332 3500.7123723422774
2163.533868265602 3626.876427073091
2164.1559001175337 3769.977586756167
2164.7777820572046 3708.20515619997
2165.399514119681 3576.1051560604997
2166.021096340013 3268.3679217566046
2166.6425287532384 3856.071116470642
2167.263811394385 3396.0872600064768
2167.8849442984574 3515.196715891417
2168.505927500455 3531.8950088944903
2169.126761035366 3554.238049893154
2169.7474449381552 3613.5817639538013
2170.367979243778 3325.205109385845
2170.9883639871823 3494.8939490972334
2171.608599203293 3386.855793287734
2172.2286849270276 3856.6989025721277
2172.8486211932886 4038.1672622882425
2173.4684080369625 3380.626068363776
2174.0880454929265 3386.207747088163
2174.7075335960417 3243.7995628110907
2175.3268723811543 3597.0069976183877
2175.9460618831 3486.3418755779885
2176.565102136701 3244.203011580242
2177.1839931767627 3901.688174458176
2177.802735038078 3465.4907061519393
2178.421327755432 3356.9391666447636
2179.0397713635866 3334.6794945068345
2179.658065897298 3142.736456902835
2180.276211391305 3475.3276814240844
2180.8942078803357 3475.406994778652
2181.5120553991 3435.1558941614435
2182.129753982299 3257.9603336773716
2182.7473036646206 3542.1690983366766
2183.3647044807367 3351.3579686367425
2183.9819564653044 3401.079202488841
2184.599059652968 3549.3820053195295
2185.216014078367 3675.1619749484935
2185.832819776113 2989.530837658158
2186.4494767808137 3587.8909411905142
2187.065985127063 3555.196751729002
2187.682344849436 3352.740346814741
2188.298555982501 3800.5001309265376
2188.9146185608097 3609.5741870457155
2189.530532618901 3263.4109864159154
2190.1462981912937 3366.6389929312963
2190.761915312507 3536.8080287790494
2191.377384017036 3593.0401841734374
2191.9927043393654 3465.543613449943
2192.6078763139667 3032.347406647471
2193.2228999753006 3106.394596052613
2193.837775357808 3180.6458343302047
2194.452502495922 3125.05165536473
2195.0670814240602 3355.6223035045014
2195.6815121766285 3374.0946046730496
2196.2957947880186 3701.419884485327
2196.9099292926057 3332.817038228835
2197.523915724758 3442.1496455376773
2198.137754118825 3529.7916202044
2198.7514445091456 3554.358028401338
2199.3649869300443 3322.45991751486
2199.9783814158327 3692.528014745323
2200.5916280008096 3901.7658001017626
2201.2047267192593 3457.8920934112502
2201.8176776054515 3661.9432854193365
2202.430480693649 3345.865632507688
2203.0431360180955 3441.942300825004
2203.6556436130195 3499.3731602593703
2204.268003512645 3173.7213207013947
2204.8802157511727 3753.293926680508
2205.492280362796 3613.325324064179
2206.1041973816937 3477.2366988860485
2206.715966842032 3363.1665917175437
2207.3275887779655 3276.6776231462636
2207.93906322363 3369.5865534120267
2208.550390213153 3370.7529195896823
2209.1615697806465 3430.5249792034183
2209.7726019602105 2896.1757739858544
2210.3834867859277 3129.622457268963
2210.9942242918787 3491.425132420272
2211.6048145121167 3331.9908018781293
2212.2152574806914 3864.7508520132915
2212.825553231638 3271.1791657730396
2213.435701798975 3260.7687168920506
2214.045703216707 3250.702413686485
2214.655557518832 3034.9750475054743
2215.2652647393297 3051.8624944506328
2215.874824912169 2944.3375718876187
2216.4842380713 3311.475374539567
2217.09350425067 3117.8311596874146
2217.7026234842033 3211.5272525945034
2218.311595805819 3560.7000375621756
2218.9204212494133 3262.2861231735346
2219.52909984888 3661.9814320825235
2220.137631638092 2946.069810649646
2220.7460166509154 3522.017557094668
2221.354254921198 3294.538991655925
2221.9623464827764 3370.806161037099
2222.5702913694713 3273.3742426850035
2223.178089615096 3266.3548475792236
2223.7857412534486 3301.06003712886
2224.39324631831 3174.468854481349
2225.000604843457 2950.965472806226
2225.607816862641 3451.358627158451
2226.214882409611 3377.582391004744
2226.8218015180973 3458.1095709434494
2227.4285742218217 3246.34083874306
2228.0352005544864 3168.685139664467
2228.6416805497847 3067.6262174989224
2229.248014241399 3164.848943504367
2229.8542016629945 3112.8908201504732
2230.460242848223 3358.2257843183334
2231.0661378307304 3677.9431782640263
2231.671886644139 3243.1427466542564
2232.277489322065 3217.5697679314776
2232.8829458981127 2859.0957465744973
2233.48825640587 3387.54335315598
2234.0934208789095 3647.4055947949687
2234.6984393507955 3544.972839051699
2235.3033118550793 3451.237145938977
2235.9080384252975 3361.8615064421297
2236.5126190949723 3046.2032515477617
2237.1170538976166 3085.161939285773
2237.721342866729 2736.756851009331
2238.32548603579 3292.1573176721745
2238.9294834382763 3375.36826201498
2239.533335107646 3096.629705267719
2240.1370410773434 3426.1732185718765
2240.740601380803 3201.307024289895
2241.3440160514474 3355.1695634664566
2241.9472851226783 3406.4124748934446
2242.550408627896 3432.0454613682205
2243.1533866004793 3457.7786458292185
2243.756219073799 3319.2503164045
2244.3589060812064 3012.3259329937996
2244.961447656049 3032.741889834871
2245.5638438316564 3273.498844778288
2246.166094641343 3307.6647314803936
2246.7682001184166 3183.5213830478133
2247.3701602961664 3444.6039554622557
2247.971975207871 3237.3072220016634
2248.5736448867974 3277.58362406574
2249.175169366197 3445.654815768224
2249.7765486793123 2969.5377663288377
2250.3777828593684 3336.781571254281
2250.9788719395783 3351.1739204808596
2251.579815953146 3158.1066025514747
2252.1806149332606 2912.4118832593977
2252.781268913097 3138.172337055377
2253.381777925817 3072.832616890989
2253.9821420045737 3158.4151995940265
2254.5823611825035 3417.684988873555
2255.1824354927303 3395.942283918846
2255.782364968365 3589.967389835578
2256.38214964251 2967.4467502943335
2256.9817895482483 2974.149757093943
2257.5812847186553 3471.8647141237234
2258.180635186791 2834.6417497239263
2258.779840985704 3276.1241361029247
2259.37890214843 3196.2064793496
2259.97781870799 3525.9298298099675
2260.5765906973957 3253.1844819459443
2261.175218149645 3081.043141763736
2261.773701097718 3462.858945392104
2262.3720395745895 2836.953501845145
2262.970233613216 2762.117232891789
2263.568283246548 3121.6007008611746
2264.1661885075137 3001.1785564315783
2264.763949429038 3238.333257468322
2265.3615660440246 3267.8904045252107
2265.959038385374 3043.9296679417557
2266.5563664859637 3085.641282891199
2267.153550378669 2882.7334589069073
2267.7505900963424 3188.0212419694
2268.3474856718312 3090.3836970880443
2268.9442371379664 3038.512688841968
2269.5408445275643 2696.6773652712045
2270.1373078734377 3105.996259726208
2270.7336272083758 3152.137366692997
2271.32980256516 3108.0045055904025
2271.925833976562 3121.9482570293912
2272.5217214753357 3362.9395429490187
2273.117465094223 3082.131028812273
2273.7130648659586 2894.5144301757064
2274.308520823257 3091.2488154137814
2274.903832998827 3420.8360368541207
2275.4990014253563 2898.3475330359784
2276.094026135528 3364.118622866412
2276.6889071620117 2803.345477012435
2277.2836445374614 3189.235362699493
2277.878238294519 3040.195217469001
2278.472688465812 3016.9898092064577
2279.066995083962 2993.6479571704417
2279.6611581815705 3152.47546356773
2280.255177791232 2988.7698107901333
2280.8490539455233 3491.2969087830074
2281.442786677013 3226.8862141377695
2282.0363760182554 3217.416862690586
2282.6298220017943 3176.9993206457093
2283.223124660155 3376.819556333754
2283.816284025859 3071.5011927166524
2284.4093001314086 2897.671469819555
2285.002173009292 2723.4978274138566
2285.5949026919952 3033.7273193114356
2286.1874892119777 2775.3330248635957
2286.7799326016993 2996.6551042449546
2287.3722328936 2834.7819876988833
2287.964390120109 2784.0788382710593
2288.556404313642 3136.184470688054
2289.1482755066027 2962.336123720293
2289.7400037313873 2788.0716535648667
2290.3315890203703 3036.5047400166013
2290.9230314059205 2519.184224129895
2291.5143309203904 3028.77966395428
2292.1054875961236 2868.439310743979
2292.6965014654506 3248.089443609065
2293.287372560684 3140.342937631601
2293.878100914131 3454.722809432367
2294.468686558086 2916.6636251100194
2295.059129524827 3080.533222091571
2295.649429846617 3302.060861380075
2296.239587555716 3241.824807318512
2296.8296026843636 3210.014303319841
2297.419475264791 3657.1266500357538
2298.0092053292137 3231.9795239188206
2298.598792909839 3165.885281285528
2299.1882380388597 3072.255664782033
2299.777540748455 3407.7124841143473
2300.3667010707904 3342.5567942650837
2300.9557190380256 3301.1975938556525
2301.544594682302 3532.5411844540154
2302.1333280357503 2745.8431373088665
2302.721919130485 3316.2017636902215
2303.3103679986198 3224.9614467825118
2303.898674672242 3183.7877722741564
2304.486839183437 2832.129244521702
2305.0748615642697 3173.296447339448
2305.6627418468015 2690.9196657792036
2306.2504800630704 2994.3667319443784
2306.8380762451143 2837.6852621209114
2307.425530424949 3027.95092431809
2308.012842634582 3218.6297070644364
2308.6000129060103 3274.2157125686936
2309.187041271214 3471.2783166013005
2309.773927762164 2984.102700187991
2310.3606724108213 3147.2293916690564
2310.9472752491274 2999.419493816701
2311.5337363090184 2893.7534702868793
2312.120055622414 3178.4788974161447
2312.706233221221 3064.6202222761685
2313.2922691373424 2825.9165209202492
2313.8781634026564 3298.575556443069
2314.463916049037 2873.8842876455656
2315.049527108342 3119.071689970244
2315.6349966124235 3208.3700121625625
2316.2203245931123 3320.8906896791414
2316.8055110822315 2910.466773264953
2317.3905561115935 3002.939063249878
2317.9754597129977 2611.000205010389
2318.560221918229 3296.106453809577
2319.1448427590603 3099.3069044292342
2319.729322267256 2585.179110661678
2320.313660474563 3120.119146706628
2320.8978574127195 3129.155478977972
2321.481913113452 3138.371871465714
2322.0658276084705 2733.9777950313264
2322.6496009294806 2976.7676912708603
2323.233233108165 3337.3827464783244
2323.8167241762058 3142.6945787474638
2324.4000741652617 3205.7132884938555
2324.983283106987 3288.8349218114877
2325.5663510330232 3363.443981200851
2326.1492779749933 3106.1183478756743
2326.7320639645204 3122.5966958028316
2327.3147090332004 2639.3924282775165
2327.897213212629 2751.8792602502917
2328.4795765343843 2864.311397858015
2329.0617990300307 2813.6786021129546
2329.643880731124 3294.077982671998
2330.22582166921 3213.3867335040118
2330.807621875816 3139.584511964917
2331.3892813824623 2767.5903892189876
2331.9708002206517 2656.4422667341196
2332.5521784218818 2862.001926930654
2333.133416017634 3068.105527828826
2333.7145130393765 2906.2648292938875
2334.295469518571 3096.8068531255844
2334.876285486658 3067.781665609088
2335.456960975076 2823.598799697329
2336.037496015242 2922.5042439412773
2336.6178906385667 2997.732346200113
2337.198144876451 3217.114658459386
2337.778258760278 2786.9115320993715
2338.3582323214214 2644.2054848874564
2338.938065591243 3051.289931856801
2339.517758601087 2989.297838117514
2340.0973113822965 3002.867003474551
2340.676723966193 2805.9172400905945
2341.255996384094 2838.143679601045
2341.835128667295 3134.8679333766718
2342.4141208470883 3046.352653369557
2342.992972954751 3042.534832552167
2343.5716850215467 3014.4064383756286
2344.1502570787306 2376.9959562853683
2344.7286891575386 2858.642211674608
2345.3069812892045 3248.8255659450956
2345.885133504944 3093.076215336654
2346.4631458359618 2668.7196045267624
2347.04101831345 2954.4921240570516
2347.6187509685915 3386.9646468695564
2348.196343832553 2895.320275594159
2348.7737969364935 2764.416801016919
2349.351110311558 2872.699736832773
2349.9282839888765 2881.58252551919
2350.5053179995757 2762.929993402888
2351.0822123747585 2689.7524874876403
2351.658967145526 3241.9911374420076
2352.2355823429643 2888.8914497456058
2352.812057998144 3084.6063599060103
2353.3883941421263 2843.4524608012953
2353.9645908059647 3009.8998404053045
2354.540648020693 3050.072050291607
2355.116565817336 2766.154398972946
2355.6923442269126 2957.974245438932
2356.2679832804224 2683.943055179531
2356.8434830088518 2633.782054923965
2357.41884344318 2735.6136165233393
2357.994064614377 2694.0297263603284
