#exp_cfg={"servo_angle": 0.0, "laser_lim": 100.0, "servo_angle_to": 18.0, "laser_wup": 0.0, "bt_dev": "EnSpectr-25AE3", "laser_wdn_max": 0.0, "frames": 10.0, "servo_used": 0, "servo_calib_use": 0, "laser_wdn_min": 0.0, "servo_pix_from": 90.0, "cooler_tout": 300.0, "servo_angle_from": 0.0, "servo_calib": "[-1.9174921013161362e-09, 3.9322238269163779e-05, -0.27385609119055809, 653.59552119713567]", "laser_autoctl": 0, "servo_pix_to": 3682.0, "laser_pw": 100.0, "cooler_on": 0, "laser_volt": 4.0, "cooler_autoctl": 0, "cooler_curr": 70.0, "cooler_startup": 10.0, "laser_fixed_pw": 0, "gain": 1.3, "offset": 2.53059635486, "servo_calib_degree": 3.0, "laser_curr": 55.0, "shutter": 8200.0, "servo_calib_step": 1.0, "laser_fixed_curr": 0, "exp": 2000.0, "ccd_volt": 4.7, "bt_addr": "00:06:66:62:5A:E3", "servo_delay": 500.0, "laser_autooff": 1}
#proc_cfg={"flat_auto_wnd": 200.0, "flat_auto_fr": 200.0, "flat_auto_shift": 5.0, "yconv": 1, "flatten": 1, "flatten_strength": 100.0, "xfrom": 300.0, "auto_max_frame": 2000.0, "auto_signal": 48000.0, "flat_auto_tol": 0.1, "autoclip": 1, "xrel_range": 0.0, "flat_auto_to": 4000.0, "intensity_adj": 1.0, "xrel": 7852.0, "rmhot": 1, "flat_auto_slit": 4.999999999999997, "auto_ini_exp": 300.0, "auto_off": 0, "xto": 2860.0, "flat_auto_ref": "", "flat_auto_rank": 1, "autobackg": 0, "xrel_adj": 0.0, "auto_black_lvl": 1, "base_wnd": 100.0, "sub_baseline": 0, "xconv": 2, "auto_max_exp": 1000.0, "auto_total_exp": 10000.0, "auto_exp": 0, "rmripple": 0, "black_lvl": 8285.375, "shutter_clip_adj": 0.0, "auto_bckg": 0, "flat_auto_thr": 0.9, "subbackg": 1}
316.8218498245369 27183.58982565797
317.89969571804795 26837.598877697812
318.977263876126 26834.440185131
320.05455438786703 26644.128824558902
321.1315673423287 26538.716135654868
322.2083028285215 26613.445347535173
323.2847609354267 26308.450292060308
324.3609417519747 26216.59176285595
325.43684536705587 26037.85971226249
326.5124718695279 25889.273786234542
327.58782134820103 25936.030303468906
328.66289389184385 25814.20823276717
329.7376895891921 25538.962884240667
330.8122085289342 25556.282415853424
331.88645079971866 25622.54433950605
332.9604164901575 25332.89615804778
334.03410568881554 25312.53202686106
335.1075184842266 25504.905402219756
336.18065496487543 25084.00991343934
337.2535152192122 25087.75072420856
338.32609933564163 25105.51565284244
339.39840740253203 24947.024718990477
340.4704395082099 24963.24996292806
341.5421957409617 24781.125767216425
342.6136761890357 24922.267669149758
343.6848809406365 24744.04354617381
344.75581008392874 24562.644972313792
345.82646370703696 24510.146923560376
346.8968418980512 24459.260770814857
347.96694474501055 24506.216680712445
349.0367723359268 24475.09891844754
350.106324758759 24444.57897410071
351.1756021014353 24282.87860903018
352.2446044518383 24320.386658041643
353.31333189781435 24380.297361942936
354.38178452716966 24291.82901695076
355.449962427665 24281.09029664358
356.51786568702846 24316.02629493166
357.58549439294256 24499.43348964249
358.6528486330535 24365.795648953608
359.71992849496564 24343.803960099234
360.7867340662433 24294.040870716133
361.8532654344144 24438.2043064182
362.9195226869597 24430.616632677786
363.9855059113288 24298.73303461351
365.05121519492604 24314.52830050198
366.11665062511565 24472.39931188842
367.1818122892273 24572.64707223496
368.2467002745434 24557.087392160905
369.31131466831175 24678.507208078772
370.375655557742 24682.243222680954
371.4397230299983 24652.493233384248
372.5035171722102 24768.606679185246
373.5670380714637 24718.805530894657
374.6302858148101 24994.270313723395
375.6932604892554 24833.04382945267
376.7559621817709 24931.80229031524
377.81839097928605 24724.497838513293
378.8805469686886 24818.791464473583
379.94243023683157 24694.14184512494
381.0040408705263 24798.262125600882
382.0653789565458 24592.826939356746
383.1264445816196 24661.21002759814
384.1872378324406 24599.043032583133
385.2477587956637 24716.212304309673
386.3080075579037 24486.186751249043
387.3679842057336 24563.680701628946
388.4276888256918 24525.94385094104
389.48712150426945 24570.518098687466
390.54628232792857 24414.62687205345
391.6051713830857 24274.920088377305
392.66378875611736 24259.547622719158
393.7221345333637 24145.532907069915
394.7802088011249 24025.37984649282
395.838011645661 23894.641624017822
396.89554315319765 23707.756064173886
397.9528034099112 23695.51132071825
399.00979250194723 23611.025436017797
400.06651051541485 23454.070135388894
401.1229575363741 23542.21209031997
402.17913365085224 23428.601302665917
403.23503894483656 23517.119027245953
404.2906735042761 23280.27572228742
405.3460374150818 23124.910130653025
406.401130763119 23138.81244078288
407.455953634224 23132.64261280152
408.5105061141876 23204.091754953064
409.56478828876243 22719.034060707592
410.6188002436629 22878.798383053636
411.6725420645689 22824.394403113354
412.72601383711117 22773.793891546888
413.77921564689314 22796.98312513644
414.8321475794728 22613.83835145791
415.88480972036814 22571.68201338182
416.93720215506437 22779.18978301869
417.9893249690049 22348.137657944557
419.04117824759123 22318.825355756573
420.09276207619223 22335.061336002538
421.144076540133 22298.99549102523
422.1951217247042 22308.678727485698
423.24589771515275 22243.711767549736
424.2964045966928 22106.250353740288
425.34664245449494 22114.77570350398
426.3966113736933 22120.17537909354
427.4463114393875 22016.363862782462
428.49574273662984 22077.333036413525
429.5449053504417 21932.48763013797
430.5937993658026 22051.600972850345
431.6424248676558 21807.03270615339
432.6907819409007 21876.300846865404
433.73887067040596 21924.76654523583
434.7866911409965 21833.3104496565
435.8342434374608 21941.835767919252
436.88152764455117 21686.241794490637
437.9285438469724 21728.838323894703
438.9752921294057 21640.548464632997
440.02177257648145 21694.11928403323
441.06798527279716 21537.36502214564
442.1139303029122 21737.09911890704
443.1596077513459 21567.392437749997
444.2050177025794 21672.943031957526
445.25016024105753 21582.740528796898
446.2950354511886 21558.608576198512
447.33964341733736 21599.945883152624
448.383984223834 21517.172357519597
449.4280579549686 21387.96304718528
450.471864694995 21559.2467583279
451.5154045281306 21540.596569186477
452.5586775385509 21419.29651194868
453.60168381039693 21397.93899502389
454.64442342776783 21558.04189870988
455.6868964747264 21415.083141805513
456.7291030353008 21373.788994450257
457.77104319347563 21448.787433430254
458.8127170332027 21383.760008010573
459.854124638392 21390.870699480995
460.895266092919 21564.030937880372
461.93614148061897 21527.301643324136
462.97675088529104 21664.500274963983
464.01709439069236 21473.206483168517
465.0571720805492 21570.043884502804
466.0969840385442 21532.073095907424
467.1365303483253 21751.605214513675
468.17581109350067 21575.790891927023
469.2148263576437 21624.08205876635
470.2535762242878 21749.923180112128
471.29206077693016 21848.427468344325
472.33028009902773 21938.78362438386
473.3682342740012 21930.810019911827
474.40592338523857 22077.699818612888
475.4433475160804 22129.542528616726
476.4805067498364 22112.87622836825
477.51740116978 22397.63827481962
478.5540308591426 22517.031652766702
479.59039590112116 22862.346258182482
480.6264963788726 22844.252946995482
481.6623323755193 23421.541561175778
482.6979039741436 23463.30745562495
483.7332112577915 23919.399142518534
484.76825430947247 24378.42354452371
485.80303321215797 24532.919251404855
486.837548048783 24748.100138041013
487.8717989022425 25267.522011992143
488.90578585539697 25312.71942060716
489.9395089910686 25552.209685209724
490.97296839203955 25506.17992619443
492.00616414106116 25345.13995724322
493.0390963208429 25284.538661935374
494.0717650140559 25333.30003800928
495.10417030333883 24966.239407079636
496.1363122712901 24670.54746201045
497.16819100046814 24335.896580841672
498.1998065734024 24082.065826464066
499.2311590725767 23706.211618308305
500.26224858044407 23443.946069327467
501.2930751794156 23069.223055089085
502.3236389518679 22956.429783325693
503.35393998014115 22425.404262584372
504.38397834653733 22434.995270899602
505.4137541333221 22307.02310240431
506.4432674227228 21983.113791072556
507.4725182969323 21824.222530342064
508.5015068381035 21754.664534575342
509.53023312835467 21603.392247300348
510.55869724976765 21645.899381143838
511.58689928438434 21274.533582140466
512.6148393142121 21381.872398481424
513.6425174212218 21421.720643376902
514.6699336873462 21408.741286955203
515.6970881944835 21314.123523158698
516.7239810244901 21279.012536372178
517.7506122591931 21179.16948077256
518.7769819803761 21282.273195113496
519.8030902697901 21228.27209450011
520.8289372091476 21266.44981907981
521.8545228801249 21355.38479095236
522.8798473643619 21222.898046052607
523.9049107434621 21174.658789259283
524.9297130989908 21270.234617840946
525.9542545124805 21215.74884017003
526.9785350654201 21191.38222872136
528.0025548392696 21188.29171695756
529.0263139154504 21084.232109675395
530.0498123753423 21114.511005472894
531.073050300296 20976.402368288047
532.0960277716204 20840.176528402182
533.1187448705896 20926.61215248754
534.1412016784416 20749.31821936841
535.1633982763833 20690.636523161
536.1853347455726 20484.84709179152
537.2070111671401 20475.532907052933
538.2284276221817 20389.303588078434
539.2495841917516 20313.73251923787
540.2704809568677 20081.18241778649
541.2911179985167 20165.37300577929
542.3114953976419 19955.62404228808
543.3316132351592 20030.00167046428
544.3514715919409 19729.30297676824
545.3710705488247 19805.703874683033
546.3904101866156 19673.651382811622
547.4094905860784 19851.972992787112
548.4283118279418 19662.16548689658
549.4468739929034 19769.6895676532
550.4651771616191 19568.30555111574
551.4832214147063 19557.05824978493
552.501006832761 19644.870856306035
553.5185334963226 19579.168396005472
554.5358014859103 19459.331063956233
555.5528108820035 19596.191485607
556.5695617650363 19467.122002526303
557.5860542154242 19641.716670932423
558.6022883135283 19398.8737122456
559.6182641396881 19388.331203962738
560.6339817741991 19413.235702507536
561.6494412973225 19557.49858085088
562.6646427892883 19508.873204355506
563.6795863302796 19419.35637690325
564.694272000459 19445.03170646371
565.7086998799423 19567.80438917787
566.7228700488104 19455.707117016693
567.7367825871115 19502.634176247844
568.7504375748576 19466.358796040648
569.7638350920224 19546.973998668036
570.7769752185486 19428.322235292293
571.7898580343353 19543.1099070257
572.802483619258 19474.243266579164
573.8148520531431 19764.64862273151
574.8269634157932 19802.751608185234
575.8388177869692 19753.70742215826
576.8504152463938 19915.39538639166
577.8617558737587 20220.701864295457
578.8728397487175 20162.971028621945
579.883666950891 20371.01597510599
580.8942375598654 20594.262976370752
581.9045516551851 20834.513388344636
582.9146093163617 21117.635453269828
583.924410622878 21093.287597104107
584.9339556541727 21161.978862342068
585.9432444896538 21417.700287865046
586.9522772086875 21414.235932851618
587.9610538906127 21360.597113707034
588.9695746147318 21184.9017904892
589.9778394603054 21364.04643819895
590.985848506567 21095.042534247652
591.9936018327098 21132.208604580468
593.0010995178891 20712.6057307947
594.0083416412344 20828.752992924186
595.0153282818283 20401.799642201724
596.0220595187293 20335.266826122643
597.0285354309508 20179.56281568195
598.0347560974806 20066.392914248463
599.0407215972609 19928.689464652816
600.0464320092051 19880.68616787388
601.0518874121954 19834.22172704877
602.0570878850685 19703.783601432027
603.062033506636 19720.007852009385
604.0667243556636 19675.60877912475
605.0711605108936 19637.378594445872
606.0753420510264 19888.42376450082
607.0792690547278 19785.949049366587
608.082941600629 19809.805442428835
609.0863597673306 19730.601085726907
610.0895236333909 19963.93531161155
611.0924332773357 20255.63953778595
612.0950887776617 20447.940065856703
613.0974902128219 20486.287471788328
614.0996376612384 20790.096260061564
615.1015312013005 20940.94816052584
616.1031709113595 21200.977701354186
617.1045568697336 21233.9374403107
618.1056891547069 21781.769636744706
619.1065678445229 21951.986115233598
620.1071930173985 22607.661202120093
621.1075647515099 22848.22766727696
622.1076831250048 23259.994210923687
623.1075482159849 23639.051653375926
624.1071601025305 23940.917288482062
625.1065188626781 24351.00358401919
626.105624574433 24875.892311840325
627.1044773157682 25141.101645593346
628.1030771646128 25464.746935410465
629.1014241988742 25721.71714283173
630.0995184964158 26214.771655871253
631.0973601350688 26345.635289862774
632.0949491926294 26630.527062086254
633.0922857468631 26229.258210507844
634.089369875499 26388.097058420237
635.0862016562278 26267.66765462933
636.0827811667077 26059.89670132482
637.0791084845641 25779.646062042615
638.0751836873878 25549.2681079534
639.0710068527369 25229.690256199665
640.0665780581294 24709.678216142456
641.0618973810506 24325.725451748585
642.0569648989604 24005.723317225584
643.0517806892676 23511.493364904058
644.0463448293649 23054.40909961881
645.040657396592 22555.00299669948
646.0347184682723 22167.58313985649
647.0285281216875 21857.969460035987
648.0220864340772 21603.106012796612
649.0153934826558 21185.241256404104
650.0084493446047 21002.22934418574
651.0012540970674 20684.091499689817
651.9938078171526 20526.983946283413
652.9861105819346 20271.838598821665
653.9781624684565 20249.545204489797
654.9699635537254 19814.37937312878
655.9615139147136 19759.82856467295
656.9528136283589 19522.72222677387
657.9438627715699 19586.34206270846
658.9346614212154 19375.099377051585
659.925209654135 19141.606867591698
660.9155075471263 19218.935746587627
661.9055551769616 19083.854728679
662.895352620375 19149.43703770676
663.8848999540678 19074.280104823647
664.8741972547068 18738.54848960781
665.863244598926 18763.784839530912
666.8520420633213 18678.128868868538
667.8405897244611 18682.41476416028
668.8288876588758 18454.544746730287
669.8169359430613 18663.374163160624
670.8047346534822 18571.905432351963
671.7922838665672 18480.440418206996
672.7795836587156 18440.707101793825
673.766634106285 18844.8424579712
674.7534352856092 18326.71914719123
675.7399872729766 18432.444328883226
676.7262901446538 18455.15331938968
677.712343976862 18510.225399142164
678.6981488457986 18544.034770764585
679.6837048276229 18393.4594544487
680.6690119984596 18344.25370420732
681.6540704344043 18336.751984513667
682.6388802115107 18221.56516219915
683.6234414058108 18210.82266441374
684.6077540932874 18117.84235097799
685.591818349907 18090.081461598824
686.575634251587 18050.453065609458
687.5592018742263 17900.904045861033
688.5425212936734 17856.926945408097
689.5255925857564 17796.343264716317
690.5084158262707 17715.023698380777
691.4909910909646 17671.463595505193
692.4733184555644 17555.913070429335
693.4553979957618 17554.05553997121
694.4372297872123 17429.261417398717
695.4188139055404 17473.272427714535
696.4001504263324 17304.541618255847
697.3812394251509 17493.47432801149
698.3620809775111 17347.90045350789
699.3426751589104 17491.077778902785
700.3230220448004 17264.96470411896
701.3031217106054 17416.99875540194
702.2829742317172 17513.263811948367
703.2625796834873 17308.5262237235
704.2419381412474 17227.241782189893
705.22104968028 17429.467813191477
706.1999143758458 17277.295184899885
707.178532303169 17398.760263726388
708.1569035374378 17436.637694085446
709.1350281538107 17468.166223688728
710.1129062274158 17430.498549523152
711.0905378333373 17637.388293244057
712.0679230466376 17524.202230575072
713.0450619423427 17766.182262171053
714.0219545954424 17819.008211169836
714.9986010808989 17734.21765752724
715.9750014736292 17942.903474259176
716.9511558485392 18125.376354196407
717.9270642804786 18191.35590069867
718.9027268442787 18413.479889865914
719.8781436147328 18389.90359548577
720.8533146666014 18379.159685266066
721.828240074612 18334.542854668518
722.8029199134635 18273.242492092177
723.7773542578125 18250.86110236971
724.751543182294 18127.229193002247
725.7254867615029 18102.99481828761
726.6991850700015 17776.514116940874
727.6726381823228 17691.295646516894
728.6458461729599 17736.911145576065
729.6188091163858 17554.98758067842
730.5915270870246 17514.634590424903
731.5640001592856 17310.718167631778
732.536228407529 17511.195446069953
733.5082119060917 17399.83677854725
734.4799507292755 17309.49031945444
735.4514449513481 17237.629718976223
736.4226946465496 17500.16340130085
737.3936998890786 17496.145523277228
738.3644607531078 17399.824811072573
739.3349773127793 17249.281082632697
740.3052496421951 17331.37658627906
741.27527781543 17164.278949275857
742.2450619065221 17068.912798611353
743.2146019894826 17041.44592963176
744.183898138288 16931.04389972479
745.1529504268801 16932.40537326727
746.1217589291682 16733.94321896055
747.0903237190341 16552.66002872199
748.058644870318 16610.49071321971
749.0267224568397 16533.267714422593
749.994556552374 16285.37687654912
750.9621472306771 16436.959303056392
751.9294945654583 16455.239886892123
752.8965986304011 16374.998451495241
753.8634594991636 16326.641423587378
754.8300772453586 16479.322713633246
755.7964519425768 16443.51281589215
756.762583664371 16514.22033709677
757.7284724842611 16408.60017371521
758.6941184757416 16249.922070115495
759.6595217122667 16442.041134023533
760.6246822672638 16373.458047054786
761.5896002141235 16201.161006825769
762.5542756262093 16353.133147693801
763.5187085768503 16357.564731291593
764.4828991393406 16309.123078550681
765.4468473869474 16299.490333110301
766.4105533929032 16282.632902391491
767.3740172304078 16145.874028340037
768.3372389726283 16231.26935578617
769.3002186926988 16048.19871293568
770.2629564637282 15840.120256052473
771.2254523587872 15925.651542933361
772.1877064509154 15653.869920178442
773.1497188131179 15569.155783301423
774.1114895183728 15449.413193923701
775.0730186396268 15568.325706889891
776.0343062497905 15409.276997106635
776.9953524217381 15385.921577237988
777.9561572283274 15270.059042949808
778.9167207423689 15302.150261042592
779.8770430366476 15222.114347000426
780.8371241839159 15303.698505640048
781.7969642568951 15258.677411787843
782.7565633282757 15479.553402365878
783.7159214707099 15224.143886063472
784.6750387568281 15256.061248272887
785.6339152592227 15269.042146770265
786.5925510504512 15199.66485509874
787.5509462030477 15307.656585887613
788.5091007895098 15303.516892603506
789.4670148823006 15352.382085442752
790.4246885538596 15270.916420072617
791.3821218765861 15259.887021553495
792.3393149228505 15215.621069180555
793.2962677649975 15375.770861437715
794.2529804753303 15339.627405517831
795.20945312613 15331.431721315963
796.1656857896378 15395.567355086274
797.1216785380675 15441.649042721803
798.0774314435985 15675.278331344898
799.0329445783846 15781.844613216814
799.9882180145414 15870.249998981279
800.9432518241574 16046.121988352195
801.89804607929 16230.26758180185
802.852600851962 16407.242493286565
803.8069162141637 16456.80982438256
804.760992237856 16580.2646505331
805.714828994971 16748.627313114128
806.6684265574077 16740.339070400096
807.6217849970271 16761.773321614517
808.574904385674 16621.557798367907
809.527784795142 16724.691440174796
810.4804262972102 16770.606416567232
811.4328289636178 16464.19669931211
812.3849928660748 16263.821234100873
813.3369180762638 16145.07615615302
814.2886046658241 16058.971721725567
815.2400527063783 15707.090795557839
816.1912622695108 15548.068869369454
817.1422334267718 15509.656724678998
818.0929662496856 15281.40525188194
819.0434608097457 14995.42357575761
819.9937171784059 14979.854205532023
820.9437354271013 14770.792050805403
821.8935156272255 14795.3642542813
822.8430578501484 14607.762680907861
823.7923621672016 14353.343178480203
824.7414286496896 14460.283634827394
825.6902573688876 14404.371900234135
826.6388483960363 14366.928645980515
827.5872018023492 14174.023177188938
828.5353176590033 14387.261117543507
829.4831960371503 14039.236472543536
830.4308370079016 14044.142552465322
831.3782406423525 14122.471814166094
832.3254070115545 14133.44001485907
833.2723361865319 13951.483598688157
834.2190282382799 14017.25225880158
835.1654832377644 14093.356765515704
836.1117012559116 14028.20654551715
837.0576823636256 14113.017403260475
838.003426631778 13901.774204675912
838.9489341312074 13831.655635242689
839.8942049327197 13988.040341009813
840.8392391070975 13992.198823741535
841.7840367250865 13913.100648763913
842.7285978573982 13803.121274409536
843.672922574724 14026.941174384881
844.6170109477152 13855.187124350534
845.560863046996 13951.181175494086
846.5044789431595 13895.837490827911
847.4478587067697 13930.06262290565
848.3910024083561 14054.395307516703
849.333910118421 14031.84255685507
850.2765819074339 13900.37631529608
851.2190178458332 14038.239429447069
852.161218004032 14082.819805283021
853.1031824524016 14033.833729461947
854.0449112612987 13971.302356355134
854.9864045010327 14086.826108537134
855.9276622418947 13965.68832783482
856.8686845541379 13911.872669253407
857.8094715079915 13849.50031063989
858.7500231736467 14038.417603788315
859.690339621271 14008.49656734618
860.6304209209939 13983.179826482674
861.5702671429244 13877.93851784053
862.5098783571284 14107.57855031875
863.4492546336569 14056.018910798686
864.3883960425155 14069.834178332207
865.3273026536863 14129.902002580111
866.2659745371238 14140.503768909684
867.2044117627465 14272.154624611241
868.1426144004472 14281.258338507187
869.0805825200823 14334.612967923935
870.0183161914847 14438.723875873795
870.9558154844526 14597.173726195708
871.8930804687552 14560.219715406627
872.8301112141307 14465.271549407486
873.7669077902865 14799.65821864614
874.7034702669062 14898.87959099501
875.6397987136315 14907.315488820308
876.5758932000863 14959.696926737795
877.5117537958522 15150.90183402757
878.4473805704911 15176.049625724776
879.3827735935283 15115.144744296118
880.3179329344603 15263.867166915636
881.2528586627541 15330.835410276606
882.1875508478479 15399.195120310877
883.1220095591489 15183.962394590766
884.0562348660296 15136.675806680174
884.9902268378391 15290.323970277066
885.9239855438955 15119.633587598128
886.8575110534839 15008.26312740766
887.7908034358588 14914.247992023767
888.7238627602474 14870.88804175598
889.6566890958475 14837.183178747422
890.5892825118208 14535.928474226728
891.5216430773125 14493.484470475256
892.4537708614189 14510.975507612926
893.3856659332196 14187.164562698337
894.3173283617652 14094.141668631837
895.2487582160684 14048.004318515264
896.179955565116 14005.117201460947
897.110920477864 13724.595858743323
898.0416530232451 13726.490650039399
898.9721532701478 13568.309427984705
899.9024212874428 13650.261347202899
900.8324571439662 13456.572621315416
901.7622609085302 13314.94986981368
902.6918326499072 13246.812850650807
903.6211724368477 13264.838093319584
904.5502803380696 13333.48386945645
905.4791564222614 13358.3678946225
906.4078007580792 13026.674648187442
907.3362134141571 13201.012601646295
908.2643944590909 13135.749889297109
909.1923439614493 13038.757908395046
910.1200619897754 12995.48483427823
911.0475486125779 13219.441078217802
911.9748038983344 12975.747924138543
912.9018279155007 12937.37107103945
913.8286207324982 12839.46387061619
914.7551824177117 12957.147965048776
915.6815130395116 12885.366272952508
916.6076126662283 12812.746033013758
917.533481366163 12850.697512925495
918.4591192075914 12785.685095107885
919.3845262587565 12871.248307159327
920.3097025878706 12674.56157899144
921.2346482631237 12806.321610914652
922.1593633526682 12789.319072467717
923.0838479246304 12800.682919940067
924.0081020471061 12903.157470852168
924.9321257881656 12625.72088593768
925.8559192158464 12676.635004371396
926.7794823981512 12641.431526358278
927.7028154030686 12635.15660136196
928.6259182985414 12492.969503406997
929.5487911524906 12756.323444238189
930.4714340328119 12746.307862715154
931.3938470073608 12458.629943414064
932.3160301439748 12636.523200453938
933.2379835104548 12557.23483652043
934.1597071745709 12574.417465824263
935.0812012040769 12602.961895243709
936.002465666681 12614.934359485243
936.9235006300696 12592.46372595381
937.8443061619055 12619.721685700328
938.7648823298077 12426.338654982163
939.6852292013809 12487.290056631262
940.6053468441951 12655.967155820439
941.5252353257874 12398.245093520869
942.4448947136698 12411.973748941073
943.364325075323 12502.314666679595
944.2835264782043 12612.930740810436
945.2024989897309 12467.782349178144
946.1212426773054 12535.215724280588
947.0397576082851 12551.047390847416
947.9580438500125 12586.296546034315
948.8761014697939 12684.650581529662
949.7939305349064 12620.432904420695
950.7115311125999 12531.618053336939
951.6289032700952 12490.744857103628
952.5460470745875 12602.198303614929
953.4629625932339 12474.0220426138
954.3796498931715 12655.173697212367
955.2961090415029 12566.368357896497
956.2123401053068 12629.84996285376
957.1283431516276 12513.974450297152
958.0441182474842 12419.034030767756
958.9596654598663 12545.156390515222
959.8749848557309 12540.55877448565
960.7900765020167 12441.53624057522
961.7049404656209 12404.50650740538
962.6195768134185 12436.728418932194
963.5339856122537 12373.421018403478
964.4481669289453 12495.959669511063
965.3621208302793 12432.614620311706
966.2758473830145 12369.376158438581
967.1893466538822 12560.848470824787
968.1026187095813 12360.021702852906
969.0156636167867 12469.316171530514
969.9284814421426 12444.405689608091
970.8410722522622 12445.349508801217
971.753436113735 12390.988245860783
972.6655730931161 12400.775292694352
973.5774832569368 12511.81909932259
974.4891666716958 12437.663195577128
975.4006234038698 12341.17031755182
976.3118535198955 12495.454334862912
977.2228570861935 12585.669801710781
978.1336341691494 12534.563961420537
979.0441848351202 12402.833628724258
979.9545091504333 12545.955757232276
980.864607181391 12743.451238449903
981.7744789942699 12644.070639746327
982.6841246553086 12634.986097427545
983.5935442307236 12569.995844864105
984.5027377867027 12760.950721727315
985.4117053894024 12752.440319392386
986.3204471049557 12660.408158199756
987.2289629994648 12749.749809677
988.1372531390007 12954.953385168295
989.0453175896091 12810.057052695991
989.9531564173067 12858.449024517911
990.860769688079 12761.039654516435
991.7681574678918 12928.963336034065
992.6753198226706 13009.171712354535
993.582256818323 12990.331649520062
994.4889685207218 13041.630605736054
995.3954549957143 13377.395191537169
996.301716309119 13367.194686845067
997.2077525267232 13382.909358305644
998.1135637142943 13337.502530629226
999.0191499375615 13531.57626670161
999.924511262232 13440.705832649212
1000.8296477539861 13435.280210329005
1001.7345594784656 13353.044338460448
1002.6392465012996 13326.547186857544
1003.5437088880753 13326.218362910144
1004.4479467043584 13267.05970089192
1005.3519600156869 12888.046843093525
1006.2557488875718 13095.998694469645
1007.1593133854858 13016.818881618765
1008.0626535748888 13036.086439435021
1008.9657695212009 12913.465268327885
1009.8686612898182 13071.370834061736
1010.7713289461135 12940.897937999162
1011.6737725554212 12856.832198416652
1012.5759921830577 12934.415120908781
1013.4779878943027 12831.21064511201
1014.379759754418 12901.601985690124
1015.2813078286254 12718.744531738555
1016.18263218213 12566.1198210882
1017.0837328801026 12551.459673365342
1017.9846099876886 12703.904554512563
1018.8852635700023 12437.217032301627
1019.7856936921362 12276.721693139303
1020.6859004191447 12440.653675337822
1021.5858838160675 12333.835514599898
1022.4856439479063 12200.359681671831
1023.3851808796389 12160.466600265969
1024.2844946762143 12358.047028335795
1025.183585402554 12129.035929806385
1026.082453123554 11995.503789676723
1026.9810979040776 12104.254201370128
1027.8795198089647 11947.908721531892
1028.777718903024 12074.388732371859
1029.6756952510368 11852.500675886793
1030.5734489177648 11897.983341206396
1031.4709799679313 11903.4855961713
1032.3682884662358 11968.791693883952
1033.2653744773506 11803.400679373666
1034.1622380659192 11789.244833220593
1035.058879296559 11844.726693102562
1035.9552982338591 11894.633861198685
1036.8514949423825 11944.646137199643
1037.7474694866614 11878.502523550776
1038.6432219312028 11909.289137855725
1039.5387523404825 12112.338906600942
1040.4340607789582 12050.281579283515
1041.3291473110476 12108.092088008529
1042.2240120011465 12293.297211295972
1043.1186549136273 12233.17316350505
1044.0130761128294 12233.307639056764
1044.9072756630649 12275.055827509053
1045.8012536286205 12500.207167254444
1046.6950100737577 12387.452994207582
1047.588545062701 12476.0894069136
1048.481858659663 12403.39214062411
1049.3749509288118 12606.324267396565
1050.2678219343034 12430.317409228455
1051.1604717402515 12505.118758319311
1052.0529004107575 12450.250195881188
1052.9451080098825 12554.278983694163
1053.8370946016694 12410.89986346605
1054.7288602501267 12474.58698280053
1055.6204050192446 12388.775385422461
1056.511728972977 12588.445922201889
1057.402832175254 12366.771419340514
1058.2937146899785 12240.557276038915
1059.1843765810263 12215.387407081173
1060.0748179122456 12537.423082344429
1060.9650387474576 12350.432921898606
1061.855039150456 12393.31230558591
1062.7448191850071 12365.70379590031
1063.6343789148505 12409.075150398221
1064.5237184037014 12363.567564580335
1065.412837715241 12202.55458050263
1066.3017369131267 12183.21458948042
1067.190416060992 12317.287757188045
1068.0788752224398 12141.46686436543
1068.9671144610438 12204.561320998164
1069.8551338403558 12217.472108059783
1070.7429334239023 12438.74352534243
1071.6305132751695 12059.761489237015
1072.517873457633 12242.989610522953
1073.4050140347335 12124.281698776178
1074.2919350698776 12196.774358370883
1075.1786366264623 11962.60249072481
1076.0651187678395 11977.724958901741
1076.95138155735 11852.02844744264
1077.8374250582929 11801.951177466237
1078.7232493339507 11832.68754999507
1079.608854447577 11803.85206744872
1080.4942404623907 11686.923390009413
1081.3794074415982 11737.249727130342
1082.2643554483657 11778.305178373648
1083.149084545841 11765.511215170063
1084.033594797138 11441.443447720938
1084.9178862653516 11569.939282677242
1085.8019590135427 11682.545765629517
1086.6858131047484 11493.581856837864
1087.5694486019802 11502.922506086179
1088.4528655682225 11472.04291802921
1089.3360640664287 11632.066851021813
1090.2190441595321 11423.217864924207
1091.1018059104317 11478.080503622434
1091.98434938201 11505.382549708305
1092.866674637111 11555.180634268985
1093.748781738559 11547.262021202974
1094.6306707491512 11363.477931811956
1095.5123417316554 11516.011435984261
1096.3937947488157 11455.849654617206
1097.2750298633455 11410.617311353952
1098.156047137938 11398.976201394631
1099.0368466352556 11470.875420539298
1099.9174284179317 11616.947460360305
1100.7977925485757 11324.571494474392
1101.6779390897755 11289.604010064471
1102.5578681040806 11344.50495027816
1103.4375796540226 11329.743526197215
1104.3170738021054 11295.63744357404
1105.1963506108077 11281.62987059468
1106.0754101425773 11342.157291335732
1106.9542524598382 11360.708639201723
1107.8328776249855 11284.713565924962
1108.7112857003904 11322.767066107599
1109.5894767483987 11356.512175314318
1110.4674508313292 11496.462988982512
1111.3452080114657 11567.717633311871
1112.2227483510815 11675.257574257661
1113.1000719124077 11729.387720441038
1113.9771787576592 11872.803926982171
1114.854068949022 11936.498085583233
1115.7307425486542 11973.886676884158
1116.6071996186893 12189.000689185736
1117.483440221229 12409.996936730859
1118.3594644183577 12348.025540696468
1119.235272272128 12527.504859653005
1120.1108638445658 12869.97382107398
1120.9862391976712 13188.105455968538
1121.8613983934229 13195.510899077728
1122.7363414937627 13243.341630671179
1123.6110685606182 13505.621501917025
1124.485579655884 13768.160447842882
1125.359874841426 13645.431186809274
1126.2339541790916 13774.414366868708
1127.1078177306936 14196.274106495082
1127.9814655580267 13892.266515863093
1128.854897722851 14093.511210176404
1129.7281142869106 14133.618233239027
1130.6011153119125 14109.223386554415
1131.473900859548 14200.443439589862
1132.3464709914697 14024.163598140327
1133.2188257693178 13943.376677926663
1134.0909652546961 13878.160055555369
1134.96288950919 13635.908276968581
1135.8345985943506 13776.532144930947
1136.7060925717087 13353.012671448023
1137.57737150277 13418.42213995094
1138.4484354490069 13321.688153986595
1139.3192844718778 13001.335203113982
1140.1899186327992 12726.385751490885
1141.060337993178 12811.904464077112
1141.930542614382 12610.23903689531
1142.8005325577597 12429.749824123675
1143.670307884635 12016.469080056002
1144.5398686563003 12248.271714539205
1145.409214934025 12013.685941099959
1146.2783467790541 11615.496841670152
1147.1472642526023 11737.284489609227
1148.0159674158622 11695.867455135549
1148.8844563300026 11393.132282464087
1149.7527310561618 11259.92811449642
1150.6207916554504 11112.641932779987
1151.4886381889592 11162.124512664643
1152.3562707177498 11160.077415702886
1153.2236893028585 11016.974209024902
1154.090894005296 10821.746558775054
1154.9578848860474 10938.338349725977
1155.8246620060709 10757.829961183827
1156.6912254262988 10706.637950210135
1157.5575752076438 10686.431418145246
1158.42371141098 10774.455559628062
1159.2896340971656 10730.045253587688
1160.1553433270346 10731.645110096968
1161.0208391613887 10639.99650847305
1161.8861216610057 10687.95401458759
1162.75119088664 10649.561485770817
1163.6160468990201 10446.399488162744
1164.4806897588442 10324.691561113937
1165.3451195267917 10584.611029971273
1166.2093362635114 10482.313658996944
1167.0733400296285 10427.026591148062
1167.9371308857444 10342.67462062262
1168.8007088924278 10390.16305940989
1169.6640741102328 10455.293678297257
1170.5272265996773 10333.15445390629
1171.390166421259 10167.717074705952
1172.252893635452 10439.453830190203
1173.1154083026995 10614.191935484803
1173.977710483421 10488.144104674053
1174.8398002380145 10337.002296219622
1175.7016776268483 10521.139325645512
1176.563342710264 10439.879011077086
1177.4247955485826 10356.63300854486
1178.2860362020947 10452.9263443865
1179.147064731069 10321.524735369703
1180.0078811957483 10563.400607156484
1180.8684856563486 10373.01489462706
1181.7288781730604 10566.561330153083
1182.589058806052 10525.168711429786
1183.4490276154593 10775.165323880175
1184.3087846614017 10747.435941533031
1185.1683300039676 10675.590460152864
1186.027663703222 11035.09727947107
1186.8867858192025 10821.365825095598
1187.7456964119228 10938.739905259157
1188.6043955413716 11003.995869443066
1189.4628832675116 11060.710628382736
1190.3211596502842 11198.492353071513
1191.179224749596 11330.08825553773
1192.0370786253388 11220.382866765509
1192.8947213373758 11444.39633441109
1193.7521529455407 11611.13482740599
1194.6093735096438 11381.546844525905
1195.466383089477 11462.072237801885
1196.3231817447977 11556.02731408516
1197.1797695353398 11799.762929356288
1198.0361465208189 11515.271930666173
1198.8923127609214 11517.72163507551
1199.7482683153048 11712.415171628094
1200.6040132436028 11852.952642743401
1201.459547605431 11643.557327665258
1202.3148714603722 11608.396307790845
1203.1699848679855 11609.916864003117
1204.0248878878065 11587.496474370462
1204.8795805793507 11290.049074491075
1205.7340630020935 11583.28667869969
1206.5883352155033 11695.930270973728
1207.4423972790064 11453.2202232876
1208.2962492520237 11271.19107779276
1209.1498911939307 11156.627654884833
1210.0033231640937 11307.074318561034
1210.8565452218427 11160.78685638834
1211.7095574264913 10906.507547272402
1212.5623598373222 10925.452877462769
1213.4149525135963 10824.37281276532
1214.2673355145507 10895.322395248171
1215.1195088993936 10759.895236419492
1215.9714727273113 10673.307825997656
1216.8232270574663 10774.054386504471
1217.6747719489904 10445.538825704683
1218.5261074609934 10485.606781803175
1219.3772336525653 10576.872236791962
1220.2281505827668 10621.25314001839
1221.0788583106296 10611.81751466182
1221.9293568951707 10393.662498256066
1222.7796463953746 10349.173926850757
1223.629726870202 10484.135475375637
1224.4795983785934 10566.48964362309
1225.3292609794553 10579.421371129922
1226.1787147316809 10392.918841944682
1227.0279596941327 10469.705374090723
1227.8769959256424 10550.281674450267
1228.7258234850306 10487.099292458217
1229.5744424310833 10372.44299126007
1230.422852822563 10603.525536250043
1231.2710547182105 10587.123735502933
1232.119048176739 10464.061284256411
1232.9668332568417 10325.801404187892
1233.8144100171812 10514.736761485896
1234.6617785163999 10541.546820637604
1235.508938813111 10197.090786897856
1236.3558909659114 10309.153803187768
1237.2026350333617 10498.361158321866
1238.049171074008 10542.163433138852
1238.8954991463652 10252.925278015138
1239.741619308932 10325.091029117579
1240.587531620169 10551.618001659055
1241.4332361385277 10308.297156363278
1242.2787329224248 10233.760676234517
1243.1240220302534 10077.798570129107
1243.9691035203869 10056.120521093086
1244.813977451171 10243.71174317837
1245.6586438809263 10264.605487699986
1246.5031028679496 9932.766160031631
1247.3473544705157 10306.677136874352
1248.1913987468706 10236.402185025745
1249.0352357552383 9958.82924875845
1249.8788655538228 9978.0104531862
1250.7222882007918 10189.298763300572
1251.565503754302 10042.84335066022
1252.4085122724755 9980.55785059562
1253.2513138134182 10134.114504966305
1254.0939084352049 10142.554931007577
1254.9362961958905 10087.679678234126
1255.7784771535007 9987.668862353095
1256.6204513660432 10106.090722372766
1257.4622188915 10286.927811937341
1258.3037797878242 10114.980252458545
1259.1451341129468 9979.68978198243
1259.9862819247755 10086.256152756792
1260.8272232811978 10035.995984311687
1261.6679582400666 10301.388960841683
1262.5084868592203 9786.894082622845
1263.34880919647 9882.321538319
1264.1889253095997 9996.706863064555
1265.0288352563712 10045.907545078266
1265.8685390945266 9949.161956381542
1266.7080368817751 10002.758733421133
1267.5473286758115 10238.203700358205
1268.386414534294 10088.05664865956
1269.2252945148703 9742.640494070434
1270.0639686751547 9889.086988387535
1270.9024370727402 9837.978784681865
1271.7406997651997 9708.958391786644
1272.5787568100714 9728.666460243312
1273.4166082648808 9808.087694614363
1274.2542541871244 9824.517532344373
1275.091694634275 9949.002659420412
1275.9289296637817 9701.28755305574
1276.7659593330663 9673.984370194969
1277.6027836995308 9734.952004189143
1278.4394028205552 9849.236810576866
1279.2758167534867 9666.430873038278
1280.112025555658 9689.58350030438
1280.9480292843746 9766.990738044351
1281.7838279969128 9502.002728061414
1282.6194217505326 9574.8948831923
1283.4548106024686 9366.161384652154
1284.289994609926 9481.004409106328
1285.1249738300921 9651.750808246506
1285.959748320127 9496.984732413654
1286.7943181371702 9581.437932149154
1287.6286833383328 9519.994804870055
1288.4628439807038 9524.075901272696
1289.2968001213521 9408.608684566774
1290.1305518173194 9548.324236369232
1290.9640991256183 9560.53791893021
1291.7974421032523 9204.598799060317
1292.630580807183 9425.734848618764
1293.463515294361 9569.387386769617
1294.29624562171 9684.161246406582
1295.12877184613 9475.59906566727
1295.961094024493 9556.396766163098
1296.79321221365 9610.639498435372
1297.6251264704333 9693.66674129399
1298.4568368516466 9911.964039388991
1299.2883434140658 9773.478810702483
1300.1196462144526 9566.328379283434
1300.9507453095375 9749.524396093653
1301.7816407560313 9767.684154533712
1302.6123326106172 9787.921264453551
1303.4428209299622 9615.574681543167
1304.2731057707024 9915.256620258679
1305.1031871894502 9664.821265601744
1305.933065242798 9856.119467650598
1306.7627399873181 9847.241889166702
1307.5922114795467 10294.799676078892
1308.4214797760123 10163.774284984771
1309.2505449332057 9868.415315136408
1310.0794070076026 10001.031111326303
1310.9080660556538 10178.751123624914
1311.736522133786 10156.068602205434
1312.5647752983987 10065.233407920969
1313.3928256058734 9916.71999338043
1314.2206731125661 10160.479930684147
1315.048317874809 10131.013803092905
1315.8757599489109 10071.801537519976
1316.7029993911547 10191.602610335598
1317.5300362578055 10338.414739559284
1318.356870605101 10097.586091464316
1319.183502489257 10219.048296455227
1320.0099319664623 10319.646686799084
1320.836159092889 10306.768345876144
1321.66218392468 10407.691622438582
1322.4880065179532 10220.501954928342
1323.3136269288134 10192.676329562304
1324.1390452133292 10476.546908355365
1324.9642614275563 10577.968116438984
1325.7892756275214 10303.323575558064
1326.6140878692295 10255.312241391199
1327.4386982086617 10630.280392175493
1328.2631067017755 10392.386428753023
1329.0873134045069 10292.572489956414
1329.911318372764 10265.159653018094
1330.735121662441 10223.36257778951
1331.558723329399 10238.897574871417
1332.3821234294774 10194.625091933314
1333.2053220185007 10163.90358709299
1334.0283191522612 10179.199083729673
1334.851114886529 10404.471607010117
1335.6737092770582 10142.248535427036
1336.4961023795695 10233.477872030851
1337.3182942497697 10229.47512181994
1338.1402849433325 10230.38080750778
1338.962074515921 10051.34703000164
1339.7836630231632 9886.709802578707
1340.6050505206676 10474.4947194982
1341.426237064028 10316.3991859486
1342.2472227088037 10260.890677446205
1343.0680075105338 9945.786626028039
1343.888591524741 9919.891471610104
1344.7089748069138 10327.814348373471
1345.5291574125276 9929.566385700222
1346.3491393970307 9742.251767498046
1347.168920815846 10002.47732254959
1347.9885017243778 10051.119915563864
1348.8078821780036 9996.81063610443
1349.6270622320844 10015.609548095335
1350.4460419419447 9838.600789283026
1351.2648213629054 10095.133717418961
1352.0834005502438 9674.382605477987
1352.90177955923 9808.653882896146
1353.7199584451064 10418.829745442088
1354.5379372630887 9922.651031412322
1355.355716068374 9854.193437459366
1356.1732949161305 9711.135221735141
1356.9906738615155 9811.684763010908
1357.8078529596478 9881.300057324217
1358.6248322656375 9899.431185221943
1359.441611834567 9788.6789533662
1360.2581917214866 10051.682304382459
1361.0745719814367 9668.047369134187
1361.890752669433 9745.053316699876
1362.7067338404577 9764.58318943458
1363.5225155494845 10043.566184365314
1364.3380978514506 10054.945314973813
1365.1534808012839 9668.446322519418
1365.9686644538815 9493.193008622757
1366.783648864117 10027.074635706378
1367.5984340868417 9988.579553392075
1368.413020176893 9960.320291033515
1369.2274071890715 9682.147834515195
1370.0415951781652 10048.619089388452
1370.8555841989346 9638.513313672087
1371.6693743061223 9768.433904504043
1372.48296555444 9689.012453594616
1373.2963579985844 10040.631515592999
1374.1095516932255 9906.62345559605
1374.9225466930166 9624.776903698468
1375.7353430525782 9772.094148532025
1376.5479408265164 9755.828313786344
1377.36034006941 9992.767006136495
1378.1725408358216 9918.540076635016
1378.9845431802805 9671.027395311485
1379.796347157304 10263.688644168513
1380.6079528213813 10052.481496502463
1381.4193602269788 9736.018360995511
1382.230569428546 9747.683028058338
1383.0415804805016 10196.945582306756
1383.852393437246 10089.19146297556
1384.6630083531563 10040.382150629734
1385.4734252825892 9919.448209764192
1386.2836442798798 10071.328999235968
1387.0936653993322 10014.533084311675
1387.9034886952395 9987.621592703732
1388.713114221864 10141.343596766292
1389.5225420334482 10044.035182153139
1390.331772184214 9869.916249136048
1391.1408047283585 9797.925996938904
1391.9496397200564 9758.60062419454
1392.758277213461 10067.700240739483
1393.5667172627054 9947.172317704906
1394.3749599218918 9685.400509134377
1395.1830052451114 9430.268793709489
1395.9908532864265 9649.880276256989
1396.7985040998774 9896.040777516082
1397.6059577394808 9425.213484342808
1398.4132142592352 9569.274194278914
1399.2202737131156 9442.49207187726
1400.027136155073 9406.451040351907
1400.8338016390353 9360.167724507064
1401.6402702189134 9336.898117291297
1402.446541948586 9410.596250884466
1403.2526168819204 9107.59319340243
1404.058495072757 9128.260673701712
1404.8641765749107 9100.641494357365
1405.6696614421799 9125.017220435035
1406.4749497283356 9354.898833709862
1407.280041487129 9046.65302352198
1408.084936772295 8741.885147629991
1408.8896356375335 8988.848320001563
1409.6941381365323 8959.31668114639
1410.498444322955 8680.610623776363
1411.3025542504402 8826.807736026918
1412.106467972606 8767.773301028332
1412.9101855430508 8829.100360081644
1413.7137070153458 8568.055983218519
1414.5170324430437 8527.140198833706
1415.320161879672 8596.720912188048
1416.1230953787435 8877.32808764343
1416.925832993742 8465.075266033964
1417.7283747781275 8282.5626450808
1418.5307207853439 8589.78259535149
1419.3328710688093 8537.281469795658
1420.134825681922 8189.705994242637
1420.9365846780584 8263.03060630222
1421.7381481105713 8631.494573219472
1422.539516032788 8533.668601001064
1423.3406884980232 8332.665231907995
1424.1416655595604 8128.168534626161
1424.942447270665 8269.289033062207
1425.7430336845828 8301.353900898781
1426.5434248545298 7998.876055523366
1427.3436208337116 8294.757786270744
1428.143621675301 8342.683878632039
1428.9434274324558 8427.5940462069
1429.7430381583108 8115.131160302313
1430.5424539059713 8196.666375775809
1431.3416747285337 8663.381972235957
1432.1407006790632 8357.1553308128
1432.9395318106053 8214.134326098629
1433.7381681761835 8030.135836350006
1434.5366098288014 8236.603195932272
1435.3348568214424 8281.66847345428
1436.1329092070573 8061.3669186717425
1436.9307670385879 8109.306049132599
1437.7284303689503 8222.993839902501
1438.5258992510335 8415.243861723811
1439.3231737377118 8167.659062540336
1440.1202538818306 8150.002883487699
1440.9171397362225 8043.346262234672
1441.7138313536925 8037.516080135325
1442.5103287870243 7966.8468350566545
1443.3066320889775 7950.252002686953
1444.1027413122956 8216.337862598255
1444.8986565096966 7985.657960993143
1445.694377733882 7924.7802127307905
1446.4899050375207 7849.621194435133
1447.2852384732687 7855.934535506998
1448.0803780937622 8131.18583273032
1448.8753239516063 7842.690042346588
1449.6700760993954 7717.335198075896
1450.464634589689 7710.129420053452
1451.2589994750397 8105.44407033134
1452.0531708079689 7864.697460795408
1452.8471486409799 7730.80562987943
1453.6409330265524 8073.546028137935
1454.4345240171442 7831.961954456043
1455.2279216651987 7790.640065756257
1456.0211260231263 7834.935150845772
1456.8141371433194 7810.481866776625
1457.6069550781594 7865.471891102602
1458.3995798799897 7697.974646747198
1459.1920116011424 7675.369364490905
1459.98425029393 7594.645887241486
1460.7762960106338 7653.197498280015
1461.5681488035225 7698.911775354909
1462.3598087248392 7632.173524548263
1463.1512758268036 7716.63068231584
1463.942550161617 7453.725880328876
1464.7336317814625 7464.535515481146
1465.524520738496 7598.5022285466275
1466.3152170848552 7470.445236110924
1467.1057208726506 7688.724462144567
1467.8960321539817 7486.716130956576
1468.6861509809169 7297.643709053193
1469.4760774055085 7448.150029495819
1470.265811479785 7619.5013669048985
1471.055353255755 7273.198421295121
1471.844702785409 7364.929324028727
1472.6338601207044 7363.474175037988
1473.4228253135934 7993.660277447339
1474.2115984159936 7329.71334680787
1475.0001794798063 7146.085163829592
1475.7885685569145 7494.146407288781
1476.576765699172 7405.954473648892
1477.3647709584238 7403.143838941991
1478.1525843864802 7598.766640452699
1478.9402060351367 7544.392568194562
1479.7276359561693 7567.973117105719
1480.514874201328 7270.064120967012
1481.3019208223468 7164.581490055252
1482.0887758709323 7190.563559330838
1482.8754393987747 7366.629355478208
1483.6619114575406 7218.853256433436
1484.4481920988783 7397.129675274393
1485.2342813744108 7532.600134062377
1486.0201793357446 7504.359978401364
1486.8058860344572 7430.081903812857
1487.591401522117 7432.427721338552
1488.3767258502594 7297.23545509636
1489.1618590704056 7287.85480517398
1489.9468012340494 7168.565928579039
1490.7315523926754 7434.428972060843
1491.5161125977356 7514.8745401271735
1492.3004819006637 7367.201558718591
1493.084660352877 7295.449812791878
1493.8686480057622 7478.0683090642215
1494.6524449106964 7694.21486734424
1495.4360511190262 7581.068205248758
1496.219466682087 7357.306289099962
1497.0026916511779 7418.910044008442
1497.7857260775945 7381.922781510022
1498.5685700125996 7474.099384509313
1499.3512235074395 7308.408578225359
1500.133686613337 7285.7304298395875
1500.9159593814966 7318.901631168209
1501.698041863101 7737.336771274441
1502.4799341093094 7265.517973474084
1503.2616361712662 7153.130359448321
1504.043148100087 7498.418745948506
1504.8244699468742 7560.791505610086
1505.6056017626997 7314.878790001072
1506.3865435986281 7037.568561469406
1507.1672955056893 7435.71413862816
1507.9478575348967 7169.923672614813
1508.7282297372512 7479.121710292797
1509.5084121637192 7360.850144842401
1510.2884048652577 7333.994765123061
1511.0682078927948 7181.490532984928
1511.8478212972423 7173.584435291634
1512.6272451294917 7132.655469496456
1513.4064794404076 7414.090517532914
1514.1855242808433 7220.534144562061
1514.9643797016215 7246.512515250795
1515.743045753552 7274.238683770869
1516.5215224874191 7281.447400988101
1517.2998099539836 6941.41061336984
1518.077908203999 7225.2166732782935
1518.8558172881785 7221.027012007337
1519.633537257234 7233.808696587764
1520.4110681618404 7273.873688558349
1521.1884100526604 7411.411289571317
1521.9655629803365 7251.635135760147
1522.7425269954856 7352.8126058891285
1523.5193021487103 7576.498017513605
1524.2958884905856 7128.2991083229135
1525.0722860716687 7191.227585551613
1525.848494942502 7194.6132077671155
1526.624515153595 7159.1901035334595
1527.4003467554485 7400.137790607555
1528.175989798534 7356.694747014869
1528.9514443333064 7239.908599040407
1529.726710410203 7654.213548554605
1530.5017880796331 7128.841397256178
1531.276677391992 7314.076148043246
1532.0513783976457 7456.226348180142
1532.825891146953 7260.719879942944
1533.6002156902414 7416.871698689012
1534.3743520778207 7363.639444534277
1535.1483003599806 7346.241979164295
1535.9220605869923 7291.892651260232
1536.6956328091019 7432.809007289128
1537.4690170765407 7372.387911626021
1538.242213439511 7632.242566432878
1539.015221948208 7484.557695675134
1539.78804265279 7351.72202867524
1540.560675603405 7222.384714271067
1541.3331208501804 7702.189362952493
1542.1053784432224 7772.075745260318
1542.8774484326168 7528.923492186642
1543.649330868422 7447.838890358061
1544.4210258006842 7549.313999500315
1545.1925332794308 7437.019509540495
1545.9638533546604 7406.81767991119
1546.7349860763552 7305.845249869589
1547.5059314944829 7688.282776662917
1548.27668965898 7538.899954860984
1549.0472606197673 7626.406899504776
1549.817644426752 7438.6649305666915
1550.5878411298072 7684.473318016911
1551.3578507787988 7598.628220440044
1552.1276734235635 7595.601769422765
1552.8973091139233 7538.379501795338
1553.6667578996767 7749.622585366646
1554.436019830604 7587.049044168261
1555.20509495646 7746.110199497487
1555.9739833269869 7479.696498244177
1556.7426849919011 7473.641887239454
1557.511200000903 7999.420136349388
1558.2795284036674 7677.8018923321115
1559.0476702498509 7605.844238224088
1559.8156255890954 7800.798011370859
1560.5833944710157 7912.486329837646
1561.3509769452048 7646.315621532847
1562.1183730612447 7633.3922840528485
1562.8855828686865 7698.745673532979
1563.6526064170703 7983.251087567254
1564.4194437559127 7889.513731638302
1565.1860949347047 7594.167008414251
1565.9525600029283 7916.611516738468
1566.7188390100328 8025.945378381412
1567.4849320054564 7673.568315402134
1568.250839038612 7666.683313368245
1569.0165601588997 7623.380758591104
1569.7820954156887 7841.389558711375
1570.5474448583373 7650.781597146315
1571.31260853618 7541.253040731754
1572.0775864985299 7386.462583271891
1572.8423787946813 7758.121382099105
1573.6069854739108 7523.855984207356
1574.371406585471 7591.541845008466
1575.1356421785986 7742.702571611268
1575.899692302506 7533.215225065933
1576.6635570063845 7631.32234772318
1577.4272363394157 7470.636791732754
1578.190730350747 7584.951328819026
1578.9540390895163 7498.369099477932
1579.7171626048384 7270.850695447749
1580.480100945806 7346.192685648583
1581.2428541614918 7398.711262077896
1582.0054223009538 7600.3851190676405
1582.767805413223 7549.403991478675
1583.5300035473156 7487.041253872636
1584.292016752228 7754.812226208991
1585.0538450769309 7626.680120734703
1585.8154885703807 7324.767039504137
1586.5769472815136 7339.5342819848765
1587.3382212592405 7423.927178080495
1588.099310552463 7649.589669119019
1588.8602152100484 7075.6988004639525
1589.6209352808564 7603.682316132227
1590.3814708137234 7488.452001574127
1591.14182185746 6981.1523529340875
1591.9019884608679 7516.692554464213
1592.6619706727215 7092.909927057657
1593.4217685417734 7368.187545062011
1594.1813821167616 7724.149295670604
1594.9408114464022 7128.620222110911
1595.7000565793933 7360.685365924664
1596.459117564409 7558.707570057054
1597.2179944501113 7340.053167948235
1597.9766872851324 7396.446962041657
1598.735196118092 7504.8486380677205
1599.4935209975883 7719.776232821341
1600.2516619721973 7659.760332237398
1601.0096190904787 7391.697534996623
1601.7673924009723 7404.841741701693
1602.524981952196 7242.537485159248
1603.2823877926476 7365.70090587362
1604.0396099708087 7398.154892401503
1604.7966485351371 7352.977341599095
1605.5535035340745 7373.356056647247
1606.3101750160404 7715.615657614854
1607.0666630294363 7311.958367892167
1607.822967622642 7099.274985874692
1608.5790888440224 7398.612088826883
1609.3350267419137 7416.498990501522
1610.0907813646445 7310.91198066696
1610.8463527605145 7549.368408024064
1611.601740977805 7418.17188015242
1612.356946064785 7506.931190663403
1613.1119680696902 7132.912500510238
1613.8668070407512 7225.69484980049
1614.6214630261748 7292.520347145239
1615.375936074137 7369.4778978933855
1616.1302262328118 7289.455827880581
1616.8843335503425 7257.474024287034
1617.638258074854 7245.349254531304
1618.391999854457 7206.1939636435945
1619.1455589372363 7384.627921726724
1619.8989353712623 7345.261885563438
1620.65212920458 6891.366799545269
1621.4051404852235 7145.810333874088
1622.1579692611976 7142.614514882349
1622.9106155804966 6911.489462501554
1623.663079491087 7073.564575259809
1624.4153610409248 7100.796078519667
1625.1674602779385 7026.572565371274
1625.9193772500403 6905.909406691564
1626.6711120051277 7383.791907025885
1627.4226645910676 7082.2414823062645
1628.174035055721 6852.550580695317
1628.9252234469168 6929.000759859536
1629.676229812474 6938.012572288191
1630.4270542001905 7622.2278168705725
1631.1776966578382 7064.213613037963
1631.9281572331747 7042.719308199099
1632.678435973945 7182.796181351075
1633.4285329278573 6959.406917552527
1634.1784481426203 6861.151451039565
1634.9281816659113 6997.821660675772
1635.677733545388 7283.973519337385
1636.4271038286934 6957.746309278033
1637.176292563452 7092.828931568231
1637.9252997972635 7065.109425294146
1638.674125577716 7248.473393703866
1639.4227699523672 7429.942369626003
1640.171232968767 6839.008955031197
1640.9195146744423 7205.518110372754
1641.6676151168977 7250.548607737101
1642.4155343436178 7295.956016323093
1643.1632724020765 7201.81217314346
1643.9108293397167 7134.269385356228
1644.658205203974 6997.61143456627
1645.4054000422566 7579.765084467495
1646.1524139019566 7090.06984795826
1646.8992468304423 7038.374281522704
1647.6458988750728 7121.117210936207
1648.3923700831765 7215.12174495694
1649.1386605020743 7134.838837168197
1649.8847701790564 7479.438961758067
1650.6306991614038 7270.446815529378
1651.3764474963682 7288.16698402817
1652.1220152311944 7078.606643976935
1652.867402413096 7277.494021532961
1653.6126090892776 7081.507574424453
1654.3576353069184 7470.188019739675
1655.1024811131829 7159.678534470443
1655.8471465552066 7267.775835884213
1656.5916316801213 7467.024583684572
1657.3359365350298 7266.133430445705
1658.0800611670165 7160.2783026939
1658.824005623148 7142.063039802997
1659.5677699504722 7035.252482097409
1660.3113541960192 7236.136561542002
1661.054758406799 7120.991413279317
1661.7979826297997 6990.611374194419
1662.5410269119966 6889.899288842889
1663.283891300338 7276.247945129813
1664.0265758417645 6909.607136948376
1664.7690805831826 7029.094614711692
1665.5114055714948 7204.9921507643985
1666.2535508535748 7363.760259367305
1666.9955164762814 6664.273373588576
1667.7373024864555 6864.990149437499
1668.478908930916 6975.345507651046
1669.220335856462 6672.748999617868
1669.9615833098778 6778.7363889083035
1670.7026513379296 6599.5539973281075
1671.44353998736 6740.387262440442
1672.1842493048916 6762.057146349349
1672.9247793372379 6537.672525779025
1673.6651301310812 6722.164606775065
1674.4053017330934 6557.81669451543
1675.1452941899242 6600.107522273805
1675.885107548207 6081.21981187459
1676.6247418545518 6251.482892007286
1677.3641971555535 6372.430960198574
1678.1034734977893 6485.306995453999
1678.8425709278108 6401.878360569616
1679.5814894921605 6552.818247790479
1680.320229237359 6264.901932411721
1681.0587902098978 6279.929535668663
1681.7971724562685 6136.358921820263
1682.5353760229264 6170.432475298295
1683.2734009563173 6238.40140313559
1684.0112473028657 6026.5571979111955
1684.7489151089794 6236.135746585503
1685.4864044210462 6261.234697264184
1686.2237152854377 5758.249670528623
1686.960847748498 6161.260261821384
1687.6978018565642 5889.745017731493
1688.434577655944 5860.08459803735
1689.1711751929379 5864.6704985733295
1689.9075945138156 5873.718908019368
1690.6438356648396 5730.891469712757
1691.3798986922448 5464.745660129694
1692.1157836422499 5761.283610289303
1692.851490561059 5521.76129399229
1693.587019494853 5702.0676177982
1694.3223704897991 5272.374606445823
1695.0575435920364 5190.687907018882
1695.792538847696 5688.4495006906345
1696.527356302886 5302.538524089293
1697.2619960036936 5325.514557811096
1697.9964579961907 5373.44778364449
1698.730742326432 4913.045213896983
1699.4648490404488 5043.031523225158
1700.1987781842563 5190.110254962281
1700.9325298038548 5402.694422731746
1701.6661039452174 5515.169584926649
1702.3995006543082 5152.479666066609
1703.1327199770658 5314.522476995611
1703.865761959416 4950.207278238087
1704.598626647261 5354.780321186523
1705.3313140864866 5050.0903370763845
1706.0638243229587 5108.945971689243
1706.7961574025303 5147.352901562002
1707.528313371029 5123.791947901785
1708.260292274268 4693.0791888914455
1708.9920941580403 4947.965325957064
1709.7237190681226 4995.042121565412
1710.4551670502697 5035.176039768455
1711.18643815022 4543.454665121199
1711.9175324136959 5180.193939289561
1712.6484498863938 4811.073429933547
1713.379190614005 4655.394606754589
1714.109754642188 4968.975232494229
1714.8401420165883 4710.648251217976
1715.570352782839 4980.865043221564
1716.3003869865497 4832.031506004697
1717.0302446733076 4694.932803572644
1717.7599258886876 4762.551663093258
1718.4894306782444 5093.60414541695
1719.2187590875183 4646.905738497453
1719.9479111620203 4817.552385906374
1720.6768869472544 4686.229775659116
1721.4056864887025 5013.714946112998
1722.1343098318284 5006.812278819789
1722.8627570220742 4739.644644744644
1723.591028104871 4498.989774147327
1724.3191231256242 4524.5119964137575
1725.0470421297232 4698.695573955035
1725.7747851625427 4793.038548954097
1726.5023522694337 4705.663706711637
1727.2297434957363 4696.948963997393
1727.9569588867635 4480.727834134072
1728.6839984878152 4850.949839040344
1729.4108623441734 4219.813294082569
1730.1375505011038 4590.186660798683
1730.8640630038426 4510.619713298331
1731.5903998976264 4526.852160684252
1732.316561227657 4620.1616136721
1733.0425470391274 4536.772920497102
1733.7683573772065 4518.685777974322
1734.4939922870508 4451.966190692904
1735.2194518137949 4552.293108831628
1735.9447360025606 4597.77523171328
1736.669844898439 4524.861638999994
1737.3947785465189 4381.25075009474
1738.1195369918605 4272.878687357478
1738.8441202795093 4409.3184026736535
1739.5685284544943 4481.372776741295
1740.292761561821 4574.678591583961
1741.0168196464838 4640.313661732013
1741.7407027534518 4466.8400077512715
1742.464410927687 4402.8321687280295
1743.187944214118 4450.891429022225
1743.9113026576688 4217.468959445574
1744.634486303241 4448.08389096631
1745.3574951957125 4336.395784139278
1746.0803293799509 4429.5407611646515
1746.8029889008048 4325.8669027602
1747.5254738031017 4551.449987192766
1748.2477841316504 4143.013158405408
1748.969919931249 4259.998394044497
1749.6918812466665 4186.91850529341
1750.4136681226646 4685.129305362732
1751.1352806039777 4482.971560116728
1751.856718735331 4191.30179599692
1752.5779825614281 4277.431151640546
1753.2990721269507 4451.770795097183
1754.0199874765676 4539.36218477247
1754.7407286549314 4081.513530729148
1755.4612957066693 4389.380422459102
1756.1816886763954 4274.981132720137
1756.9019076087097 4439.712699149817
1757.6219525481865 4460.256660786106
1758.3418235393856 4478.738193128482
1759.061520626854 4304.178891785109
1759.7810438551096 4445.698523492629
1760.5003932686614 4261.134860163834
1761.2195689119999 4594.7983977959175
1761.938570829594 4304.382923145221
1762.657399065898 4269.847570240571
1763.376053665348 4184.504430777731
1764.0945346723602 4141.831369634407
1764.812842131334 4419.59430326342
1765.5309760866512 4084.757579865383
1766.2489365826787 4129.425343868012
1766.9667236637597 4278.499474135947
1767.684337374223 3921.126511110421
1768.401777758383 3910.1777241789596
1769.1190448605284 4135.155183371217
1769.836138724937 4212.621554063162
1770.5530593958665 4276.874993107512
1771.2698069175603 4423.05381345079
1771.9863813342326 4382.693812609009
1772.702782690094 4280.764715376091
1773.4190110293293 4226.1317827506855
1774.1350663961111 4429.3282054784995
1774.8509488345844 4004.550263541737
1775.5666583888924 4181.652394237291
1776.2821951031437 4481.852628992026
1776.9975590214362 4157.881618691111
1777.7127501878585 4486.443693853907
1778.4277686464684 4315.971619816577
1779.1426144413108 4400.332522226427
1779.8572876164162 4295.020858061724
1780.571788215797 4095.862997808188
1781.2861162834415 4273.402911471186
1782.0002718633277 4132.063632099261
1782.7142549994132 4211.044207886728
1783.4280657356376 4256.982553634746
1784.141704115922 3936.5144593708014
1784.855170184177 4007.5818105578933
1785.5684639842839 4112.431324241589
1786.2815855601148 3892.2349726345383
1786.9945349555237 4187.907977528253
1787.707312214343 3935.176434903481
1788.4199173803918 4329.807312099645
1789.132350497468 4013.3375422817
1789.8446116093583 4103.398522051121
1790.556700759822 4020.0053852597166
1791.2686179926077 3777.9237774792614
1791.9803633514493 4087.672798449455
1792.6919368800554 3807.631139549281
1793.4033386221236 4193.088807910431
1794.1145686213295 4060.2963917125257
1794.8256269213307 4413.137919157315
1795.536513565774 4097.5298227277435
1796.247228598284 3715.6551948074957
1796.9577720624693 3900.076038396955
1797.6681440019165 3988.698771049562
1798.3783444602013 4004.1862366909363
1799.0883734808776 4135.604328127684
1799.7982311074884 4192.882478798039
1800.5079173835475 3903.66727913039
1801.2174323525633 4241.757954691135
1801.9267760580187 4031.7493141364307
1802.635948543386 4001.4115432838203
1803.3449498521113 3904.743093622185
1804.0537800276325 4129.747699153284
1804.7624391133668 3993.1975231361635
1805.47092715271 3780.2998813986487
1806.1792441890484 3794.370012090226
1806.8873902657433 4201.781905642237
1807.5953654261448 4009.652396257273
1808.3031697135812 3971.8291269356805
1809.0108031713662 3978.8328590504657
1809.71826584279 4042.3296571824953
1810.425557771141 3803.5703082397586
1811.1326789996747 4518.908821576088
1811.839629571632 3927.148657672965
1812.5464095302468 3918.260823394229
1813.2530189187182 4122.758849137916
1813.959457780249 3837.4124373818267
1814.6657261580076 4102.004081181201
1815.371824095153 3914.948311189891
1816.0777516348262 4034.501755433266
1816.78350882015 3666.0269964379754
1817.4890956942272 3792.5190630589123
1818.1945123001533 3858.168780049612
1818.8997586809928 3812.5901744176685
1819.6048348798067 3909.4086281826567
1820.3097409396287 3795.005082623201
1821.0144769034796 4155.911137351819
1821.7190428143622 4106.61590053241
1822.423438715261 4152.738836096565
1823.1276646491478 3888.7934677940416
1823.8317206589727 4039.444033126406
1824.5356067876692 4032.9058466666634
1825.2393230781581 3935.5029379840735
1825.942869573335 3705.1909041530134
1826.646246316086 3806.0373270685654
1827.3494533492758 3906.9577312087117
1828.052490715756 3880.9804022312537
1828.7553584583547 3935.8546950544214
1829.458056619891 3969.8330859599782
1830.1605852431585 3730.3653609340013
1830.8629443709433 3648.3821063353107
1831.5651340460063 3843.715019953903
1832.2671543110919 3839.6549952641267
1832.9690052089318 3894.0199300468157
1833.6706867822395 3602.7266612997837
1834.3721990737104 3993.778957108927
1835.0735421260233 3990.3826866853715
1835.774715981841 3864.984691917386
1836.4757206838058 4226.429641138678
1837.1765562745459 3419.1541441505115
1837.8772227966747 3636.1259667531426
1838.5777202927839 3861.804363760793
1839.2780488054523 3727.423348696701
1839.9782083772352 3722.174445139163
1840.6781990506806 4007.020478069148
1841.378020868313 3848.137470188844
1842.0776738726418 3899.622626409809
1842.777158106157 3778.934760710346
1843.4764736113375 3754.8029886883305
1844.1756204306403 3933.99918478713
1844.8745986065078 3859.635384402764
1845.5734081813607 3596.5429421151784
1846.2720491976124 3553.8772381854333
1846.970521697649 3625.356300589184
1847.6688257238511 3768.7060271809596
1848.3669613185684 3774.111926194887
1849.0649285241452 3542.1054635134396
1849.7627273829057 3706.525140580292
1850.460357937156 3900.4445656709713
1851.1578202291857 3279.937295998118
1851.8551143012664 3763.624246330231
1852.5522401956569 3829.45980059988
1853.2491979545957 3924.5121535573535
1853.9459876203055 3553.5437782145586
1854.6426092349902 3577.5373383567216
1855.3390628408451 3600.312978885087
1856.0353484800362 3956.4838663043797
1856.7314661947203 3829.9245222769737
1857.4274160270397 3580.596241438553
1858.123198019115 3581.7038032181263
1858.8188122130487 3513.57783975242
1859.5142586509319 3563.1096511960313
1860.209537374838 3627.4278589641594
1860.9046484268183 3618.070849625993
1861.599591848917 4083.506541411463
1862.294367683151 3555.7421338189924
1862.988975971528 3591.364698781594
1863.6834167560355 3707.0358231909386
1864.3776900786452 3856.7958641242885
1865.0717959813119 3462.2413919359947
1865.7657345059724 3647.828805889755
1866.4595056945564 3692.4306823007887
1867.1531095889586 3757.310803861362
1867.846546231076 3636.2846465709554
1868.5398156627743 3844.9117548599775
1869.2329179259123 3650.3820789363162
1869.9258530623283 3902.355124781585
1870.618621113843 3499.634841810209
1871.3112221222636 3463.859461572337
1872.0036561293764 3578.98451192235
1872.695923176956 3753.0941833394436
1873.3880233067594 3813.0788534970816
1874.0799565605212 3493.7692392711733
1874.7717229799673 3576.6240212693106
1875.4633226068036 3871.2717095136823
1876.1547554827175 3751.754079326747
1876.8460216493859 3744.2132899473972
1877.5371211484617 3535.1526190369104
1878.2280540215852 3931.6179748644818
1878.9188203103804 3521.3391197881137
1879.6094200564548 3668.500539132804
1880.299853301396 3595.0778967752703
1880.9901200867826 3714.033571053985
1881.6802204541673 3526.7916313786454
1882.3701544450942 3742.629869846654
1883.059922101087 3556.7982512766844
1883.7495234636517 3907.214523600812
1884.4389585742792 3648.0960701880226
1885.1282274744517 3465.2073446433833
1885.8173302056166 4134.457434672089
1886.506266809225 3604.5564800335897
1887.195037326701 3340.9417350076014
1887.8836417994517 3531.79401154236
1888.5720802688702 3878.573829311156
1889.260352776333 3670.300404801026
1889.9484593632042 3641.7860507790383
1890.63640007082 3554.159562998567
1891.3241749405151 3458.3847304146775
1892.0117840135954 3560.8810901231727
1892.6992273313572 3507.2529038416096
1893.3865049350788 3463.401338243921
1894.0736168660223 3914.329526414306
1894.7605631654333 3597.657598653346
1895.4473438745408 3335.314046048057
1896.133959034556 3780.353311489262
1896.820408686679 3563.4427215847304
1897.506692872088 3779.546524666241
1898.192811631945 3646.2020516410435
1898.8787650073991 3551.612816066481
1899.5645530395832 3788.9854976450492
1900.2501757696118 3793.3448218005374
1900.9356332385796 3385.836527562549
1901.620925487574 3830.1106180222887
1902.3060525576602 3639.3884268378292
1902.9910144898859 3770.992482343931
1903.6758113252872 3455.7638278798563
1904.3604431048789 3433.9973033366514
1905.0449098696663 3587.2112984023743
1905.7292116606295 3609.4346053013155
1906.4133485187394 3590.5977603044607
1907.0973204849488 3135.5902115795056
1907.7811276001976 3364.98809560678
1908.4647699053967 3583.7601742588195
1909.1482474414588 3261.7875816046317
1909.8315602492694 3326.3800137897997
1910.5147083696957 3707.8580069313093
1911.1976918436012 3596.950764602671
1911.880510711815 3461.756644629667
1912.5631650151681 3612.6067932912933
1913.2456547944657 3458.5439461288856
1913.927980090495 3522.7761931136665
1914.6101409440362 3412.682034071623
1915.2921373958416 3492.7095541751014
1915.9739694866603 3432.4323166399918
1916.655637257214 3841.043812711796
1917.3371407482136 3463.537789929904
1918.0184800003572 3706.0512186288106
1918.6996550543154 3465.8778416970154
1919.3806659507554 3663.972668444775
1920.0615127303208 3631.9453512485643
1920.7421954336423 3641.4889954595155
1921.4227141013343 3797.7230098455375
1922.103068773993 3396.2260366099654
1922.783259492202 3781.31539423151
1923.4632862965227 3417.704039970095
1924.1431492275078 3328.568774725609
1924.8228483256917 3298.204959485228
1925.5023836315922 3448.8948613333478
1926.1817551857057 3166.8656190011784
1926.8609630285227 3747.6507191220107
1927.5400072005123 3492.804036762175
1928.218887742125 3286.3539122602497
1928.8976046938005 3146.2269248640223
1929.5761580959588 3562.054180218922
1930.2545479890086 3554.7278454672887
1930.9327744133352 3213.0045971361756
1931.6108374093164 3462.375011317795
1932.2887370173066 3704.8022812606896
1932.9664732776473 3039.516875732607
1933.6440462306673 3432.878796000418
1934.3214559166754 3391.2501990709293
1934.9987023759659 3588.8075280725725
1935.675785648813 3578.3368789246742
1936.3527057754836 3131.687790358014
1937.029462796223 3553.5588360288843
1937.70605675126 3316.9928070398623
1938.3824876808085 3269.288231232763
1939.058755625072 3380.5813598823906
1939.7348606242267 3386.3559204387143
1940.4108027184448 3341.58126026448
1941.0865819478713 3725.7549177606647
1941.7621983526478 3235.4299223901908
1942.4376519728921 3209.425274564128
1943.1129428487038 3315.6269117023753
1943.7880710201734 3316.400398013366
1944.4630365273733 3555.391718110119
1945.1378394103576 3104.100684753462
1945.8124797091714 3580.9824450502974
1946.4869574638324 3137.251144876454
1947.161272714353 3328.348026730707
1947.8354255007234 3490.749751745937
1948.5094158629272 3353.7648375970784
1949.1832438409183 3459.319898551531
1949.8569094746435 3523.419722337948
1950.530412804037 3590.5317830123445
1951.2037538690092 3627.6833155056484
1951.8769327094578 3331.85427125181
1952.5499493652678 3362.87717780749
1953.222803876306 3319.9047871131065
1953.895496282421 3285.470434942255
1954.5680266234522 3292.689331700128
1955.2403949392155 3493.7118137260813
1955.9126012695142 3132.213544738522
1956.5846456541403 3355.7061773919436
1957.2565281328643 3233.8719269500575
1957.9282487454457 3459.8222920122344
1958.5998075316202 3607.031820857457
1959.27120453112 3481.596028251233
1959.9424397836501 3169.0239217720145
1960.613513328908 3447.00107643532
1961.2844252065697 3669.4878463320333
1961.9551754563017 3328.747449191547
1962.6257641177453 3188.7396837700207
1963.29619123054 3248.920581194706
1963.966456834296 3072.9325950165157
1964.6365609686181 3051.138865781269
1965.306503673086 3456.6203278219896
1965.976284987275 3243.6639929417574
1966.645904950734 3335.017687713199
1967.315363603002 2953.90733627357
1967.9846609836077 3340.971720095292
1968.6537971320486 3333.3466608498225
1969.3227720878222 3242.6276761873473
1969.9915858904042 3085.6121778447623
1970.660238579252 3326.7439430138575
1971.3287301938108 3366.6124828783277
1971.997060773514 2950.937492564582
1972.665230357772 3179.3567934612915
1973.3332389859843 2883.604733780898
1974.0010866975335 3123.8274183813237
1974.6687735317864 3245.5763098480525
1975.3362995280932 3370.513744306082
1976.003664725793 3302.7516945235175
1976.6708691642052 2870.71003528542
1977.3379128826364 3156.2460214849684
1978.004795920373 3474.799729975214
1978.6715183166925 3562.464245553212
1979.3380801108524 2940.4966852025623
1980.0044813420973 3204.5706165262272
1980.6707220496555 2976.122587534783
1981.3368022727373 2999.2775685881193
1982.0027220505417 3415.5589365161286
1982.66848142225 2833.327758219099
1983.3340804270283 2976.2493427112067
1983.999519104027 3268.9323693640736
1984.6647974923835 3327.435170624867
1985.329915631215 3461.3557256117674
1985.99487355963 3310.891360223405
1986.6596713167146 3305.921615070851
1987.3243089415428 3184.9634527775743
1987.9887864731754 3589.9614737516226
1988.6531039506553 2946.2351683795455
1989.3172614130071 3622.3355666740126
1989.9812588992481 3134.2674561310696
1990.645096448372 2995.42379851496
1991.3087740993633 3126.735771395256
1991.9722918911848 3204.6143162241333
1992.635649862792 3068.6271498668248
1993.2988480531185 3455.381773986098
1993.9618865010852 3427.290324795837
1994.6247652455968 3131.700386669848
1995.287484325545 2941.576215886568
1995.9500437798033 3332.41994924655
1996.6124436472292 2900.408948161824
1997.2746839666706 3243.2540917875613
1997.936764776954 3228.767100301734
1998.598686116895 3189.61547139635
1999.2604480252903 3380.0823648644314
1999.9220505409212 3055.299660671345
2000.5834937025593 2873.559830327292
2001.2447775489582 2916.6317329270323
2001.9059021188514 3183.0983726167406
2002.5668674509616 3062.097847688122
2003.2276735839987 3122.243140373398
2003.8883205566508 3329.939243157063
2004.5488084075987 2941.6242043858447
2005.2091371755014 3084.2615976576553
2005.8693068990033 3148.5954743428915
2006.5293176167397 3300.2534812743747
2007.1891693673224 2885.510344402054
2007.848862189354 2772.160545432199
2008.5083961214223 3196.825553445991
2009.1677712020955 2997.7348656586446
2009.8269874699254 3002.424500029049
2010.4860449634598 3452.4205739760205
2011.1449437212177 3382.9364823427
2011.8036837817108 3313.4439472819963
2012.4622651834325 3292.07653312835
2013.1206879648653 3408.114573857039
2013.7789521644736 3540.337110365332
2014.4370578207036 2925.3365145698294
2015.0950049719922 3089.8548310109713
2015.7527936567585 3178.850890615155
2016.4104239134067 3206.7407399362774
2017.067895780323 3521.2541200261962
2017.725209295886 3535.7265237029847
2018.3823644984514 3550.153167267976
2019.0393614263648 3072.7701230165326
2019.6962001179545 2802.515344834158
2020.3528806115355 3200.3639687965297
2021.0094029454067 2900.762954405516
2021.6657671578487 2944.2719597536206
2022.321973287133 3084.2542174443406
2022.9780213715148 2994.508022420485
2023.6339114492293 2958.2953804399513
2024.2896435585026 2958.674495455495
2024.9452177375442 3033.457762965589
2025.600634024544 3296.177885243891
2026.2558924576842 3240.2564852953633
2026.9109930751292 3187.4308284094577
2027.565935915025 2903.6370337649855
2028.2207210155066 3408.950185213352
2028.8753484146964 3334.2660479016645
2029.529818150695 2920.5304697986576
2030.1841302615903 3226.2136002842262
2030.8382847854573 2931.7818461667425
2031.4922817603601 2986.219838834794
2032.1461212243357 3068.927208400056
2032.7998032154192 2879.499932393134
2033.4533277716218 2868.222327219683
2034.1066949309443 2856.6015565699404
2034.7599047313688 2974.463856957228
2035.4129572108704 3315.7382540894746
2036.0658524074006 3242.2471111256987
2036.7185903589016 3103.649881827693
2037.3711711032956 3126.023942308814
2038.023594678496 2979.75638693332
2038.675861122394 2803.672726664913
2039.3279704728757 3270.2966918535126
2039.9799227678031 2694.86925071287
2040.6317180450278 2993.2538674750804
2041.2833563423865 3034.857778455484
2041.9348376977014 3074.3167111047856
2042.5861621487784 2985.7206549675393
2043.2373297334088 3111.8132514981817
2043.8883404893695 2945.58443264525
2044.5391944544208 3177.4519986462747
2045.1898916663158 3157.911730550056
2045.8404321627804 3166.005074173123
2046.4908159815368 2980.1449181108937
2047.1410431602853 3193.720983059471
2047.7911137367173 2766.2031825273743
2048.441027748504 3220.6466177000284
2049.090785233302 2777.8568208998604
2049.7403862287592 2886.8530273020338
2050.389830772503 2760.15277544464
2051.0391189021466 2633.411187918039
2051.688250655294 2829.287245840168
2052.337226069527 2856.854438350817
2052.986045182417 3276.3735262586592
2053.634708031521 2630.068162160706
2054.283214654375 3095.5877225223944
2054.931565088511 2724.8136170979733
2055.579759371436 2852.544208531324
2056.2277975406523 3115.980281378924
2056.8756796336384 3343.3532613559546
2057.5234056878617 2791.957894726191
2058.1709757407752 2865.7264620915603
2058.8183898298194 3095.459175089737
2059.465647992416 3019.08846514654
2060.1127502659747 3175.8678334018814
2060.759696687888 2845.312248511458
2061.4064872955405 3255.8874312924745
2062.053122126292 3063.6951484656365
2062.699601217497 2653.9438146137686
2063.345924606485 2974.474325782029
2063.992092330587 3235.2532339425716
2064.638104427102 2814.3229277748474
2065.283960933324 3280.935128014809
2065.92966188653 3190.3135421439856
2066.5752073239855 3292.8063771074303
2067.2205972829397 2782.699937359809
2067.86583180062 3021.6161354358196
2068.5109109142522 2979.752722695732
2069.15583466104 2406.2954815450953
2069.8006030781708 2979.109275948838
2070.445216202821 3161.6415984190344
2071.089674072153 3320.3764568160577
2071.7339767233116 2959.239900277515
2072.3781241934303 3006.2442460977427
2073.0221165196253 3170.9271577234276
2073.6659537390024 3016.108668893191
2074.3096358886505 3081.77952157503
2074.953163005637 2585.1062600538166
2075.596535127028 2841.8497395662184
2076.2397522898664 2665.077450263906
2076.882814531182 2981.8241495075677
2077.5257218879924 3106.3937963278413
2078.1684743973 2923.695969926267
2078.8110720960885 2740.7239352426686
2079.453515021336 3316.5759473800485
2080.095803209997 3054.181029682227
2080.7379366990135 2971.895824725662
2081.37991552532 2756.013587695244
2082.0217397258275 3096.894547655251
2082.6634093374414 2658.628267252325
2083.3049243970418 3097.8948913926297
2083.9462849415067 3117.1136596177607
2084.587491007689 3000.4786774140894
2085.2285426324324 3139.0498613734662
2085.869439852564 3105.8583390798394
2086.510182704902 2561.53999650171
2087.1507712262483 3003.6248889077465
2087.791205453381 2651.6965597150056
2088.4314854230743 3155.9464554802494
2089.0716111720867 2828.97884554915
2089.7115827371617 2614.150193762396
2090.351400155023 2583.860036184375
2090.991063462385 2553.647260407083
2091.6305726959527 2709.8528994219714
2092.2699278924047 2679.9840504912827
2092.9091290884153 2650.1565633528994
2093.548176320641 2797.9007758477596
2094.187069625721 3011.485491697164
2094.8258090402887 2638.956804810792
2095.464394600951 2834.0847199790833
2096.102826344313 2922.8691294521614
2096.741104306955 3135.213109161853
2097.379228525453 2618.908126046016
2098.017199036358 2692.4610081524456
2098.6550158762147 3263.5255602448256
2099.2926790815527 2946.1592808252294
2099.9301886888825 2968.234574627196
2100.5675447347076 2922.9170953002467
2101.2047472555114 3268.1029183178784
2101.841796287761 2794.0418580165206
2102.47869186792 2977.3326975149807
2103.1154340324265 2878.4256579358316
2103.752022817709 2699.6763283701994
2104.388458260184 2907.3368132709516
2105.024740396251 2824.7813472838247
2105.660869262292 2643.0797260393274
2106.296844894685 3214.5024443620987
2106.93266732978 2863.189500218585
2107.5683366039284 2468.0273232149784
2108.2038527534532 2860.5206264532776
2108.8392158146726 3158.045942788709
2109.4744258238843 2810.0193648628883
2110.1094828173755 2917.062905565631
2110.744386831422 3371.327880977105
2111.3791379022787 2841.4622850146584
2112.01373606619 3080.72731434688
2112.648181359389 2792.1561074269825
2113.28247381809 2798.2200086011976
2113.916613478492 2684.1674874004775
2114.550600376786 2926.5734531237604
2115.1844345491445 3033.279520208082
2115.818116031729 2760.458819674289
2116.451644860679 2563.613545704735
2117.085021072133 2677.103134513437
2117.718244702204 2691.8349248211457
2118.3513157869984 2779.7394944364014
2118.984234362604 2558.401068718614
2119.617000465092 2680.366193454956
2120.249614130529 3175.8908517641376
2120.8820753949585 2728.707782401583
2121.5143842944162 2711.3346351525543
2122.14654086492 2572.5982235286974
2122.7785451424734 2999.0244107489825
2123.4103971630702 2473.4439236033627
2124.042096962681 3138.9987565031356
2124.6736445772767 2807.7049753751335
2125.305040042802 2718.9182770610014
2125.936283395191 2925.3982911771745
2126.567374670365 2691.5202267297213
2127.198313904233 2801.412073670001
2127.8291011326855 3041.530564926551
2128.4597363916037 2622.1867700664566
2129.0902197168507 2700.320602830185
2129.720551144279 2536.947894449997
2130.3507307097225 3035.5502008041067
2130.980758449008 3129.6975568893226
2131.6106343979427 2655.3144165156764
2132.2403585923203 2997.2625664579286
2132.8699310679276 3021.2276429824665
2133.499351860526 2792.953805869696
2134.1286210058715 2976.68922270505
2134.7577385397053 2610.7743874995313
2135.3867044977487 2858.587745744705
2136.0155189157176 3111.8738298977196
2136.644181829308 3147.8217283535523
2137.2726932742025 2726.636559730878
2137.901053286074 3021.0303535690523
2138.5292619005777 2701.0135953784256
2139.1573191533535 2805.141190011519
2139.7852250800315 2831.559636949477
2140.4129797162295 2842.9786576398333
2141.0405830975433 2394.6643420151113
2141.6680352595613 2430.9876305161424
2142.2953362378576 2467.4081753975997
2142.9224860679915 2670.687286424848
2143.549484785508 2650.5373236874084
2144.1763324259373 2856.9159209052314
2144.803029024799 2574.5335173782546
2145.429574617594 2707.4622537683604
2146.0559692398165 3047.3184155036993
2146.682212926942 2566.931165108329
2147.308305714432 2731.3370849343246
2147.9342476377333 3084.016666729837
2148.5600387322847 2896.210681247375
2149.185679033506 3074.9522313906423
2149.8111685768017 2773.7536655379267
2150.4365073975678 2687.8707000446516
2151.061695531187 2757.8383370137967
2151.686733013021 2996.8219378972058
2152.311619878423 2796.5833662399245
2152.9363561627342 2812.3036806172977
2153.560941901278 2443.5312198150477
2154.1853771293663 2957.523361598676
2154.809661882293 3031.770365675742
2155.433796195348 2937.457967345198
2156.0577801037944 2773.263888616531
2156.681613642895 2950.627603492573
2157.3052968478896 2815.4112587426325
2157.928829754006 2762.4044725025037
2158.552212396462 2827.86880109406
2159.1754448104566 2775.114511477407
2159.7985270311783 2404.311098071804
2160.4214590938027 2226.7030689675184
2161.0442410334927 2301.974325062535
2161.6668728853874 2864.447225161319
2162.289354684628 2589.103972197947
2162.911686466332 2654.867937824705
2163.533868265602 3066.46732258861
2164.1559001175337 3184.4601068560064
2164.7777820572046 3010.6517080715776
2165.399514119681 2536.580272125227
2166.021096340013 2234.5337218657924
2166.6425287532384 2377.3863672493444
2167.263811394385 2520.611669856561
2167.8849442984574 2877.268985612227
2168.505927500455 2479.9625514125437
2169.126761035366 2754.34479549946
2169.7474449381552 2566.962354893643
2170.367979243778 2452.574962355558
2170.9883639871823 2674.8016478254895
2171.608599203293 2793.985829521205
2172.2286849270276 3071.149582921402
2172.8486211932886 3208.146609912167
2173.4684080369625 2515.272758423298
2174.0880454929265 2478.8653541946437
2174.7075335960417 2513.653643045717
2175.3268723811543 2925.466497821725
2175.9460618831 2697.4187039613093
2176.565102136701 2459.5678131322966
2177.1839931767627 2534.4916291813115
2177.802735038078 2609.649857532643
2178.421327755432 2294.952611930565
2179.0397713635866 2520.5668200540704
2179.658065897298 2430.355054329505
2180.276211391305 2276.9906654169527
2180.8942078803357 2466.9762184383844
2181.5120553991 2593.0048451724315
2182.129753982299 2518.12049250171
2182.7473036646206 2616.2500057659486
2183.3647044807367 2664.942336172283
2183.9819564653044 2475.690988355686
2184.599059652968 2779.1353777625836
2185.216014078367 2944.429001009887
2185.832819776113 2933.148483566974
2186.4494767808137 2921.6733623416008
2187.065985127063 2720.431444996145
2187.682344849436 2475.1598201222805
2188.298555982501 2884.1696575956335
2188.9146185608097 2608.3425173503188
2189.530532618901 2702.800051933937
2190.1462981912937 2605.753262982204
2190.761915312507 2701.8169278628275
2191.377384017036 2781.8210876637804
2191.9927043393654 2694.457390974981
2192.6078763139667 2193.662000697902
2193.2228999753006 2281.209187215227
2193.837775357808 2368.9732465273482
2194.452502495922 2312.550198675578
2195.0670814240602 2364.217627536084
2195.6815121766285 2472.187830154262
2196.2957947880186 2436.2440795304146
2196.9099292926057 2400.2362483711877
2197.523915724758 2907.4701561077054
2198.137754118825 2486.4898916552365
2198.7514445091456 2927.549113627637
2199.3649869300443 2445.1642167397085
2199.9783814158327 2959.255140970862
2200.5916280008096 3261.658690045406
2201.2047267192593 2653.5580174611828
2201.8176776054515 2874.622445563493
2202.430480693649 2583.9229466454785
2203.0431360180955 2809.7044835317597
2203.6556436130195 2987.4183211294535
2204.268003512645 2875.055037796835
2204.8802157511727 2762.5129733486347
2205.492280362796 2980.3927004994125
2206.1041973816937 2482.1654655955244
2206.715966842032 2633.030213953908
2207.3275887779655 2326.4683164313615
2207.93906322363 2605.109462252754
2208.550390213153 2816.511933202758
2209.1615697806465 2723.548864890877
2209.7726019602105 2247.821624637428
2210.3834867859277 2269.1372476441848
2210.9942242918787 2672.8203873723623
2211.6048145121167 2303.937570550618
2212.2152574806914 3260.240399923725
2212.825553231638 2553.3029524031435
2213.435701798975 2522.0277414196116
2214.045703216707 2490.9932584155913
2214.655557518832 2300.2000017307337
2215.2652647393297 2207.2684318804895
2215.874824912169 2218.076507311152
2216.4842380713 2618.4729390214316
2217.09350425067 2365.6467238658297
2217.7026234842033 2582.308274872038
2218.311595805819 2856.5287531918552
2218.9204212494133 2468.73535837367
2219.52909984888 2352.899236682198
2220.137631638092 2860.565006648885
2220.7460166509154 2750.2696391975164
2221.354254921198 2631.0249505216193
2221.9623464827764 2749.728914196553
2222.5702913694713 2572.712880883699
2223.178089615096 2750.524742615822
2223.7857412534486 2410.559087032789
2224.39324631831 2386.861334727447
2225.000604843457 2334.224773020419
2225.607816862641 2923.55789320671
2226.214882409611 2732.3765081403726
2226.8218015180973 2673.6824488769207
2227.4285742218217 2341.360622190213
2228.0352005544864 2711.764993365484
2228.6416805497847 2183.327465400056
2229.248014241399 2626.3130683516283
2229.8542016629945 2139.246186824591
2230.460242848223 2558.0741764275276
2231.0661378307304 2503.6857926848716
2231.671886644139 2449.303726319848
2232.277489322065 2318.6297170630814
2232.8829458981127 2056.982508872789
2233.48825640587 2654.737871891394
2234.0934208789095 3021.8397353798828
2234.6984393507955 2763.128756209921
2235.3033118550793 3117.8018859506797
2235.9080384252975 2714.560714693272
2236.5126190949723 2170.6718650244943
2237.1170538976166 2403.2431728197907
2237.721342866729 2405.9370760517804
2238.32548603579 2408.6390598943385
2238.9294834382763 2641.986553126464
2239.533335107646 2389.048489296123
2240.1370410773434 2794.3146699005165
2240.740601380803 2458.852625145307
2241.3440160514474 2493.122658465688
2241.9472851226783 2546.6073891000683
2242.550408627896 2608.3177606576805
2243.1533866004793 2670.1750440478163
2243.756219073799 2508.8546192025688
2244.3589060812064 2252.8586913084005
2244.961447656049 2291.79262504914
2245.5638438316564 2463.8771748012337
2246.166094641343 2683.692194843741
2246.7682001184166 2274.6049713155985
2247.3701602961664 2605.9435556439616
2247.971975207871 2660.458712509288
2248.5736448867974 2836.8221023543474
2249.175169366197 2665.520580857618
2249.7765486793123 2267.5844588768296
2250.3777828593684 2611.9243879977935
2250.9788719395783 2561.698110980991
2251.579815953146 2533.624879059019
2252.1806149332606 2281.5618503274295
2252.781268913097 2499.4697624930604
2253.381777925817 2272.385259429368
2253.9821420045737 2472.5953739862352
2254.5823611825035 2833.1584794921446
2255.1824354927303 2526.6319529958478
2255.782364968365 2400.2705272379685
2256.38214964251 2273.809000044002
2256.9817895482483 2311.4983532815677
2257.5812847186553 2612.037990878857
2258.180635186791 2170.9372449023567
2258.779840985704 2547.198498545499
2259.37890214843 2531.3609160298156
2259.97781870799 2565.245522758596
2260.5765906973957 2599.211759276858
2261.175218149645 2335.9413319883197
2261.773701097718 2771.476590730496
2262.3720395745895 2241.7289685376413
2262.970233613216 2830.5768158096507
2263.568283246548 2246.8295219494607
2264.1661885075137 2146.972927735329
2264.763949429038 2244.022510420895
2265.3615660440246 2615.8107033871815
2265.959038385374 2241.072458564133
2266.5563664859637 2616.493890152209
2267.153550378669 2165.35282035792
2267.7505900963424 2667.8929367004553
2268.3474856718312 2187.4230703533017
2268.9442371379664 2515.87668891695
2269.5408445275643 2161.2914603678896
2270.1373078734377 2490.584400498102
2270.7336272083758 2341.8035484863963
2271.32980256516 2367.251468692182
2271.925833976562 2582.766227675311
2272.5217214753357 2763.3702036123987
2273.117465094223 2435.8885867913987
2273.7130648659586 2256.862212314073
2274.308520823257 2396.032833652967
2274.903832998827 2788.1002727550162
2275.4990014253563 2184.8191827583933
2276.094026135528 2756.406871638931
2276.6889071620117 2746.5737483923795
2277.2836445374614 2736.598377004725
2277.878238294519 2494.3430842609514
2278.472688465812 2321.275114503817
2279.066995083962 2147.86758502134
2279.6611581815705 2360.358208447492
2280.255177791232 2138.6325668913723
2280.8490539455233 2918.523453792608
2281.442786677013 2827.7398900982053
2282.0363760182554 2740.0997523292103
2282.6298220017943 2267.7554519516407
2283.223124660155 2638.1311422328668
2283.816284025859 2147.7971844378585
2284.4093001314086 2059.635227157615
2285.002173009292 1971.3113605556687
2285.5949026919952 2561.050535575172
2286.1874892119777 2225.2652538752677
2286.7799326016993 2497.784985708612
2287.3722328936 2175.0780537654236
2287.964390120109 2093.8357358637545
2288.556404313642 2506.723402042722
2289.1482755066027 2298.457637473418
2289.7400037313873 2612.603437910747
2290.3315890203703 2280.806819079366
2290.9230314059205 2029.86119787915
2291.5143309203904 2240.235677841097
2292.1054875961236 2057.0516575583224
2292.6965014654506 2681.4482569576894
2293.287372560684 2443.127548114832
2293.878100914131 2275.075878896584
2294.468686558086 2106.7385790987387
2295.059129524827 2260.1711299658523
2295.649429846617 2770.610094335571
2296.239587555716 2510.548674501957
2296.8296026843636 2412.572032547621
2297.419475264791 2464.4052302288155
2298.0092053292137 2516.1820370002674
2298.598792909839 2500.688373893907
2299.1882380388597 2457.784516478776
2299.777540748455 3026.7521205921157
2300.3667010707904 2589.3666618802426
2300.9557190380256 2565.213924721598
2301.544594682302 2308.9783124651153
2302.1333280357503 2869.9104784791734
2302.721919130485 2617.5888599611817
2303.3103679986198 2771.933301754449
2303.898674672242 2659.6429202860045
2304.486839183437 2127.1918541158593
2305.0748615642697 2595.032959364324
2305.6627418468015 2145.9385964140342
2306.2504800630704 2288.8596439499306
2306.8380762451143 2220.3181532683902
2307.425530424949 2364.5399608508774
2308.012842634582 2509.074374582635
2308.6000129060103 2807.267500176219
2309.187041271214 2614.704066773923
2309.773927762164 2421.7434381392786
2310.3606724108213 2261.7753378087973
2310.9472752491274 2181.368204658879
2311.5337363090184 2371.790252221524
2312.120055622414 2355.1287475471386
2312.706233221221 2217.3314353944884
2313.2922691373424 1977.5783270697927
2313.8781634026564 2030.8627660460625
2314.463916049037 2084.2462115402004
2315.049527108342 2346.575468867125
2315.6349966124235 2732.9644681684945
2316.2203245931123 2511.967665160432
2316.8055110822315 2016.461812399557
2317.3905561115935 2428.4332368935075
2317.9754597129977 2524.583633832247
2318.560221918229 2620.969142433053
2319.1448427590603 2274.2064469037646
2319.729322267256 1888.5509797302561
2320.313660474563 2497.403891783586
2320.8978574127195 2401.6432085007564
2321.481913113452 2305.748974745854
2322.0658276084705 2070.3737411932943
2322.6496009294806 2529.422379964712
2323.233233108165 2737.145335706412
2323.8167241762058 2328.825588509708
2324.4000741652617 2535.0207304091773
2324.983283106987 2687.829555389084
2325.5663510330232 2810.49147796233
2326.1492779749933 2375.7622125459375
2326.7320639645204 2292.095317746983
2327.3147090332004 2261.959838174321
2327.897213212629 2228.9979347202357
2328.4795765343843 2195.820749845153
2329.0617990300307 2056.885153435004
2329.643880731124 2509.74853327925
2330.22582166921 2399.7532776920084
2330.807621875816 2543.826676793854
2331.3892813824623 1864.51874822436
2331.9708002206517 1986.6849972960651
2332.5521784218818 2179.698459723361
2333.133416017634 2373.1995485387642
2333.7145130393765 2372.3026200542245
2334.295469518571 2431.083356727649
2334.876285486658 2447.381745742349
2335.456960975076 2511.561198491124
2336.037496015242 2575.9276119783635
2336.6178906385667 2257.150094618082
2337.198144876451 2679.5546416346306
2337.778258760278 2226.4201495328966
2338.3582323214214 1964.5582703428095
2338.938065591243 2503.250535749399
2339.517758601087 2738.4235962601692
2340.0973113822965 2389.8655694905055
2340.676723966193 2087.0538998314755
2341.255996384094 2213.512491436824
2341.835128667295 2516.51499045486
2342.4141208470883 2565.7878458875966
2342.992972954751 2488.736554424409
2343.5716850215467 2272.8054583172943
2344.1502570787306 1704.0832064430492
2344.7286891575386 2160.7821935725847
2345.3069812892045 2776.371853087499
2345.885133504944 2764.661836743795
2346.4631458359618 2239.077839707138
2347.04101831345 2090.7188931396313
2347.6187509685915 2473.83645008138
2348.196343832553 2046.1862403342336
2348.7737969364935 1940.950286392202
2349.351110311558 2254.8209410709073
2349.9282839888765 2413.6080177924296
2350.5053179995757 2191.432545113658
2351.0822123747585 1897.2781303330273
2351.658967145526 2049.469187186415
2352.2355823429643 2202.035947450516
2352.812057998144 2474.3318590875683
2353.3883941421263 2151.7751565405842
2353.9645908059647 2679.752722408535
2354.540648020693 2466.0882663234993
2355.116565817336 2121.6178454077585
2355.6923442269126 2473.2664964193045
2356.2679832804224 2232.2591159735
2356.8434830088518 2125.0372434756773
2357.41884344318 2359.0809752777186
2357.994064614377 2320.667832591596
