#exp_cfg={"servo_angle": 0.0, "laser_lim": 100.0, "servo_angle_to": 18.0, "laser_wup": 0.0, "bt_dev": "EnSpectr-25AE3", "laser_wdn_max": 0.0, "frames": 10.0, "servo_used": 0, "servo_calib_use": 0, "laser_wdn_min": 0.0, "servo_pix_from": 90.0, "cooler_tout": 300.0, "servo_angle_from": 0.0, "servo_calib": "[-1.9174921013161362e-09, 3.9322238269163779e-05, -0.27385609119055809, 653.59552119713567]", "laser_autoctl": 0, "servo_pix_to": 3682.0, "laser_pw": 100.0, "cooler_on": 0, "laser_volt": 4.0, "cooler_autoctl": 0, "cooler_curr": 70.0, "cooler_startup": 10.0, "laser_fixed_pw": 0, "gain": 1.3, "offset": 2.53059635486, "servo_calib_degree": 3.0, "laser_curr": 55.0, "shutter": 8200.0, "servo_calib_step": 1.0, "laser_fixed_curr": 0, "exp": 2000.0, "ccd_volt": 4.7, "bt_addr": "00:06:66:62:5A:E3", "servo_delay": 500.0, "laser_autooff": 1}
#proc_cfg={"flat_auto_wnd": 200.0, "flat_auto_fr": 200.0, "flat_auto_shift": 5.0, "yconv": 1, "flatten": 1, "flatten_strength": 100.0, "xfrom": 300.0, "auto_max_frame": 2000.0, "auto_signal": 48000.0, "flat_auto_tol": 0.1, "autoclip": 1, "xrel_range": 0.0, "flat_auto_to": 4000.0, "intensity_adj": 1.0, "xrel": 7852.0, "rmhot": 1, "flat_auto_slit": 4.999999999999997, "auto_ini_exp": 300.0, "auto_off": 0, "xto": 2860.0, "flat_auto_ref": "", "flat_auto_rank": 1, "autobackg": 0, "xrel_adj": 0.0, "auto_black_lvl": 1, "base_wnd": 100.0, "sub_baseline": 0, "xconv": 2, "auto_max_exp": 1000.0, "auto_total_exp": 10000.0, "auto_exp": 0, "rmripple": 0, "black_lvl": 8291.2375, "shutter_clip_adj": 0.0, "auto_bckg": 0, "flat_auto_thr": 0.9, "subbackg": 1}
316.8218498245369 12631.36621639239
317.89969571804795 12456.80903573081
318.977263876126 12307.821731392247
320.05455438786703 12245.0392539852
321.1315673423287 12289.263892705447
322.2083028285215 12311.81023724331
323.2847609354267 12121.272182318808
324.3609417519747 12073.254352274264
325.43684536705587 12009.27840725186
326.5124718695279 11956.156907789806
327.58782134820103 11975.77411264635
328.66289389184385 11910.249854380065
329.7376895891921 11772.873816020425
330.8122085289342 11802.835574890207
331.88645079971866 11774.580430693244
332.9604164901575 11635.832778868124
334.03410568881554 11672.729500535343
335.1075184842266 11810.801771871247
336.18065496487543 11557.482700308492
337.2535152192122 11566.415331555749
338.32609933564163 11594.086347301669
339.39840740253203 11552.836538266562
340.4704395082099 11433.13082613506
341.5421957409617 11432.817212752216
342.6136761890357 11525.8837762452
343.6848809406365 11415.981967278323
344.75581008392874 11389.883173299744
345.82646370703696 11329.349447867788
346.8968418980512 11297.422148308608
347.96694474501055 11382.197715098091
349.0367723359268 11335.083474167246
350.106324758759 11301.848633423066
351.1756021014353 11211.155388812547
352.2446044518383 11264.676062847899
353.31333189781435 11370.995886709761
354.38178452716966 11304.755255425893
355.449962427665 11311.889619130747
356.51786568702846 11245.610774779996
357.58549439294256 11343.210475717016
358.6528486330535 11427.581841246396
359.71992849496564 11366.258854799906
360.7867340662433 11391.48550288811
361.8532654344144 11366.308728629516
362.9195226869597 11482.558386819335
363.9855059113288 11231.563487983576
365.05121519492604 11290.289967378687
366.11665062511565 11466.506049762354
367.1818122892273 11455.989185269955
368.2467002745434 11406.084405555548
369.31131466831175 11588.9158027464
370.375655557742 11521.620854616516
371.4397230299983 11510.554253684812
372.5035171722102 11498.331179666804
373.5670380714637 11522.931968139359
374.6302858148101 11691.51617190646
375.6932604892554 11656.734455291918
376.7559621817709 11623.92789119002
377.81839097928605 11550.945320315173
378.8805469686886 11546.415154537046
379.94243023683157 11558.357183401502
381.0040408705263 11573.196606425827
382.0653789565458 11476.405983928067
383.1264445816196 11491.532572228858
384.1872378324406 11437.56620457154
385.2477587956637 11531.803271415654
386.3080075579037 11490.056846762276
387.3679842057336 11410.65301982379
388.4276888256918 11503.05496953178
389.48712150426945 11399.956053043521
390.54628232792857 11378.742831281295
391.6051713830857 11258.467959206322
392.66378875611736 11273.68489996024
393.7221345333637 11277.37761445994
394.7802088011249 11189.794033493
395.838011645661 11168.602154264041
396.89554315319765 11063.109250087688
397.9528034099112 10962.701010432316
399.00979250194723 10935.804175454121
400.06651051541485 10988.487960438335
401.1229575363741 11019.018084797495
402.17913365085224 10852.729720041194
403.23503894483656 11000.031917821154
404.2906735042761 10859.808625719317
405.3460374150818 10802.464826453453
406.401130763119 10822.793539179922
407.455953634224 10838.09246419192
408.5105061141876 10739.729741272362
409.56478828876243 10564.063202124742
410.6188002436629 10696.423065557385
411.6725420645689 10626.923118843033
412.72601383711117 10624.863836834515
413.77921564689314 10727.086654541337
414.8321475794728 10595.532636261536
415.88480972036814 10532.158482344403
416.93720215506437 10629.150263437456
417.9893249690049 10559.310164820592
419.04117824759123 10491.355247066345
420.09276207619223 10519.285456259746
421.144076540133 10492.375988518936
422.1951217247042 10426.032229412227
423.24589771515275 10505.580312506234
424.2964045966928 10435.321973884742
425.34664245449494 10431.96867308366
426.3966113736933 10421.06890024433
427.4463114393875 10324.718525620145
428.49574273662984 10382.720918245195
429.5449053504417 10259.69808151155
430.5937993658026 10376.779894276246
431.6424248676558 10256.023365216439
432.6907819409007 10243.060508389537
433.73887067040596 10284.271747713092
434.7866911409965 10308.145215913904
435.8342434374608 10188.512970248881
436.88152764455117 10221.471546100092
437.9285438469724 10199.530717172815
438.9752921294057 10112.573336661613
440.02177257648145 10167.287479005969
441.06798527279716 10087.69044200691
442.1139303029122 10251.86169388485
443.1596077513459 10427.485560610045
444.2050177025794 10178.51972819264
445.25016024105753 10215.893052406955
446.2950354511886 10125.136577941763
447.33964341733736 10207.51057152811
448.383984223834 10133.03302350196
449.4280579549686 10104.086013624054
450.471864694995 10157.028945260241
451.5154045281306 10178.492639484319
452.5586775385509 10140.420560768045
453.60168381039693 10136.194130266671
454.64442342776783 10218.033655055278
455.6868964747264 10223.986197850594
456.7291030353008 10130.703676697316
457.77104319347563 10238.22740530657
458.8127170332027 10207.132535723478
459.854124638392 10226.319177188954
460.895266092919 10299.567355316267
461.93614148061897 10366.373621367686
462.97675088529104 10394.817099813412
464.01709439069236 10439.480335763596
465.0571720805492 10352.300916616648
466.0969840385442 10475.26248813018
467.1365303483253 10602.94513547254
468.17581109350067 10552.689326427648
469.2148263576437 10478.994073678132
470.2535762242878 10604.28183700278
471.29206077693016 10670.786937984678
472.33028009902773 10664.717438444031
473.3682342740012 10700.204536378063
474.40592338523857 10806.62670842154
475.4433475160804 10832.882661433398
476.4805067498364 10858.216528223755
477.51740116978 10924.191803694594
478.5540308591426 11021.85302481458
479.59039590112116 11152.742800946868
480.6264963788726 11229.726159383976
481.6623323755193 11384.317518415719
482.6979039741436 11542.1439872902
483.7332112577915 11697.273452696969
484.76825430947247 11958.163241262806
485.80303321215797 11934.442763722456
486.837548048783 12111.39592104348
487.8717989022425 12373.065623479692
488.90578585539697 12498.873500678179
489.9395089910686 12508.452570777921
490.97296839203955 12482.262871116862
492.00616414106116 12311.507975977152
493.0390963208429 12256.657220965168
494.0717650140559 12337.946458938102
495.10417030333883 12175.559081834212
496.1363122712901 12081.259449680647
497.16819100046814 11860.947943074561
498.1998065734024 11699.268626071558
499.2311590725767 11600.001095741225
500.26224858044407 11457.966608139723
501.2930751794156 11229.021533674222
502.3236389518679 11285.437663055294
503.35393998014115 10968.84801850519
504.38397834653733 10982.120417048869
505.4137541333221 10840.292413681
506.4432674227228 10754.51710278517
507.4725182969323 10660.451170125643
508.5015068381035 10601.997200848276
509.53023312835467 10705.610566194602
510.55869724976765 10464.09636512484
511.58689928438434 10429.816562841403
512.6148393142121 10477.62641566234
513.6425174212218 10501.61322852434
514.6699336873462 10359.248272365094
515.6970881944835 10500.850923147442
516.7239810244901 10421.682523065669
517.7506122591931 10534.780325902773
518.7769819803761 10530.4354957043
519.8030902697901 10493.488874228047
520.8289372091476 10671.943970014305
521.8545228801249 10726.942483118513
522.8798473643619 10647.232402599935
523.9049107434621 10613.504451836257
524.9297130989908 10657.181136413445
525.9542545124805 10685.527221516808
526.9785350654201 10679.56959829253
528.0025548392696 10687.276701135086
529.0263139154504 10592.312526922331
530.0498123753423 10627.134834463246
531.073050300296 10494.63488558166
532.0960277716204 10469.77629451503
533.1187448705896 10432.525778259589
534.1412016784416 10424.920971586656
535.1633982763833 10392.20219362187
536.1853347455726 10312.098391342357
537.2070111671401 10219.93366822771
538.2284276221817 10190.101002390382
539.2495841917516 10055.988571559801
540.2704809568677 9995.818075546737
541.2911179985167 10018.187949853598
542.3114953976419 9961.042188636757
543.3316132351592 9946.944384993
544.3514715919409 9808.632673403716
545.3710705488247 9835.957296757639
546.3904101866156 9787.482438729809
547.4094905860784 9814.725947929333
548.4283118279418 9710.824142902606
549.4468739929034 9867.864094622571
550.4651771616191 9717.326270036674
551.4832214147063 9674.091241975291
552.501006832761 9753.385659973048
553.5185334963226 9663.459744502708
554.5358014859103 9770.748060549604
555.5528108820035 9738.971847627156
556.5695617650363 9550.875745580135
557.5860542154242 9695.745894999476
558.6022883135283 9628.342077576131
559.6182641396881 9608.428700757988
560.6339817741991 9698.290806004929
561.6494412973225 9705.24150006332
562.6646427892883 9801.684753504935
563.6795863302796 9583.431267967038
564.694272000459 9692.325720332674
565.7086998799423 9792.395283817325
566.7228700488104 9670.885518209094
567.7367825871115 9641.833406537888
568.7504375748576 9758.542999225627
569.7638350920224 9683.495665165612
570.7769752185486 9720.3516963548
571.7898580343353 9702.3680635686
572.802483619258 9655.787131424066
573.8148520531431 9808.819426455291
574.8269634157932 9856.867899091467
575.8388177869692 9827.289638624228
576.8504152463938 9907.077084583332
577.8617558737587 10121.083643022353
578.8728397487175 9968.643947267163
579.883666950891 10186.162654343707
580.8942375598654 10309.946639181573
581.9045516551851 10456.217261869959
582.9146093163617 10657.471346531865
583.924410622878 10514.923875321416
584.9339556541727 10539.671578936965
585.9432444896538 10863.982082615963
586.9522772086875 10666.679259294804
587.9610538906127 10736.97608879075
588.9695746147318 10632.541662352347
589.9778394603054 10708.631304826262
590.985848506567 10598.279840724468
591.9936018327098 10607.402017010048
593.0010995178891 10295.651291837401
594.0083416412344 10453.499311829093
595.0153282818283 10195.317482070952
596.0220595187293 10227.216297196577
597.0285354309508 10070.528505825874
598.0347560974806 10034.506678670381
599.0407215972609 9984.024159897937
600.0464320092051 9906.59371073482
601.0518874121954 9964.194358381448
602.0570878850685 9861.945991311939
603.062033506636 9972.662879081001
604.0667243556636 9917.086556649967
605.0711605108936 9825.753284602406
606.0753420510264 10015.333298062946
607.0792690547278 9970.271625546031
608.082941600629 10046.854424787422
609.0863597673306 10035.300975456912
610.0895236333909 10098.999669545756
611.0924332773357 10209.39839392426
612.0950887776617 10286.841009696624
613.0974902128219 10373.888250319214
614.0996376612384 10629.216985878842
615.1015312013005 10646.386269830586
616.1031709113595 10800.45447081522
617.1045568697336 10691.479257823854
618.1056891547069 10996.521560075813
619.1065678445229 11162.927361234648
620.1071930173985 11553.619830272426
621.1075647515099 11613.451083494325
622.1076831250048 11781.308966843942
623.1075482159849 11985.782208553223
624.1071601025305 12153.52447064185
625.1065188626781 12461.126613095901
626.105624574433 12730.209095820575
627.1044773157682 12871.051040609545
628.1030771646128 12951.013773974259
629.1014241988742 13207.212344348058
630.0995184964158 13430.222635744492
631.0973601350688 13413.392256725554
632.0949491926294 13675.433784160346
633.0922857468631 13398.934691326887
634.089369875499 13563.456993956439
635.0862016562278 13555.172888867726
636.0827811667077 13337.411035607607
637.0791084845641 13329.638018771624
638.0751836873878 13038.669200204069
639.0710068527369 12965.591416687248
640.0665780581294 12782.295956347252
641.0618973810506 12543.03992390365
642.0569648989604 12422.001321272346
643.0517806892676 12102.439132507374
644.0463448293649 11995.050459669364
645.040657396592 11690.338077092865
646.0347184682723 11577.994875749615
647.0285281216875 11339.061278017294
648.0220864340772 11148.95729985214
649.0153934826558 10973.135066070276
650.0084493446047 10759.692750982722
651.0012540970674 10688.002428307846
651.9938078171526 10500.614049351516
652.9861105819346 10385.642739012315
653.9781624684565 10396.956896458028
654.9699635537254 10182.061052250303
655.9615139147136 10179.195738681557
656.9528136283589 9977.451559742607
657.9438627715699 10097.442260329546
658.9346614212154 9919.2900752218
659.925209654135 9707.955534761366
660.9155075471263 9818.66369523534
661.9055551769616 9815.132017567714
662.895352620375 9893.432308570056
663.8848999540678 9649.56912095199
664.8741972547068 9565.891474638123
665.863244598926 9507.408115116647
666.8520420633213 9529.185796440172
667.8405897244611 9484.22495903201
668.8288876588758 9362.366802100149
669.8169359430613 9414.232315255875
670.8047346534822 9398.325558249087
671.7922838665672 9432.872987406312
672.7795836587156 9479.844135981515
673.766634106285 9523.927141871998
674.7534352856092 9379.324560302292
675.7399872729766 9399.966614305598
676.7262901446538 9437.552092609374
677.712343976862 9335.275315547222
678.6981488457986 9408.681628291375
679.6837048276229 9310.960498028122
680.6690119984596 9454.589238815228
681.6540704344043 9387.287231300927
682.6388802115107 9434.705383394914
683.6234414058108 9376.608363058256
684.6077540932874 9256.448688268116
685.591818349907 9302.909558564295
686.575634251587 9253.37374701475
687.5592018742263 9230.20984673053
688.5425212936734 9050.51386369947
689.5255925857564 9206.339945936716
690.5084158262707 9128.4748810314
691.4909910909646 9120.359315103493
692.4733184555644 9043.826069047329
693.4553979957618 9110.577596509838
694.4372297872123 9077.104444395573
695.4188139055404 8996.577633537176
696.4001504263324 8944.723595693134
697.3812394251509 9103.43100576415
698.3620809775111 8950.096409130778
699.3426751589104 8963.635475886756
700.3230220448004 8864.553934207968
701.3031217106054 9035.283413235027
702.2829742317172 9178.506910345643
703.2625796834873 8950.708020622798
704.2419381412474 8929.262146251178
705.22104968028 9109.508827068401
706.1999143758458 9064.810152606777
707.178532303169 9056.354632909326
708.1569035374378 9089.714267311774
709.1350281538107 9199.200358583654
710.1129062274158 9124.182187643713
711.0905378333373 9254.09963927927
712.0679230466376 9195.392548813954
713.0450619423427 9426.281863025906
714.0219545954424 9450.084684880854
714.9986010808989 9401.02686993126
715.9750014736292 9481.076938625878
716.9511558485392 9637.892895519608
717.9270642804786 9668.747055724194
718.9027268442787 9769.130973347492
719.8781436147328 9693.34306045822
720.8533146666014 9654.073761361778
721.828240074612 9697.166991794935
722.8029199134635 9648.62667892726
723.7773542578125 9728.857914934917
724.751543182294 9572.00083884387
725.7254867615029 9597.733592428473
726.6991850700015 9349.84195545733
727.6726381823228 9382.351477834378
728.6458461729599 9428.127516049422
729.6188091163858 9280.88309233695
730.5915270870246 9230.928259180457
731.5640001592856 9129.287671746355
732.536228407529 9251.925648131863
733.5082119060917 9253.236950143704
734.4799507292755 9186.566849894392
735.4514449513481 9128.391906641027
736.4226946465496 9316.444070077783
737.3936998890786 9245.590079863825
738.3644607531078 9130.355797186457
739.3349773127793 9160.126450387033
740.3052496421951 9245.03224139314
741.27527781543 9066.606120764187
742.2450619065221 8884.761583473455
743.2146019894826 8968.62874325678
744.183898138288 8961.531317538638
745.1529504268801 8896.617098982624
746.1217589291682 8748.843312711524
747.0903237190341 8766.991991979045
748.058644870318 8777.093348107566
749.0267224568397 8709.754330846812
749.994556552374 8551.587308284983
750.9621472306771 8632.66740673487
751.9294945654583 8645.085714256398
752.8965986304011 8703.838836269402
753.8634594991636 8630.42123710521
754.8300772453586 8651.998780639804
755.7964519425768 8601.698304224696
756.762583664371 8728.654424146367
757.7284724842611 8695.715264960323
758.6941184757416 8631.952264566662
759.6595217122667 8673.692927231048
760.6246822672638 8689.312270227767
761.5896002141235 8566.251810719647
762.5542756262093 8703.798399980438
763.5187085768503 8668.95225733257
764.4828991393406 8593.60275427344
765.4468473869474 8638.067728924561
766.4105533929032 8565.858489106353
767.3740172304078 8458.401010895792
768.3372389726283 8684.467440383301
769.3002186926988 8464.726911843134
770.2629564637282 8403.686506630982
771.2254523587872 8428.694325910885
772.1877064509154 8322.937969892073
773.1497188131179 8317.624107884709
774.1114895183728 8160.611849604116
775.0730186396268 8173.146875444562
776.0343062497905 8161.242090883439
776.9953524217381 8115.170099859616
777.9561572283274 8083.133210934584
778.9167207423689 8093.014653658206
779.8770430366476 7981.067084238899
780.8371241839159 8000.47149884411
781.7969642568951 8034.1662363988125
782.7565633282757 8256.095423941677
783.7159214707099 8036.185760146695
784.6750387568281 8091.274558609407
785.6339152592227 8021.848953698912
786.5925510504512 8068.962215620848
787.5509462030477 8030.204896348199
788.5091007895098 8061.971641842744
789.4670148823006 8095.873416774282
790.4246885538596 8029.828401611207
791.3821218765861 8046.2478813047655
792.3393149228505 7974.157944772742
793.2962677649975 8097.715870180121
794.2529804753303 8176.380992763368
795.20945312613 8176.10943647891
796.1656857896378 8151.750885765931
797.1216785380675 8169.648523953323
798.0774314435985 8272.51867201097
799.0329445783846 8459.342402994163
799.9882180145414 8400.106929138805
800.9432518241574 8405.199548704823
801.89804607929 8545.552793167853
802.852600851962 8678.637475131714
803.8069162141637 8675.900354975602
804.760992237856 8799.783387935164
805.714828994971 8875.421361642362
806.6684265574077 8967.234673558738
807.6217849970271 8884.773161179904
808.574904385674 8815.809900556334
809.527784795142 8926.644354788894
810.4804262972102 9052.356839226475
811.4328289636178 8715.615343874899
812.3849928660748 8606.808503538778
813.3369180762638 8630.333650244025
814.2886046658241 8652.072189863266
815.2400527063783 8425.136161935523
816.1912622695108 8271.655045932908
817.1422334267718 8389.330008383065
818.0929662496856 8239.527674552006
819.0434608097457 7999.613948702654
819.9937171784059 7947.834621716928
820.9437354271013 7930.836739452272
821.8935156272255 7961.727356382764
822.8430578501484 7790.241473870813
823.7923621672016 7714.038309125877
824.7414286496896 7682.7652191542675
825.6902573688876 7753.352128802466
826.6388483960363 7673.207825457377
827.5872018023492 7593.941952751162
828.5353176590033 7647.4313153567255
829.4831960371503 7597.866820411766
830.4308370079016 7534.410342374322
831.3782406423525 7599.274094515864
832.3254070115545 7602.760020343985
833.2723361865319 7469.964962231466
834.2190282382799 7486.170945549314
835.1654832377644 7569.281880887362
836.1117012559116 7450.907585576485
837.0576823636256 7564.186966910625
838.003426631778 7448.659497964746
838.9489341312074 7401.845864791569
839.8942049327197 7547.68987035591
840.8392391070975 7569.275697542389
841.7840367250865 7567.743317316953
842.7285978573982 7438.802566205866
843.672922574724 7613.441176996343
844.6170109477152 7448.960989580371
845.560863046996 7574.17579134041
846.5044789431595 7516.180041144462
847.4478587067697 7535.90789901838
848.3910024083561 7667.383717938539
849.333910118421 7653.220693683297
850.2765819074339 7523.980445987176
851.2190178458332 7618.408791826723
852.161218004032 7670.6045019703115
853.1031824524016 7643.646708187567
854.0449112612987 7626.608821978707
854.9864045010327 7685.509272464716
855.9276622418947 7580.11080711844
856.8686845541379 7562.927958582256
857.8094715079915 7598.866884920494
858.7500231736467 7726.412650665286
859.690339621271 7611.889706158436
860.6304209209939 7665.217903400413
861.5702671429244 7532.3045650824015
862.5098783571284 7615.668920153577
863.4492546336569 7678.624473010808
864.3883960425155 7601.905512873343
865.3273026536863 7666.917451696465
866.2659745371238 7622.692801801645
867.2044117627465 7917.939555077722
868.1426144004472 7712.569613243046
869.0805825200823 7840.806737381003
870.0183161914847 7883.127076674915
870.9558154844526 8019.8077031582725
871.8930804687552 8026.533020096492
872.8301112141307 7944.592606507945
873.7669077902865 8064.11160078094
874.7034702669062 8233.072023556077
875.6397987136315 8121.798427913726
876.5758932000863 8207.091425768087
877.5117537958522 8343.27232277845
878.4473805704911 8323.11167527621
879.3827735935283 8302.110080313923
880.3179329344603 8433.681217450543
881.2528586627541 8407.622309771481
882.1875508478479 8510.507985651835
883.1220095591489 8365.792860641785
884.0562348660296 8288.037021619337
884.9902268378391 8511.439828723127
885.9239855438955 8333.963757124573
886.8575110534839 8239.331629208558
887.7908034358588 8243.8573846072
888.7238627602474 8234.091965993899
889.6566890958475 8249.52783410935
890.5892825118208 8015.550392391454
891.5216430773125 8120.050262851201
892.4537708614189 7949.8783532905
893.3856659332196 7878.7245271391785
894.3173283617652 7684.908065337816
895.2487582160684 7832.821240954085
896.179955565116 7688.181467331291
897.110920477864 7551.81995879152
898.0416530232451 7590.17681594753
898.9721532701478 7448.402293969394
899.9024212874428 7601.224225047085
900.8324571439662 7380.971200565924
901.7622609085302 7334.523023515295
902.6918326499072 7214.001334609646
903.6211724368477 7313.744890616154
904.5502803380696 7362.184735365292
905.4791564222614 7433.973630395392
906.4078007580792 7207.588296508499
907.3362134141571 7229.884440009977
908.2643944590909 7368.467812403246
909.1923439614493 7230.511972342259
910.1200619897754 7167.286529237144
911.0475486125779 7345.728448392665
911.9748038983344 7180.633006976507
912.9018279155007 7171.283908862567
913.8286207324982 6990.010531565937
914.7551824177117 7149.6144573571
915.6815130395116 7104.960374316701
916.6076126662283 7004.8711139947
917.533481366163 7052.76483795002
918.4591192075914 7146.202150483623
919.3845262587565 7186.343152563679
920.3097025878706 7094.105615966029
921.2346482631237 7145.641915415373
922.1593633526682 7050.588494237825
923.0838479246304 7203.9915629402
924.0081020471061 7239.566896472276
924.9321257881656 6942.7335195103315
925.8559192158464 7114.662784634818
926.7794823981512 7018.327474971224
927.7028154030686 6997.451186135741
928.6259182985414 6910.269430294809
929.5487911524906 7180.978226031603
930.4714340328119 7141.190138908974
931.3938470073608 6951.33392288451
932.3160301439748 6987.326459163104
933.2379835104548 7039.9219482325325
934.1597071745709 7114.533338615074
935.0812012040769 7048.6799956043515
936.002465666681 7037.451537967581
936.9235006300696 7048.451283875472
937.8443061619055 7028.5194262066925
938.7648823298077 6997.38559047999
939.6852292013809 7065.238010228646
940.6053468441951 7147.6956110406845
941.5252353257874 6868.861941795915
942.4448947136698 6997.528678600373
943.364325075323 6975.356569034369
944.2835264782043 7016.261997873955
945.2024989897309 6981.229471050775
946.1212426773054 7014.488295600388
947.0397576082851 7083.918639692049
947.9580438500125 7176.669483291026
948.8761014697939 7147.37332659096
949.7939305349064 7169.873833423042
950.7115311125999 7033.928778498815
951.6289032700952 7017.813626032145
952.5460470745875 7181.941516403625
953.4629625932339 7055.852943593605
954.3796498931715 7242.710494402866
955.2961090415029 7101.732331665893
956.2123401053068 7097.436031176156
957.1283431516276 7141.227075061923
958.0441182474842 7029.299323713143
958.9596654598663 7229.56797793711
959.8749848557309 7173.376452522956
960.7900765020167 7052.924812081525
961.7049404656209 7012.842262747504
962.6195768134185 7073.49682234349
963.5339856122537 7055.267155802656
964.4481669289453 7224.304231706439
965.3621208302793 7146.128609367735
966.2758473830145 7083.035088331152
967.1893466538822 7178.856303572083
968.1026187095813 7041.646823030131
969.0156636167867 7196.337810903334
969.9284814421426 7153.300312999827
970.8410722522622 7040.057552933946
971.753436113735 7042.358815479754
972.6655730931161 7075.73046335242
973.5774832569368 7237.607467624568
974.4891666716958 7076.686159871812
975.4006234038698 7043.196801960691
976.3118535198955 6997.4876564516435
977.2228570861935 7197.149278276396
978.1336341691494 7243.711384198456
979.0441848351202 7109.154703790383
979.9545091504333 7253.296822096648
980.864607181391 7261.848883154564
981.7744789942699 7321.03149738323
982.6841246553086 7242.882927908261
983.5935442307236 7334.240357684876
984.5027377867027 7395.483712770694
985.4117053894024 7327.168489250491
986.3204471049557 7218.938577061506
987.2289629994648 7407.425453844726
988.1372531390007 7482.9500946798635
989.0453175896091 7442.438217636355
989.9531564173067 7405.597659939626
990.860769688079 7434.066590165066
991.7681574678918 7579.421022313256
992.6753198226706 7658.8843956782
993.582256818323 7603.334362778757
994.4889685207218 7679.286618507796
995.3954549957143 7835.842629619163
996.301716309119 7910.385057850328
997.2077525267232 7823.168443296908
998.1135637142943 7759.258601036192
999.0191499375615 7927.334430769719
999.924511262232 7931.620560620404
1000.8296477539861 7938.115262034599
1001.7345594784656 7841.228262456001
1002.6392465012996 7784.857960047356
1003.5437088880753 7813.301895183633
1004.4479467043584 7749.730839477435
1005.3519600156869 7456.4117515948
1006.2557488875718 7740.3257818527545
1007.1593133854858 7633.266163971986
1008.0626535748888 7512.502244278878
1008.9657695212009 7491.817931723815
1009.8686612898182 7678.294721664334
1010.7713289461135 7633.2046335195
1011.6737725554212 7586.727166030006
1012.5759921830577 7481.752300487438
1013.4779878943027 7516.294224602374
1014.379759754418 7525.856698783655
1015.2813078286254 7441.746570611253
1016.18263218213 7257.340998559875
1017.0837328801026 7338.434188151968
1017.9846099876886 7530.810823699312
1018.8852635700023 7296.418729614896
1019.7856936921362 7124.942371969851
1020.6859004191447 7371.292230650304
1021.5858838160675 7201.627929487635
1022.4856439479063 7131.739652250918
1023.3851808796389 7055.596289635348
1024.2844946762143 7174.036562305674
1025.183585402554 7083.280113645585
1026.082453123554 6934.206923132368
1026.9810979040776 7032.693262118248
1027.8795198089647 6891.063757808387
1028.777718903024 7094.545572460776
1029.6756952510368 6896.946046304491
1030.5734489177648 6946.663440364717
1031.4709799679313 6983.36451145629
1032.3682884662358 7097.946697633624
1033.2653744773506 6838.462001294693
1034.1622380659192 6905.898545257356
1035.058879296559 6919.517332238014
1035.9552982338591 7025.874409543746
1036.8514949423825 6928.586337683725
1037.7474694866614 6994.855469855062
1038.6432219312028 7045.097153406887
1039.5387523404825 7131.625654386185
1040.4340607789582 7024.927365650634
1041.3291473110476 7035.709919826683
1042.2240120011465 7232.2693975024395
1043.1186549136273 7277.4224649821435
1044.0130761128294 7204.656040497139
1044.9072756630649 7308.751938631004
1045.8012536286205 7411.713863261347
1046.6950100737577 7339.406520313918
1047.588545062701 7427.312004351383
1048.481858659663 7392.808785363799
1049.3749509288118 7627.471530637884
1050.2678219343034 7403.286263183845
1051.1604717402515 7467.040348138187
1052.0529004107575 7279.656973974716
1052.9451080098825 7520.034000216137
1053.8370946016694 7488.761292710638
1054.7288602501267 7448.443980093941
1055.6204050192446 7382.079594296852
1056.511728972977 7562.513717914447
1057.402832175254 7491.30936237566
1058.2937146899785 7310.539960094214
1059.1843765810263 7296.5742424143145
1060.0748179122456 7508.457630483307
1060.9650387474576 7418.345419461553
1061.855039150456 7389.828725324354
1062.7448191850071 7508.080955611267
1063.6343789148505 7316.15865932967
1064.5237184037014 7445.436214900513
1065.412837715241 7289.608409711291
1066.3017369131267 7307.89066181471
1067.190416060992 7307.907603696984
1068.0788752224398 7169.920170366781
1068.9671144610438 7196.279139156461
1069.8551338403558 7265.174999667835
1070.7429334239023 7419.483204070108
1071.6305132751695 7174.242186186991
1072.517873457633 7290.833663936894
1073.4050140347335 7228.205386097745
1074.2919350698776 7238.91296736189
1075.1786366264623 7116.7083263981895
1076.0651187678395 7237.520298404505
1076.95138155735 6974.483176340164
1077.8374250582929 6984.433760482253
1078.7232493339507 7038.943558811417
1079.608854447577 6998.315678512629
1080.4942404623907 6955.542214371795
1081.3794074415982 7033.121898330425
1082.2643554483657 6939.735117056234
1083.149084545841 6940.5568726415495
1084.033594797138 6801.603631180931
1084.9178862653516 6871.377207894116
1085.8019590135427 7004.257678786955
1086.6858131047484 6704.7995678487205
1087.5694486019802 6904.237994370234
1088.4528655682225 6903.366208449799
1089.3360640664287 7081.367862931499
1090.2190441595321 6843.84890313542
1091.1018059104317 6911.354805411842
1091.98434938201 6919.884577338873
1092.866674637111 6964.65451600161
1093.748781738559 6840.961774283016
1094.6306707491512 6784.318901216949
1095.5123417316554 6856.877957297642
1096.3937947488157 6768.859851713724
1097.2750298633455 6793.394240728684
1098.156047137938 6800.677412853218
1099.0368466352556 6783.11850512152
1099.9174284179317 6907.833479084949
1100.7977925485757 6733.9244812447705
1101.6779390897755 6769.129077525805
1102.5578681040806 6771.835504897268
1103.4375796540226 6882.002060193734
1104.3170738021054 6775.443976759763
1105.1963506108077 6599.091574577108
1106.0754101425773 6710.734568906184
1106.9542524598382 6808.560229462237
1107.8328776249855 6690.315107603901
1108.7112857003904 6771.02567956082
1109.5894767483987 6731.5314754877345
1110.4674508313292 6901.307856892825
1111.3452080114657 6887.351994211247
1112.2227483510815 7048.296594797411
1113.1000719124077 7048.9764267229675
1113.9771787576592 7142.709196615142
1114.854068949022 7142.312808939232
1115.7307425486542 7312.422312302457
1116.6071996186893 7402.838804946092
1117.483440221229 7588.049689733278
1118.3594644183577 7388.234901013204
1119.235272272128 7605.23060619744
1120.1108638445658 7795.920605731818
1120.9862391976712 8121.717487111053
1121.8613983934229 8082.904090153172
1122.7363414937627 8094.236445858593
1123.6110685606182 8260.638217127507
1124.485579655884 8490.340416881674
1125.359874841426 8465.411918400097
1126.2339541790916 8542.30592053626
1127.1078177306936 8823.787465100673
1127.9814655580267 8608.76558261871
1128.854897722851 8731.273863789645
1129.7281142869106 8781.435128411431
1130.6011153119125 8761.132157053886
1131.473900859548 8944.274268368627
1132.3464709914697 8699.697430185122
1133.2188257693178 8658.259608242006
1134.0909652546961 8597.661981855577
1134.96288950919 8437.52982787524
1135.8345985943506 8564.732097146401
1136.7060925717087 8199.369132782771
1137.57737150277 8320.178324070996
1138.4484354490069 8162.402686139432
1139.3192844718778 8080.298909224208
1140.1899186327992 7789.265388659323
1141.060337993178 8004.79190691341
1141.930542614382 7683.556375078527
1142.8005325577597 7715.96543894397
1143.670307884635 7291.758219303813
1144.5398686563003 7520.335646824033
1145.409214934025 7440.434678903383
1146.2783467790541 7024.010351807716
1147.1472642526023 7080.955864910832
1148.0159674158622 7161.298149071625
1148.8844563300026 6914.921678096155
1149.7527310561618 6765.315855090106
1150.6207916554504 6676.782952337368
1151.4886381889592 6696.062535013395
1152.3562707177498 6767.892134450022
1153.2236893028585 6654.514383459286
1154.090894005296 6471.890443886028
1154.9578848860474 6491.735300028772
1155.8246620060709 6448.554422918164
1156.6912254262988 6332.152009078888
1157.5575752076438 6357.230553620053
1158.42371141098 6584.547587065051
1159.2896340971656 6442.342979144259
1160.1553433270346 6441.68681080331
1161.0208391613887 6380.390485375629
1161.8861216610057 6426.482194774963
1162.75119088664 6415.411988020543
1163.6160468990201 6207.306013883993
1164.4806897588442 6219.85152312426
1165.3451195267917 6425.7450599991935
1166.2093362635114 6454.3465341417295
1167.0733400296285 6272.403667693425
1167.9371308857444 6190.893430267629
1168.8007088924278 6237.509158134837
1169.6640741102328 6376.386257071523
1170.5272265996773 6178.94281658262
1171.390166421259 6080.008453758269
1172.252893635452 6324.873975167009
1173.1154083026995 6440.725465642967
1173.977710483421 6354.8772331914115
1174.8398002380145 6197.505969982938
1175.7016776268483 6332.732308079936
1176.563342710264 6351.646654837873
1177.4247955485826 6234.676433634313
1178.2860362020947 6419.549979027054
1179.147064731069 6320.962168423143
1180.0078811957483 6476.736723013885
1180.8684856563486 6422.267200473123
1181.7288781730604 6436.714054051913
1182.589058806052 6504.229248420351
1183.4490276154593 6718.893384958841
1184.3087846614017 6597.6451343916515
1185.1683300039676 6512.961871503512
1186.027663703222 6849.531042463641
1186.8867858192025 6665.871348813261
1187.7456964119228 6713.122719553078
1188.6043955413716 6803.543917026991
1189.4628832675116 6999.880886546767
1190.3211596502842 7020.324964143986
1191.179224749596 7115.112244676739
1192.0370786253388 7062.397980081829
1192.8947213373758 7171.026340082921
1193.7521529455407 7361.763991805376
1194.6093735096438 7177.638883950785
1195.466383089477 7210.926399474802
1196.3231817447977 7267.530394203146
1197.1797695353398 7469.727842574104
1198.0361465208189 7252.672738992036
1198.8923127609214 7255.903501132799
1199.7482683153048 7428.454926053292
1200.6040132436028 7446.466304064992
1201.459547605431 7340.540252166493
1202.3148714603722 7306.356083178417
1203.1699848679855 7296.190390308259
1204.0248878878065 7385.59885391746
1204.8795805793507 7057.186018901391
1205.7340630020935 7245.624169681377
1206.5883352155033 7307.862517732839
1207.4423972790064 7230.107426281027
1208.2962492520237 7107.8776446295
1209.1498911939307 7047.96144181812
1210.0033231640937 7156.09753015284
1210.8565452218427 7051.08443572758
1211.7095574264913 6894.743701167036
1212.5623598373222 6833.398954371774
1213.4149525135963 6707.41444772008
1214.2673355145507 6937.130415582187
1215.1195088993936 6769.445092403583
1215.9714727273113 6718.39560418283
1216.8232270574663 6874.58491319443
1217.6747719489904 6502.355292719259
1218.5261074609934 6592.262116901837
1219.3772336525653 6710.108044573542
1220.2281505827668 6649.169885051082
1221.0788583106296 6696.20268234482
1221.9293568951707 6473.326833694716
1222.7796463953746 6473.895540780717
1223.629726870202 6682.564292261183
1224.4795983785934 6746.610906311665
1225.3292609794553 6681.150473403426
1226.1787147316809 6549.802057117571
1227.0279596941327 6706.762645761861
1227.8769959256424 6742.9434249333235
1228.7258234850306 6632.0061842090145
1229.5744424310833 6564.9960359800825
1230.422852822563 6682.123947709969
1231.2710547182105 6841.9118420169225
1232.119048176739 6662.504323714076
1232.9668332568417 6487.37630870207
1233.8144100171812 6730.627839887216
1234.6617785163999 6590.1429765495395
1235.508938813111 6404.372285183614
1236.3558909659114 6473.330492289349
1237.2026350333617 6567.306196532016
1238.049171074008 6698.665447115489
1238.8954991463652 6462.573114083584
1239.741619308932 6479.409680109716
1240.587531620169 6652.477880564057
1241.4332361385277 6510.607234324854
1242.2787329224248 6361.124596276119
1243.1240220302534 6332.7297747810735
1243.9691035203869 6318.677508589402
1244.813977451171 6468.494917866554
1245.6586438809263 6400.041531421813
1246.5031028679496 6072.472592401446
1247.3473544705157 6372.125443184832
1248.1913987468706 6333.011510803154
1249.0352357552383 6040.607555138511
1249.8788655538228 6191.344894762195
1250.7222882007918 6320.060289025805
1251.565503754302 6301.524564097141
1252.4085122724755 6184.294418856584
1253.2513138134182 6310.771568809893
1254.0939084352049 6231.680395025227
1254.9362961958905 6344.663855046884
1255.7784771535007 6237.273914890238
1256.6204513660432 6316.676878827084
1257.4622188915 6469.153709242342
1258.3037797878242 6207.675132840281
1259.1451341129468 6236.441821049392
1259.9862819247755 6245.428426126501
1260.8272232811978 6272.397961557123
1261.6679582400666 6507.886997843481
1262.5084868592203 6068.289943227848
1263.34880919647 6100.880293447275
1264.1889253095997 6248.908587485583
1265.0288352563712 6422.022385163522
1265.8685390945266 6237.55518703435
1266.7080368817751 6318.014009011696
1267.5473286758115 6381.802025567748
1268.386414534294 6399.330206250606
1269.2252945148703 6006.602950456455
1270.0639686751547 6126.604610584762
1270.9024370727402 6214.524892810781
1271.7406997651997 6032.525126605086
1272.5787568100714 6066.215905879876
1273.4166082648808 6086.098534981744
1274.2542541871244 6112.672217702684
1275.091694634275 6297.103192708829
1275.9289296637817 6091.36240298153
1276.7659593330663 6146.949592670538
1277.6027836995308 6071.250642984285
1278.4394028205552 6142.18159999002
1279.2758167534867 6058.491822021704
1280.112025555658 6134.007957447995
1280.9480292843746 6102.325669824757
1281.7838279969128 5948.121161642402
1282.6194217505326 6014.836395586894
1283.4548106024686 5859.283647172661
1284.289994609926 5898.309351986005
1285.1249738300921 6089.588021905054
1285.959748320127 5931.4254994201465
1286.7943181371702 6039.280414435481
1287.6286833383328 5979.720092381311
1288.4628439807038 6082.085889178951
1289.2968001213521 5888.728396671273
1290.1305518173194 5954.848444691381
1290.9640991256183 6037.698371843826
1291.7974421032523 5853.314953610774
1292.630580807183 5929.650028985074
1293.463515294361 6127.647125611407
1294.29624562171 6178.143987079889
1295.12877184613 5920.480873047276
1295.961094024493 5990.106459045395
1296.79321221365 6148.78348348397
1297.6251264704333 6181.1479050970365
1298.4568368516466 6524.423182062299
1299.2883434140658 6300.559519480285
1300.1196462144526 6122.916330590646
1300.9507453095375 6262.181986930079
1301.7816407560313 6294.435124569185
1302.6123326106172 6261.6337600839615
1303.4428209299622 6043.106571793022
1304.2731057707024 6405.647612177056
1305.1031871894502 6103.500449302272
1305.933065242798 6378.316822328889
1306.7627399873181 6302.264790108307
1307.5922114795467 6656.580466627049
1308.4214797760123 6735.07299346876
1309.2505449332057 6385.657029122984
1310.0794070076026 6502.821679297574
1310.9080660556538 6638.565505557179
1311.736522133786 6624.16580156024
1312.5647752983987 6461.30090416631
1313.3928256058734 6391.616899570808
1314.2206731125661 6623.7614996993825
1315.048317874809 6454.744682607104
1315.8757599489109 6511.330930338694
1316.7029993911547 6624.007309348582
1317.5300362578055 6805.050059192268
1318.356870605101 6416.594495591855
1319.183502489257 6499.350991169897
1320.0099319664623 6672.929858156787
1320.836159092889 6651.010343276835
1321.66218392468 6780.274938545881
1322.4880065179532 6608.676498191724
1323.3136269288134 6554.739859735772
1324.1390452133292 6765.61554692282
1324.9642614275563 6689.074234582156
1325.7892756275214 6744.759629128936
1326.6140878692295 6527.819029258094
1327.4386982086617 7050.915104046442
1328.2631067017755 6708.84538764526
1329.0873134045069 6733.749316987485
1329.911318372764 6657.086181029857
1330.735121662441 6632.158586683203
1331.558723329399 6625.32526143309
1332.3821234294774 6689.443190422491
1333.2053220185007 6631.4732834622
1334.0283191522612 6638.506341903545
1334.851114886529 6708.187111119983
1335.6737092770582 6586.9870507297
1336.4961023795695 6596.304800657965
1337.3182942497697 6602.228483348357
1338.1402849433325 6572.319881945585
1338.962074515921 6530.71859467558
1339.7836630231632 6308.312427439083
1340.6050505206676 6863.448099129868
1341.426237064028 6655.587395678513
1342.2472227088037 6792.489251593693
1343.0680075105338 6387.315653886262
1343.888591524741 6374.691831943434
1344.7089748069138 6718.252116512621
1345.5291574125276 6484.57777070167
1346.3491393970307 6203.336055634154
1347.168920815846 6516.369916660461
1347.9885017243778 6465.75835781066
1348.8078821780036 6287.657775235743
1349.6270622320844 6405.152892712703
1350.4460419419447 6162.548894509697
1351.2648213629054 6614.388778181895
1352.0834005502438 6120.266480542825
1352.90177955923 6272.833403576649
1353.7199584451064 6736.319929357835
1354.5379372630887 6352.784822393437
1355.355716068374 6299.270126040537
1356.1732949161305 6235.418534590508
1356.9906738615155 6256.508302806445
1357.8078529596478 6323.9796186045405
1358.6248322656375 6402.804146921515
1359.441611834567 6233.548711506764
1360.2581917214866 6492.532194107929
1361.0745719814367 6275.332885697224
1361.890752669433 6198.856677267435
1362.7067338404577 6125.820337484705
1363.5225155494845 6397.114566940496
1364.3380978514506 6499.683785570364
1365.1534808012839 6114.769952218534
1365.9686644538815 6040.157698259789
1366.783648864117 6388.421648421339
1367.5984340868417 6404.213994016152
1368.413020176893 6369.968809603588
1369.2274071890715 6126.279400004667
1370.0415951781652 6421.713534529933
1370.8555841989346 6150.07523506681
1371.6693743061223 6241.127649821743
1372.48296555444 6130.363806342624
1373.2963579985844 6437.368147003721
1374.1095516932255 6306.682229860808
1374.9225466930166 6058.555211132267
1375.7353430525782 6429.494468489904
1376.5479408265164 6196.218396660231
1377.36034006941 6416.657385812296
1378.1725408358216 6538.018841388068
1378.9845431802805 6255.87389600622
1379.796347157304 6603.609773516022
1380.6079528213813 6608.087269770968
1381.4193602269788 6310.463482644896
1382.230569428546 6378.515956437409
1383.0415804805016 6755.532169017613
1383.852393437246 6693.508336390983
1384.6630083531563 6585.784677944602
1385.4734252825892 6505.278346928577
1386.2836442798798 6563.8279507614325
1387.0936653993322 6603.504494643244
1387.9034886952395 6427.861401701419
1388.713114221864 6733.191830835433
1389.5225420334482 6709.601737362534
1390.331772184214 6381.382042070551
1391.1408047283585 6306.159443028729
1391.9496397200564 6335.399048967362
1392.758277213461 6665.145312487311
1393.5667172627054 6633.360167090495
1394.3749599218918 6354.614824030119
1395.1830052451114 6074.9949663736315
1395.9908532864265 6233.936357743411
1396.7985040998774 6466.455412639007
1397.6059577394808 6126.383694432437
1398.4132142592352 6180.527508413776
1399.2202737131156 6044.331536364227
1400.027136155073 6137.3361098535315
1400.8338016390353 6021.18072102262
1401.6402702189134 5984.580418010491
1402.446541948586 5993.587980482834
1403.2526168819204 5795.343228534269
1404.058495072757 5949.42036223033
1404.8641765749107 5819.744101140101
1405.6696614421799 5919.768792551155
1406.4749497283356 6163.323637863745
1407.280041487129 5818.1042844845315
1408.084936772295 5443.086963590556
1408.8896356375335 5915.435611738472
1409.6941381365323 5761.106587901755
1410.498444322955 5462.4986308987845
1411.3025542504402 5566.785514888123
1412.106467972606 5695.536649500547
1412.9101855430508 5710.466204291735
1413.7137070153458 5400.128529327908
1414.5170324430437 5374.188784288763
1415.320161879672 5523.259713729896
1416.1230953787435 5789.8838792906645
1416.925832993742 5392.431071263859
1417.7283747781275 5192.294273929403
1418.5307207853439 5498.533206279558
1419.3328710688093 5480.489982578706
1420.134825681922 5192.852560360326
1420.9365846780584 5235.768537127686
1421.7381481105713 5520.90583525588
1422.539516032788 5372.712541874001
1423.3406884980232 5143.87186227165
1424.1416655595604 5197.408932438676
1424.942447270665 5359.767575830254
1425.7430336845828 5412.579092815474
1426.5434248545298 5112.524649950463
1427.3436208337116 5299.109325274436
1428.143621675301 5381.361404281113
1428.9434274324558 5508.541667637643
1429.7430381583108 5141.4369179989935
1430.5424539059713 5223.762385215821
1431.3416747285337 5723.822687709142
1432.1407006790632 5341.863058861475
1432.9395318106053 5287.375383277201
1433.7381681761835 5024.141779594991
1434.5366098288014 5215.61599166919
1435.3348568214424 5357.038249975737
1436.1329092070573 5179.0989678936185
1436.9307670385879 5169.931548473165
1437.7284303689503 5318.200968628678
1438.5258992510335 5433.922771235959
1439.3231737377118 5262.256739893421
1440.1202538818306 5174.532849946585
1440.9171397362225 5246.685443250474
1441.7138313536925 5164.272165206003
1442.5103287870243 5110.857154818775
1443.3066320889775 5056.186616229872
1444.1027413122956 5394.441528927907
1444.8986565096966 5096.028112268226
1445.694377733882 5081.353768500412
1446.4899050375207 5040.025511440438
1447.2852384732687 4932.3582754074
1448.0803780937622 5304.905762162332
1448.8753239516063 5029.518033010691
1449.6700760993954 4856.433060287867
1450.464634589689 4884.985328563174
1451.2589994750397 5291.981466832767
1452.0531708079689 4842.164376494668
1452.8471486409799 4731.455129768779
1453.6409330265524 5163.847646651615
1454.4345240171442 4889.004178560749
1455.2279216651987 4949.108873544997
1456.0211260231263 4927.740432461048
1456.8141371433194 5095.162994616952
1457.6069550781594 5082.680444992949
1458.3995798799897 4731.594715992732
1459.1920116011424 4910.43737940239
1459.98425029393 4766.64021064064
1460.7762960106338 4752.176971122968
1461.5681488035225 4777.163287722522
1462.3598087248392 4834.082158031761
1463.1512758268036 4970.199906788164
1463.942550161617 4825.508250875644
1464.7336317814625 4601.859918833417
1465.524520738496 4783.519392184672
1466.3152170848552 4644.815235018795
1467.1057208726506 4860.042619296875
1467.8960321539817 4608.244511855448
1468.6861509809169 4500.489726490581
1469.4760774055085 4515.924186273985
1470.265811479785 4822.251414034284
1471.055353255755 4459.405535387252
1471.844702785409 4504.167413016558
1472.6338601207044 4483.271870431317
1473.4228253135934 5169.026546619736
1474.2115984159936 4535.884648634632
1475.0001794798063 4253.070483430578
1475.7885685569145 4548.6540725820905
1476.576765699172 4605.433508344953
1477.3647709584238 4569.366718995483
1478.1525843864802 4763.538951199003
1478.9402060351367 4744.96680046409
1479.7276359561693 4756.183686814662
1480.514874201328 4436.609097452069
1481.3019208223468 4365.090413937872
1482.0887758709323 4331.790260651219
1482.8754393987747 4657.220386246927
1483.6619114575406 4299.929653162594
1484.4481920988783 4684.398836032076
1485.2342813744108 4762.144683830345
1486.0201793357446 4836.568466149911
1486.8058860344572 4469.629991828906
1487.591401522117 4585.755449464896
1488.3767258502594 4556.714924862555
1489.1618590704056 4559.164074620871
1489.9468012340494 4296.585633996376
1490.7315523926754 4686.609905403132
1491.5161125977356 4784.299404819862
1492.3004819006637 4633.107120659961
1493.084660352877 4544.783362955752
1493.8686480057622 4564.786359523056
1494.6524449106964 4899.135198791633
1495.4360511190262 4898.381416834303
1496.219466682087 4587.664176372464
1497.0026916511779 4589.708050725736
1497.7857260775945 4588.1638768961175
1498.5685700125996 4656.6031855460915
1499.3512235074395 4513.230285234084
1500.133686613337 4429.0209205242
1500.9159593814966 4503.616752658087
1501.698041863101 4985.6348511989045
1502.4799341093094 4330.107835908317
1503.2616361712662 4373.515673529678
1504.043148100087 4758.658851973833
1504.8244699468742 4760.332651796973
1505.6056017626997 4393.8268651092185
1506.3865435986281 4360.157768931315
1507.1672955056893 4684.372835917289
1507.9478575348967 4439.856079029038
1508.7282297372512 4625.277643233994
1509.5084121637192 4519.232994217937
1510.2884048652577 4473.899228257878
1511.0682078927948 4501.414757329585
1511.8478212972423 4474.488545512328
1512.6272451294917 4383.862173040941
1513.4064794404076 4573.918920253715
1514.1855242808433 4487.256485977977
1514.9643797016215 4498.162931392418
1515.743045753552 4645.866434166883
1516.5215224874191 4571.083754713611
1517.2998099539836 4203.645857975231
1518.077908203999 4410.493314960545
1518.8558172881785 4449.70941303147
1519.633537257234 4636.87019296005
1520.4110681618404 4477.309686044442
1521.1884100526604 4607.802263025319
1521.9655629803365 4537.491320256488
1522.7425269954856 4733.1683328692125
1523.5193021487103 4784.004747750227
1524.2958884905856 4400.454093159445
1525.0722860716687 4487.720248525924
1525.848494942502 4517.978571469715
1526.624515153595 4503.989751614851
1527.4003467554485 4582.100129086177
1528.175989798534 4687.34269643012
1528.9514443333064 4508.43137897763
1529.726710410203 4861.176552135408
1530.5017880796331 4439.916431086647
1531.276677391992 4580.260873920424
1532.0513783976457 4858.879003175195
1532.825891146953 4584.6538679880105
1533.6002156902414 4738.015435294984
1534.3743520778207 4583.759824171031
1535.1483003599806 4643.905448077094
1535.9220605869923 4558.849137016977
1536.6956328091019 4725.857314944506
1537.4690170765407 4667.861215249765
1538.242213439511 4804.741191299435
1539.015221948208 4795.61464740016
1539.78804265279 4553.70724632236
1540.560675603405 4453.724270901572
1541.3331208501804 4981.690750191967
1542.1053784432224 4944.95736822674
1542.8774484326168 4833.150338079281
1543.649330868422 4782.088628048302
1544.4210258006842 4941.10548344497
1545.1925332794308 4765.272620656794
1545.9638533546604 4787.472872721695
1546.7349860763552 4611.2651398762955
1547.5059314944829 5125.860759611687
1548.27668965898 4862.609454445008
1549.0472606197673 4960.700398077094
1549.817644426752 4742.134677028686
1550.5878411298072 5010.4780587951445
1551.3578507787988 4898.867923142569
1552.1276734235635 4809.020552282163
1552.8973091139233 4904.160623340994
1553.6667578996767 4991.9221050481865
1554.436019830604 4999.691914688281
1555.20509495646 4947.999152703637
1555.9739833269869 4799.281299585915
1556.7426849919011 4717.70604627697
1557.511200000903 5245.926149908481
1558.2795284036674 5022.587971543182
1559.0476702498509 4895.111098768997
1559.8156255890954 5014.824205497726
1560.5833944710157 5200.865828504762
1561.3509769452048 4948.631734750112
1562.1183730612447 4891.587646444883
1562.8855828686865 4888.960969202938
1563.6526064170703 5345.862744974862
1564.4194437559127 5240.471490012991
1565.1860949347047 4803.176318264685
1565.9525600029283 5307.261287857917
1566.7188390100328 5191.949167427288
1567.4849320054564 4899.471203710726
1568.250839038612 4907.9203998135445
1569.0165601588997 4917.3533524927925
1569.7820954156887 5119.040874646577
1570.5474448583373 4910.310369724046
1571.31260853618 4838.010858058828
1572.0775864985299 4808.013156795963
1572.8423787946813 5020.081592548906
1573.6069854739108 4731.505779186757
1574.371406585471 4942.523604606564
1575.1356421785986 5039.527215210264
1575.899692302506 4926.6587148293265
1576.6635570063845 4950.5539072655165
1577.4272363394157 4742.439038569832
1578.190730350747 4893.34439856608
1578.9540390895163 4834.970928885943
1579.7171626048384 4581.857967411512
1580.480100945806 4656.498955626216
1581.2428541614918 4805.082725276569
1582.0054223009538 4845.0268584493115
1582.767805413223 4928.817166645018
1583.5300035473156 4848.829872248989
1584.292016752228 5023.980922334269
1585.0538450769309 5054.4937100963225
1585.8154885703807 4694.1223915822575
1586.5769472815136 4654.292881209158
1587.3382212592405 4884.534526181053
1588.099310552463 4887.591948182978
1588.8602152100484 4667.612636253908
1589.6209352808564 4981.919618387883
1590.3814708137234 4936.583379983054
1591.14182185746 4798.460883426741
1591.9019884608679 4804.221896909052
1592.6619706727215 4639.420752326075
1593.4217685417734 4798.506249204196
1594.1813821167616 5101.446459413731
1594.9408114464022 4551.802380894342
1595.7000565793933 4839.717353656493
1596.459117564409 4907.407890983148
1597.2179944501113 4644.805437225533
1597.9766872851324 4807.221425292884
1598.735196118092 4893.299452024294
1599.4935209975883 4912.219886822959
1600.2516619721973 4990.436733051597
1601.0096190904787 4735.343158262656
1601.7673924009723 4874.289454836717
1602.524981952196 4808.118220135655
1603.2823877926476 4690.464902278113
1604.0396099708087 4736.110404298981
1604.7966485351371 4668.324437800038
1605.5535035340745 4726.853182429747
1606.3101750160404 4919.331841370889
1607.0666630294363 4760.8755542242525
1607.822967622642 4512.617134382384
1608.5790888440224 4785.772437189549
1609.3350267419137 4935.335519726651
1610.0907813646445 4778.438322044663
1610.8463527605145 4812.4730173071575
1611.601740977805 4913.236286522309
1612.356946064785 4676.458542619288
1613.1119680696902 4512.514554398816
1613.8668070407512 4663.397354137315
1614.6214630261748 4674.384276278075
1615.375936074137 4808.088723643345
1616.1302262328118 4738.609468670718
1616.8843335503425 4709.200706094191
1617.638258074854 4582.305619956308
1618.391999854457 4592.163097285882
1619.1455589372363 4935.757855390487
1619.8989353712623 4796.91257425919
1620.65212920458 4340.640196789949
1621.4051404852235 4632.703806197664
1622.1579692611976 4682.281123884803
1622.9106155804966 4470.682368341086
1623.663079491087 4561.084776168861
1624.4153610409248 4769.979822645649
1625.1674602779385 4562.9780219702825
1625.9193772500403 4431.042973059838
1626.6711120051277 4925.600589072638
1627.4226645910676 4618.71882805726
1628.174035055721 4442.938314865949
1628.9252234469168 4646.817937049042
1629.676229812474 4553.586079107119
1630.4270542001905 5038.421058375331
1631.1776966578382 4741.077265510061
1631.9281572331747 4556.4616842844425
1632.678435973945 4636.3812903506205
1633.4285329278573 4644.508906489294
1634.1784481426203 4492.764577500313
1634.9281816659113 4601.760096921118
1635.677733545388 4870.444229978623
1636.4271038286934 4493.287701443953
1637.176292563452 4715.264015214116
1637.9252997972635 4687.660440375102
1638.674125577716 4857.313034546901
1639.4227699523672 5151.552243101689
1640.171232968767 4417.830059534205
1640.9195146744423 4812.7411523073415
1641.6676151168977 4890.389031988872
1642.4155343436178 4846.9274310798455
1643.1632724020765 4827.0387876767145
1643.9108293397167 4792.817450811958
1644.658205203974 4762.828546496998
1645.4054000422566 5310.691427595231
1646.1524139019566 4875.142355709163
1646.8992468304423 4782.549773721741
1647.6458988750728 4761.590062908051
1648.3923700831765 4855.338502088344
1649.1386605020743 4881.052369266555
1649.8847701790564 5003.25585696117
1650.6306991614038 4898.520331859547
1651.3764474963682 5011.423196752684
1652.1220152311944 4724.526068903415
1652.867402413096 4880.463388924749
1653.6126090892776 4800.951515249905
1654.3576353069184 5101.358879210413
1655.1024811131829 4940.819994801308
1655.8471465552066 4874.094867140121
1656.5916316801213 5056.886918838112
1657.3359365350298 4907.005993259296
1658.0800611670165 4895.400526971769
1658.824005623148 4830.972737084177
1659.5677699504722 4611.20297278539
1660.3113541960192 4946.919863302906
1661.054758406799 4718.458072553871
1661.7979826297997 4458.344020847603
1662.5410269119966 4554.935941489744
1663.283891300338 5025.04600853498
1664.0265758417645 4578.799314835461
1664.7690805831826 4600.974307488576
1665.5114055714948 4784.854101632021
1666.2535508535748 4919.938784860761
1666.9955164762814 4315.22716176258
1667.7373024864555 4393.38095828426
1668.478908930916 4620.335303542436
1669.220335856462 4268.499855624114
1669.9615833098778 4432.607743348306
1670.7026513379296 4168.747533246079
1671.44353998736 4304.469732238122
1672.1842493048916 4352.964980995899
1672.9247793372379 4153.855215801615
1673.6651301310812 4277.153570043664
1674.4053017330934 4263.287979045618
1675.1452941899242 4369.019217131563
1675.885107548207 3874.284786381777
1676.6247418545518 3974.95770356602
1677.3641971555535 4035.5668366129075
1678.1034734977893 4163.4667438925635
1678.8425709278108 4095.981505912236
1679.5814894921605 4232.880846985718
1680.320229237359 4090.6967758347755
1681.0587902098978 4318.696806103571
1681.7971724562685 3996.727293008588
1682.5353760229264 4073.423001872551
1683.2734009563173 4008.164002193742
1684.0112473028657 3854.096565821873
1684.7489151089794 4413.113983837766
1685.4864044210462 4028.874980235031
1686.2237152854377 3714.411007117659
1686.960847748498 3994.3229048759335
1687.6978018565642 3752.162023911488
1688.434577655944 3672.816660837592
1689.1711751929379 3719.6630139589033
1689.9075945138156 3832.72012358126
1690.6438356648396 3632.0639045712246
1691.3798986922448 3422.9490795472293
1692.1157836422499 3627.4900303226327
1692.851490561059 3478.81114579905
1693.587019494853 3636.536895287941
1694.3223704897991 3337.57036662158
1695.0575435920364 3253.3316477453104
1695.792538847696 3849.409772914183
1696.527356302886 3372.744542985968
1697.2619960036936 3297.59333339941
1697.9964579961907 3384.7597460645966
1698.730742326432 3048.457693567778
1699.4648490404488 3083.019298703574
1700.1987781842563 3229.015364445596
1700.9325298038548 3439.006852495523
1701.6661039452174 3496.7829696394533
1702.3995006543082 3304.528440495372
1703.1327199770658 3419.8124032719343
1703.865761959416 3168.7645740222097
1704.598626647261 3510.9335452968458
1705.3313140864866 3081.819571587086
1706.0638243229587 3261.254630632719
1706.7961574025303 3275.181891156889
1707.528313371029 3132.6691397808554
1708.260292274268 2921.84900494285
1708.9920941580403 3153.202559873907
1709.7237190681226 3157.614700761375
1710.4551670502697 3132.953200166779
1711.18643815022 2697.8888022195606
1711.9175324136959 3287.6596230440314
1712.6484498863938 2987.119735115666
1713.379190614005 2806.5425276551887
1714.109754642188 3203.4378295030156
1714.8401420165883 2991.2651218418696
1715.570352782839 3185.6568713594943
1716.3003869865497 3105.1664148630102
1717.0302446733076 2895.7214431982948
1717.7599258886876 2963.9494964731957
1718.4894306782444 3305.35103231232
1719.2187590875183 2839.181872993431
1719.9479111620203 3157.7885827847795
1720.6768869472544 2899.3717602653132
1721.4056864887025 3238.80322948232
1722.1343098318284 3210.8797917363217
1722.8627570220742 2927.8977471704247
1723.591028104871 2776.5204759241833
1724.3191231256242 2756.284378382185
1725.0470421297232 2896.016483296211
1725.7747851625427 3007.1532979554427
1726.5023522694337 2990.949761483531
1727.2297434957363 2907.466919523722
1727.9569588867635 2628.5454340844753
1728.6839984878152 3031.7788456458193
1729.4108623441734 2496.983400362737
1730.1375505011038 2923.6316728490874
1730.8640630038426 2835.977946815236
1731.5903998976264 2671.44540978203
1732.316561227657 2944.50313416738
1733.0425470391274 2743.9956328745093
1733.7683573772065 2822.406070790078
1734.4939922870508 2808.339342168124
1735.2194518137949 2777.4222014680504
1735.9447360025606 2931.3214577792946
1736.669844898439 2781.1879235405495
1737.3947785465189 2757.9594581476094
1738.1195369918605 2493.8768938108506
1738.8441202795093 2722.1282066450217
1739.5685284544943 2737.1161548606256
1740.292761561821 2725.930763693995
1741.0168196464838 2956.6125894377415
1741.7407027534518 2671.0135161025582
1742.464410927687 2881.19504505153
1743.187944214118 2663.581463487695
1743.9113026576688 2591.703705459699
1744.634486303241 2804.9586377418163
1745.3574951957125 2719.601643147943
1746.0803293799509 2806.689105761253
1746.8029889008048 2647.552463644596
1747.5254738031017 2974.8228146428346
1748.2477841316504 2499.9635478326168
1748.969919931249 2679.4325949367817
1749.6918812466665 2578.469239187702
1750.4136681226646 2921.7514531899014
1751.1352806039777 2764.2964795446546
1751.856718735331 2484.0073954732243
1752.5779825614281 2553.5163438877407
1753.2990721269507 2670.702832259963
1754.0199874765676 2921.3066678143423
1754.7407286549314 2524.770074647077
1755.4612957066693 2636.700307762135
1756.1816886763954 2671.307987069496
1756.9019076087097 2840.1185915093006
1757.6219525481865 2780.4552927428995
1758.3418235393856 2831.5296022793477
1759.061520626854 2781.380125624575
1759.7810438551096 2861.8422139928093
1760.5003932686614 2552.712512261873
1761.2195689119999 2964.8098043147697
1761.938570829594 2624.165639229246
1762.657399065898 2603.624231148612
1763.376053665348 2551.0301442340333
1764.0945346723602 2477.346061023277
1764.812842131334 2856.090356647408
1765.5309760866512 2556.1536705160706
1766.2489365826787 2482.807198722536
1766.9667236637597 2669.754485595218
1767.684337374223 2342.3616981101886
1768.401777758383 2264.1693150379665
1769.1190448605284 2435.1496888022334
1769.836138724937 2487.7573289523166
1770.5530593958665 2630.947009794601
1771.2698069175603 2929.2838134921976
1771.9863813342326 2632.904934861402
1772.702782690094 2517.96232610651
1773.4190110293293 2729.1766164971273
1774.1350663961111 2807.425259120092
1774.8509488345844 2472.256128231139
1775.5666583888924 2613.064880026072
1776.2821951031437 2828.2571129233083
1776.9975590214362 2591.910627192584
1777.7127501878585 2977.793172596861
1778.4277686464684 2629.24993354148
1779.1426144413108 2886.1733681722794
1779.8572876164162 2745.877782434307
1780.571788215797 2583.8291939965266
1781.2861162834415 2606.4206928638764
1782.0002718633277 2605.797741589333
1782.7142549994132 2518.2023227171912
1783.4280657356376 2618.9376167431187
1784.141704115922 2419.616054689782
1784.855170184177 2566.1279548459797
1785.5684639842839 2673.9211370625944
1786.2815855601148 2401.7519932925798
1786.9945349555237 2571.7593202339767
1787.707312214343 2505.6707988135286
1788.4199173803918 2753.264537131221
1789.132350497468 2499.4454025623922
1789.8446116093583 2410.187801631649
1790.556700759822 2561.5056744340172
1791.2686179926077 2216.905425012128
1791.9803633514493 2474.3843711266272
1792.6919368800554 2374.3984713433692
1793.4033386221236 2650.511774117425
1794.1145686213295 2618.221241883795
1794.8256269213307 3000.62492724646
1795.536513565774 2665.516170863106
1796.247228598284 2305.0989957829897
1796.9577720624693 2419.1130719154085
1797.6681440019165 2407.627646815379
1798.3783444602013 2525.9839597440323
1799.0883734808776 2604.1295880038174
1799.7982311074884 2642.7266105635435
1800.5079173835475 2476.725700934608
1801.2174323525633 2655.2572320614263
1801.9267760580187 2538.250749215515
1802.635948543386 2556.49037377052
1803.3449498521113 2540.762802378084
1804.0537800276325 2513.377223453129
1804.7624391133668 2539.766149202676
1805.47092715271 2343.3540815617307
1806.1792441890484 2399.5966735388365
1806.8873902657433 2614.4282482521276
1807.5953654261448 2410.3884848474727
1808.3031697135812 2266.7386412903334
1809.0108031713662 2452.9251271309745
1809.71826584279 2530.3362416825817
1810.425557771141 2371.33250849261
1811.1326789996747 2434.407959733382
1811.839629571632 2497.4229714882763
1812.5464095302468 2500.3322727632785
1813.2530189187182 2575.7140689685607
1813.959457780249 2419.9061779740605
1814.6657261580076 2618.7867850191133
1815.371824095153 2455.3326262069177
1816.0777516348262 2619.36815719043
1816.78350882015 2281.9984747279645
1817.4890956942272 2340.0349208402868
1818.1945123001533 2465.160567065417
1818.8997586809928 2330.041244870408
1819.6048348798067 2465.406981646768
1820.3097409396287 2348.542859045193
1821.0144769034796 2804.3318180574042
1821.7190428143622 2542.123366034596
1822.423438715261 2758.8737850096873
1823.1276646491478 2427.2747189221786
1823.8317206589727 2533.8201891635736
1824.5356067876692 2381.5459310411143
1825.2393230781581 2457.7262331889806
1825.942869573335 2106.054319135735
1826.646246316086 2309.1287473692346
1827.3494533492758 2445.0349587116334
1828.052490715756 2419.547323087537
1828.7553584583547 2476.5590166377146
1829.458056619891 2519.3667168202237
1830.1605852431585 2271.000338217244
1830.8629443709433 2207.8420318294106
1831.5651340460063 2408.4633742874007
1832.2671543110919 2533.5326968298323
1832.9690052089318 2448.0281240456216
1833.6706867822395 2287.4990827232923
1834.3721990737104 2642.9893070636667
1835.0735421260233 2490.535531622362
1835.774715981841 2573.448288306644
1836.4757206838058 2338.5859262344575
1837.1765562745459 2103.70327093688
1837.8772227966747 2150.0035082097565
1838.5777202927839 2424.5208764887243
1839.2780488054523 2387.514570382724
1839.9782083772352 2241.125282806869
1840.6781990506806 2789.9360718300477
1841.378020868313 2425.9775051993092
1842.0776738726418 2414.885879366609
1842.777158106157 2313.9397423576943
1843.4764736113375 2240.2020163111792
1844.1756204306403 2503.685175427995
1844.8745986065078 2516.981726749956
1845.5734081813607 2273.7456305382393
1846.2720491976124 2281.7018435086306
1846.970521697649 2417.94971452354
1847.6688257238511 2367.687413603672
1848.3669613185684 2395.8913184959774
1849.0649285241452 2192.7036973774316
1849.7627273829057 2299.5795744720226
1850.460357937156 2556.5242127322654
1851.1578202291857 2020.278149986334
1851.8551143012664 2321.838914473032
1852.5522401956569 2471.36214427967
1853.2491979545957 2584.375768404546
1853.9459876203055 2278.4882381923176
1854.6426092349902 2260.551659840462
1855.3390628408451 2264.454877268082
1856.0353484800362 2552.4241266832587
1856.7314661947203 2414.4578066186814
1857.4274160270397 2145.884383056609
1858.123198019115 2411.330700975991
1858.8188122130487 2385.548377352495
1859.5142586509319 2372.699850071015
1860.209537374838 2292.2045963722803
1860.9046484268183 2294.8333396713724
1861.599591848917 2649.0190847810113
1862.294367683151 2217.486046775202
1862.988975971528 2162.588925206255
1863.6834167560355 2469.508455387454
1864.3776900786452 2539.165651370586
1865.0717959813119 2245.6133715527803
1865.7657345059724 2269.028747998288
1866.4595056945564 2428.646643336355
1867.1531095889586 2453.2461146480737
1867.846546231076 2211.4291065770162
1868.5398156627743 2534.301684158791
1869.2329179259123 2316.7580262066185
1869.9258530623283 2661.331393070528
1870.618621113843 2285.6279295725153
1871.3112221222636 2238.3363194223994
1872.0036561293764 2172.4549616380455
1872.695923176956 2352.5301205715587
1873.3880233067594 2520.538636300036
1874.0799565605212 2153.6006661422425
1874.7717229799673 2372.853474047048
1875.4633226068036 2599.546141456373
1876.1547554827175 2344.880766899991
1876.8460216493859 2325.5969454918786
1877.5371211484617 2260.323523351777
1878.2280540215852 2555.808746100686
1878.9188203103804 2208.1745714485087
1879.6094200564548 2387.0861858439885
1880.299853301396 2201.8529155237
1880.9901200867826 2308.2184899074437
1881.6802204541673 2257.5550906277367
1882.3701544450942 2423.5931729772224
1883.059922101087 2267.9389215159445
1883.7495234636517 2548.045557089101
1884.4389585742792 2235.461288879079
1885.1282274744517 2226.2688846481824
1885.8173302056166 2277.682525776949
1886.506266809225 2329.168382215736
1887.195037326701 2103.9713246267243
1887.8836417994517 2385.9866005531003
1888.5720802688702 2725.6806532263454
1889.260352776333 2414.543284083575
1889.9484593632042 2471.92153633429
1890.63640007082 2227.4338901792926
1891.3241749405151 2288.4366356179394
1892.0117840135954 2372.910881943718
1892.6992273313572 2192.517352499995
1893.3865049350788 2257.2715833684642
1894.0736168660223 2247.3973458744476
1894.7605631654333 2237.426819281713
1895.4473438745408 2209.3111228943512
1896.133959034556 2477.7374956846916
1896.820408686679 2358.3704611333283
1897.506692872088 2457.2836710722927
1898.192811631945 2280.7184401066206
1898.8787650073991 2316.404330985249
1899.5645530395832 2336.8321998516294
1900.2501757696118 2465.122570349418
1900.9356332385796 2157.1708168984123
1901.620925487574 2563.26579327103
1902.3060525576602 2354.161158938714
1902.9910144898859 2489.964237261733
1903.6758113252872 2163.411008057911
1904.3604431048789 2198.5046097926834
1905.0449098696663 2308.4440188604503
1905.7292116606295 2361.174892406679
1906.4133485187394 2383.8770207498965
1907.0973204849488 1943.0957545763558
1907.7811276001976 2144.678717561691
1908.4647699053967 2240.3439487849546
1909.1482474414588 2119.6948202995145
1909.8315602492694 2107.936933699402
1910.5147083696957 2568.255097700714
1911.1976918436012 2303.7587233211148
1911.880510711815 2194.230690733017
1912.5631650151681 2454.641045777034
1913.2456547944657 2325.547827017168
1913.927980090495 2306.902834686127
1914.6101409440362 2302.076585662052
1915.2921373958416 2226.154287409319
1915.9739694866603 2331.3021607725977
1916.655637257214 2656.7696605149085
1917.3371407482136 2218.2006817503006
1918.0184800003572 2645.9636787660884
1918.6996550543154 2299.345732933339
1919.3806659507554 2387.1855345160848
1920.0615127303208 2471.3030805371413
1920.7421954336423 2528.4651413440106
1921.4227141013343 2402.535600790479
1922.103068773993 2224.3662237827343
1922.783259492202 2550.2178454861073
1923.4632862965227 2154.2512639473803
1924.1431492275078 2125.7949329867133
1924.8228483256917 2120.7114805810043
1925.5023836315922 2330.2351137739265
1926.1817551857057 2440.2955141020375
1926.8609630285227 2550.6280415790748
1927.5400072005123 2223.7080790133227
1928.218887742125 2181.7398932739466
1928.8976046938005 1959.988788203998
1929.5761580959588 2285.509320509648
1930.2545479890086 2270.200998633497
1930.9327744133352 2085.812830256108
1931.6108374093164 2255.7568137052363
1932.2887370173066 2039.8873208816626
1932.9664732776473 2433.64114191727
1933.6440462306673 2259.828558171586
1934.3214559166754 2132.8008289451955
1934.9987023759659 2353.626635313797
1935.675785648813 2451.7411977028523
1936.3527057754836 2483.6849522108178
1937.029462796223 2515.722469964992
1937.70605675126 2110.8082057725337
1938.3824876808085 2133.1138138355645
1939.058755625072 2080.2845066041536
1939.7348606242267 2211.37127482046
1940.4108027184448 2217.7385509522865
1941.0865819478713 2068.8352652361928
1941.7621983526478 1919.577206638478
1942.4376519728921 2009.8790080903696
1943.1129428487038 2097.473962253206
1943.7880710201734 2216.89298842942
1944.4630365273733 2382.633156655765
1945.1378394103576 1949.3591176317764
1945.8124797091714 1933.03121077955
1946.4869574638324 1916.6032839606992
1947.161272714353 2165.394922660794
1947.8354255007234 2331.552143181055
1948.5094158629272 2173.220767618158
1949.1832438409183 2376.3892212299115
1949.8569094746435 2370.7725648336814
1950.530412804037 2508.5690434258213
1951.2037538690092 2293.529557516163
1951.8769327094578 2106.2323662598174
1952.5499493652678 2146.897227807682
1953.222803876306 2272.1439789362794
1953.895496282421 2237.878889982328
1954.5680266234522 2289.1479875511313
1955.2403949392155 2266.3231431008217
1955.9126012695142 1819.1961604824858
1956.5846456541403 2264.3378033587423
1957.2565281328643 2220.887833133296
1957.9282487454457 2358.2119429590407
1958.5998075316202 2436.181090535243
1959.27120453112 2401.834616640301
1959.9424397836501 2001.2439622647566
1960.613513328908 2426.2731893062173
1961.2844252065697 2457.6464586710977
1961.9551754563017 2221.9872384097516
1962.6257641177453 2043.838771413044
1963.29619123054 2054.084095207954
1963.966456834296 1894.0621288691916
1964.6365609686181 1814.4799690534953
1965.306503673086 2296.0837035750546
1965.976284987275 2034.2258361309282
1966.645904950734 2177.2162693855857
1967.315363603002 1973.0934706367916
1967.9846609836077 2202.852050610131
1968.6537971320486 2077.334285209143
1969.3227720878222 2269.5863467915015
1969.9915858904042 2040.1598794272795
1970.660238579252 2241.4192822786094
1971.3287301938108 2173.1160784976246
1971.997060773514 1831.0238627596336
1972.665230357772 2132.9713286691117
1973.3332389859843 1887.9500074961368
1974.0010866975335 1960.8550446407803
1974.6687735317864 2294.8607034313673
1975.3362995280932 2191.618870908721
1976.003664725793 2260.0030022206315
1976.6708691642052 1754.5817522066632
1977.3379128826364 2001.5491705675206
1978.004795920373 2257.664610818617
1978.6715183166925 2033.3100131571387
1979.3380801108524 2373.8783807487116
1980.0044813420973 2154.8737929091103
1980.6707220496555 1857.8699911369702
1981.3368022727373 2116.9167878527337
1982.0027220505417 2128.6408531941534
1982.66848142225 1832.399122218721
1983.3340804270283 1846.1746464345597
1983.999519104027 2366.2872587665033
1984.6647974923835 2171.0017126821303
1985.329915631215 2370.057157038096
1985.99487355963 2109.94150949686
1986.6596713167146 2255.818657183375
1987.3243089415428 2142.9929420756384
1987.9887864731754 2408.97599060065
1988.6531039506553 1913.580340959972
1989.3172614130071 2353.4987822156886
1989.9812588992481 2064.4535012871784
1990.645096448372 2076.4056473505284
1991.3087740993633 2139.042424619177
1991.9722918911848 2062.973237350271
1992.635649862792 2065.9134910072653
1993.2988480531185 2431.4027682876076
1993.9618865010852 2527.3177194431532
1994.6247652455968 1984.5697335308262
1995.287484325545 1814.5884488850334
1995.9500437798033 2095.03908374228
1996.6124436472292 1912.719362668548
1997.2746839666706 2258.4655121018354
1997.936764776954 2148.6310036517334
1998.598686116895 2303.8851205444034
1999.2604480252903 2402.006975042794
1999.9220505409212 1917.9468867173637
2000.5834937025593 1919.0051381492042
2001.2447775489582 2068.1371650986907
2001.9059021188514 2105.111033618741
2002.5668674509616 1958.4435233682823
2003.2276735839987 2080.6785641021856
2003.8883205566508 2020.7185717113503
2004.5488084075987 1960.6092258162112
2005.2091371755014 2050.8753129939732
2005.8693068990033 1921.996785537633
2006.5293176167397 2256.9951442215292
2007.1891693673224 1915.9431099395001
2007.848862189354 1842.0981210881123
2008.5083961214223 1943.788339845813
2009.1677712020955 1876.354435391341
2009.8269874699254 1849.487766049578
2010.4860449634598 2286.5421008145236
2011.1449437212177 1764.5678521725072
2011.8036837817108 2217.5425648482833
2012.4622651834325 2399.7568957083386
2013.1206879648653 2238.7476450936715
2013.7789521644736 2007.4881444328416
2014.4370578207036 2312.350653290757
2015.0950049719922 2100.4930951839915
2015.7527936567585 2195.3932783328937
2016.4104239134067 2278.8819422048437
2017.067895780323 2486.2911391762614
2017.725209295886 2470.182336630138
2018.3823644984514 2453.968546611481
2019.0393614263648 2038.8211812838108
2019.6962001179545 1863.95621976683
2020.3528806115355 2198.7650037914054
2021.0094029454067 1963.9256345183512
2021.6657671578487 2016.8239562901636
2022.321973287133 2116.994984610822
2022.9780213715148 2155.4299390173155
2023.6339114492293 1977.4260779444965
2024.2896435585026 1999.8901838877623
2024.9452177375442 2022.5293627452986
2025.600634024544 2371.9384181263295
2026.2558924576842 2096.330885331983
2026.9109930751292 2243.795551665218
2027.565935915025 1938.8730042855263
2028.2207210155066 2364.3889693721344
2028.8753484146964 2381.434175925853
2029.529818150695 1874.6496530058546
2030.1841302615903 2162.306831217184
2030.8382847854573 1905.59334210945
2031.4922817603601 1918.1158863149103
2032.1461212243357 2157.168793716459
2032.7998032154192 1877.8602439026981
2033.4533277716218 2055.4438472863803
2034.1066949309443 1839.8054978153764
2034.7599047313688 2084.3720939439177
2035.4129572108704 2229.0631098913373
2036.0658524074006 2256.0748002092414
2036.7185903589016 2023.0382805352504
2037.3711711032956 2127.2653940824557
2038.023594678496 2045.248808760475
2038.675861122394 1820.7192006820994
2039.3279704728757 1758.5407647154782
2039.9799227678031 1696.3823597880175
2040.6317180450278 1971.33455274046
2041.2833563423865 2054.933315903446
2041.9348376977014 2105.3708058416914
2042.5861621487784 2168.093393507225
2043.2373297334088 2129.3883609454997
2043.8883404893695 1938.664438730509
2044.5391944544208 2239.9015736848714
2045.1898916663158 2224.001553283687
2045.8404321627804 2337.637351526223
2046.4908159815368 2051.5566433991075
2047.1410431602853 2133.488234041175
2047.7911137367173 1853.3358167737283
2048.441027748504 2185.0858295448647
2049.090785233302 1893.276136925312
2049.7403862287592 1933.4079228316211
2050.389830772503 1748.4406626967952
2051.0391189021466 2196.440336988408
2051.688250655294 2000.334396055754
2052.337226069527 1868.8112007952489
2052.986045182417 2304.5409923829025
2053.634708031521 1734.0892146562412
2054.283214654375 2162.789592137189
2054.931565088511 1803.613785835497
2055.579759371436 1767.9210029764345
2056.2277975406523 2063.239374725479
2056.8756796336384 1923.9391555357574
2057.5234056878617 1784.2047563166234
2058.1709757407752 1791.8309425894138
2058.8183898298194 2094.8344937739957
2059.465647992416 2241.428374321135
2060.1127502659747 2160.159484248467
2060.759696687888 1940.548988406072
2061.4064872955405 2167.4278373082802
2062.053122126292 2174.5597677827636
2062.699601217497 1737.410287927636
2063.345924606485 2044.078431995466
2063.992092330587 1997.120665637272
2064.638104427102 1930.923848527998
2065.283960933324 2333.601386062654
2065.92966188653 2142.6345361029316
2066.5752073239855 2162.8682257032783
2067.2205972829397 1895.5353825608217
2067.86583180062 2093.118297765614
2068.5109109142522 1964.3626759837457
2069.15583466104 2008.5307049930857
2069.8006030781708 1889.8891290166896
2070.445216202821 2132.304692066478
2071.089674072153 2292.8529166470275
2071.7339767233116 1979.1462595656453
2072.3781241934303 2093.011720189306
2073.0221165196253 2277.7996780838657
2073.6659537390024 2082.546125278138
2074.3096358886505 1987.7195811099677
2074.953163005637 1817.3993754164112
2075.596535127028 1832.2612215143495
2076.2397522898664 1839.1588794153472
2076.882814531182 2070.6018297538567
2077.5257218879924 2079.956288082979
2078.1684743973 1749.7871964779522
2078.8110720960885 1733.6565568336907
2079.453515021336 1851.2590480841911
2080.095803209997 1968.947424219153
2080.7379366990135 1853.8869962504427
2081.37991552532 2019.327237542299
2082.0217397258275 2144.629144881871
2082.6634093374414 1732.3579473593904
2083.3049243970418 2116.963247726642
2083.9462849415067 2016.8329880040765
2084.587491007689 2017.0945927991488
2085.2285426324324 2074.0833785099626
2085.869439852564 2172.8803614814847
2086.510182704902 2189.8026392961374
2087.1507712262483 2206.762533087066
2087.791205453381 1789.277923263447
2088.4314854230743 2189.6185644139337
2089.0716111720867 1887.3880451347472
2089.7115827371617 1799.5282966474338
2090.351400155023 1794.6882878482525
2090.991063462385 1789.9308340835657
2091.6305726959527 1778.8618318571348
2092.2699278924047 1778.9329466545728
2092.9091290884153 1779.0730395845308
2093.548176320641 1839.4195136918177
2094.187069625721 2082.3611905014395
2094.8258090402887 1727.5460235691203
2095.464394600951 2037.7103567332222
2096.102826344313 2106.8419106988254
2096.741104306955 1823.1415105895871
2097.379228525453 1538.8134076197525
2098.017199036358 1735.960758228321
2098.6550158762147 1839.8260703039243
2099.2926790815527 1943.900243862558
2099.9301886888825 2165.695761465999
2100.5675447347076 2145.5368792383697
2101.2047472555114 2274.466465665305
2101.841796287761 1923.7689533712498
2102.47869186792 2093.081419264497
2103.1154340324265 1971.8436655245641
2103.752022817709 1863.4342181236989
2104.388458260184 1902.372817975743
2105.024740396251 2153.4908808079135
2105.660869262292 1773.03647452036
2106.296844894685 1847.9041703792707
2106.93266732978 1922.989769504045
2107.5683366039284 1624.8538528759154
2108.2038527534532 1985.159819944952
2108.8392158146726 2132.8115364847877
2109.4744258238843 1991.33456847831
2110.1094828173755 2046.8084368442155
2110.744386831422 2290.361955448439
2111.3791379022787 2055.772899241803
2112.01373606619 2227.5737964230093
2112.648181359389 2016.4774096893027
2113.28247381809 1993.6797270206885
2113.916613478492 1944.0759127331578
2114.550600376786 1953.729606347196
2115.1844345491445 2137.0815720689766
2115.818116031729 1880.3026111590175
2116.451644860679 1877.4002936922589
2117.085021072133 1641.540057775935
2117.718244702204 1765.1176512271027
2118.3513157869984 1934.0238866137765
2118.984234362604 1666.7386662037593
2119.617000465092 1943.3515097090617
2120.249614130529 1983.4491694028488
2120.8820753949585 2023.6135511823813
2121.5143842944162 1951.7010642975165
2122.14654086492 1901.8892249209323
2122.7785451424734 1989.7764826866635
2123.4103971630702 2105.1371687320743
2124.042096962681 2220.9976734829334
2124.6736445772767 2056.204022481089
2125.305040042802 1747.83744823813
2125.936283395191 2059.332021220165
2126.567374670365 1898.6039238432695
2127.198313904233 1868.6926966155156
2127.8291011326855 2152.4558520423725
2128.4597363916037 1784.406831183048
2129.0902197168507 2053.272470121286
2129.720551144279 2139.487799163422
2130.3507307097225 2225.6706679056956
2130.980758449008 2387.824286145012
2131.6106343979427 2274.5367659533918
2132.2403585923203 2161.003936385512
2132.8699310679276 2326.817169109409
2133.499351860526 2005.8138813130304
2134.1286210058715 1995.5458476234974
2134.7577385397053 2037.1898401097376
2135.3867044977487 2078.972905996149
2136.0155189157176 2191.630072354394
2136.644181829308 2241.9709338903754
2137.2726932742025 1885.2677083395574
2137.901053286074 1896.8148446247324
2138.5292619005777 1908.462105322713
2139.1573191533535 1768.1803565667258
2139.7852250800315 2281.5308867341237
2140.4129797162295 1966.4794411364808
2141.0405830975433 1620.6401714956123
2141.6680352595613 1668.8363232667627
2142.2953362378576 1717.143807732183
2142.9224860679915 1878.0009585290657
2143.549484785508 1749.5838436601903
2144.1763324259373 1950.0225310424012
2144.803029024799 1873.3094917750914
2145.429574617594 1805.2390377888164
2146.0559692398165 2112.6170517166347
2146.682212926942 1852.5407660110704
2147.308305714432 1872.844228671484
2147.9342476377333 2041.8624226128522
2148.5600387322847 2175.3989991343733
2149.185679033506 2093.9502345389524
2149.8111685768017 1878.7401015581167
2150.4365073975678 1858.4856265022468
2151.061695531187 1907.3154104027158
2151.686733013021 2142.9252914123085
2152.311619878423 1741.041183452045
2152.9363561627342 2070.5646853396966
2153.560941901278 1762.5523609743886
2154.1853771293663 2104.0540234514715
2154.809661882293 2202.006641715429
2155.433796195348 2100.7187584239064
2156.0577801037944 2085.148740072556
2156.681613642895 2151.6382448083323
2157.3052968478896 2103.5799851177003
2157.928829754006 2002.7050444878562
2158.552212396462 1878.6490353943984
2159.1754448104566 2053.386740242223
2159.7985270311783 1667.9983742509867
2160.4214590938027 1483.4479422950335
2161.0442410334927 1660.0861684856961
2161.6668728853874 1944.3403150360932
2162.289354684628 1703.070856365111
2162.911686466332 1923.2852801688282
2163.533868265602 2032.494718632913
2164.1559001175337 2411.4117794227977
2164.7777820572046 2223.9988597231595
2165.399514119681 1810.3246339653288
2166.021096340013 1585.667157985217
2166.6425287532384 1677.9447516993496
2167.263811394385 1770.4712603477662
2167.8849442984574 2075.626009596507
2168.505927500455 1703.5633786181138
2169.126761035366 1975.7461289675325
2169.7474449381552 1669.7549735552323
2170.367979243778 1565.9572117311413
2170.9883639871823 1992.7292754034147
2171.608599203293 1836.6829314693016
2172.2286849270276 2300.46689092195
2172.8486211932886 2466.7042614014335
2173.4684080369625 1689.8600989701758
2174.0880454929265 1641.8576633311295
2174.7075335960417 2024.3303881328534
2175.3268723811543 2136.6295961034148
2175.9460618831 1792.375178821948
2176.565102136701 1655.4576176802034
2177.1839931767627 1771.148522844708
2177.802735038078 1887.1706168778105
2178.421327755432 1705.9677466201756
2179.0397713635866 1722.8663638644252
2179.658065897298 1474.1456845756313
2180.276211391305 1604.241525192709
2180.8942078803357 1711.8237855089515
2181.5120553991 1925.3950424202071
2182.129753982299 1680.8142109899259
2182.7473036646206 1944.463654351141
2183.3647044807367 1810.9546054740263
2183.9819564653044 1736.4063836260812
2184.599059652968 2164.2347305119956
2185.216014078367 2007.7453284865999
2185.832819776113 2095.938049090245
2186.4494767808137 2184.220190016072
2187.065985127063 1994.3683493650024
2187.682344849436 1878.4490934142748
2188.298555982501 1924.870302468691
2188.9146185608097 1971.2490684277388
2189.530532618901 2077.41835079391
2190.1462981912937 1933.6488626218566
2190.761915312507 1872.6928723603746
2191.377384017036 2084.0467095392864
2191.9927043393654 2121.424136601465
2192.6078763139667 2201.9328917488483
2193.2228999753006 2282.6601752117344
2193.837775357808 1679.3933037739948
2194.452502495922 1542.8975030181377
2195.0670814240602 1844.4578876566138
2195.6815121766285 1666.6935529115713
2196.2957947880186 1670.4301108002478
2196.9099292926057 1674.1800256965646
2197.523915724758 1982.612177526184
2198.137754118825 1830.510917988932
2198.7514445091456 2276.360467836762
2199.3649869300443 1778.0503506862485
2199.9783814158327 2212.5982239280256
2200.5916280008096 2098.4170415029575
2201.2047267192593 1984.0009708109708
2201.8176776054515 1997.5969525536643
2202.430480693649 1807.1406025506446
2203.0431360180955 2068.0676266601477
2203.6556436130195 2164.06199164502
2204.268003512645 2141.8937861510167
2204.8802157511727 2119.761715582176
2205.492280362796 2087.8738228469983
2206.1041973816937 1816.5387621448547
2206.715966842032 1935.5799702404208
2207.3275887779655 1818.982130549178
2207.93906322363 1818.5767676588862
2208.550390213153 2133.2119742714503
2209.1615697806465 1787.342702551985
2209.7726019602105 1535.0375020462475
2210.3834867859277 1492.3544225964788
2210.9942242918787 1888.5447977603776
2211.6048145121167 1660.5655423228982
2212.2152574806914 2562.8981995661675
2212.825553231638 1820.3163460634976
2213.435701798975 1847.382889357598
2214.045703216707 1874.6805331277108
2214.655557518832 1478.048694488563
2215.2652647393297 1777.0854509973547
2215.874824912169 1866.2106495711855
2216.4842380713 1955.7516196631739
2217.09350425067 1854.321346748816
2217.7026234842033 1808.247860144132
2218.311595805819 1998.7768203443115
2218.9204212494133 1811.2805130879515
2219.52909984888 2282.2273818800104
2220.137631638092 2204.5213483376083
2220.7460166509154 2126.514680498044
2221.354254921198 1790.1615999053058
2221.9623464827764 1998.4981310813637
2222.5702913694713 1761.8885909775504
2223.178089615096 1719.6733255365234
2223.7857412534486 1677.3799714536904
2224.39324631831 1493.105064883255
2225.000604843457 1625.6578352039671
2225.607816862641 1811.7671127174576
2226.214882409611 1998.0802214725409
2226.8218015180973 2102.1635173574678
2227.4285742218217 1646.5361191297113
2228.0352005544864 2065.7276606232745
2228.6416805497847 1660.0057622289812
2229.248014241399 1747.7969962926134
2229.8542016629945 1977.7269849991305
2230.460242848223 2207.939869531041
2231.0661378307304 2293.375097816316
2231.671886644139 1804.0146003941525
2232.277489322065 1649.6911963815178
2232.8829458981127 1348.3643461138824
2233.48825640587 2050.4006468336147
2234.0934208789095 2482.612154118508
2234.6984393507955 2141.9687448883733
2235.3033118550793 2216.342351091609
2235.9080384252975 1863.496927231922
2236.5126190949723 1632.8167666965808
2237.1170538976166 1559.6106763844377
2237.721342866729 1685.9014387891991
2238.32548603579 1812.4014281703517
2238.9294834382763 1897.3459887470235
2239.533335107646 1668.7337428972805
2240.1370410773434 1770.5241282561365
2240.740601380803 1872.4677926029112
2241.3440160514474 1890.112216929679
2241.9472851226783 1806.3626300079734
2242.550408627896 1921.1728687407044
2243.1533866004793 2036.2075352272798
2243.756219073799 1952.4676688384868
2244.3589060812064 1687.131211009721
2244.961447656049 1548.3513784311695
2245.5638438316564 1908.9482186679422
2246.166094641343 1949.2206686871123
2246.7682001184166 1890.3980441159626
2247.3701602961664 1941.1856713425636
2247.971975207871 1957.9462592287825
2248.5736448867974 2231.65690436855
2249.175169366197 2113.3126535024808
2249.7765486793123 1649.422875062111
2250.3777828593684 1877.108329727381
2250.9788719395783 2054.3509266551555
2251.579815953146 1909.6091867034975
2252.1806149332606 1591.4880192121677
2252.781268913097 1862.7269708158717
2253.381777925817 1571.0133390030692
2253.9821420045737 1763.3231265490776
2254.5823611825035 2112.9717069769486
2255.1824354927303 1945.189453352452
2255.782364968365 1834.9117490488782
2256.38214964251 1724.5385881426387
2256.9817895482483 1646.3155986057322
2257.5812847186553 1658.8538266007467
2258.180635186791 1671.4686171227975
2258.779840985704 1808.2167698046494
2259.37890214843 1999.4280268711586
2259.97781870799 2513.370076542866
2260.5765906973957 2122.113215346947
2261.175218149645 1650.1647169405921
2261.773701097718 2174.2105942881153
2262.3720395745895 1687.7922322230552
2262.970233613216 1625.631421994305
2263.568283246548 1751.0564576571128
2264.1661885075137 1812.961480683037
2264.763949429038 1879.4482210679162
2265.3615660440246 1742.6725695335113
2265.959038385374 2020.9984788304796
2266.5563664859637 1874.3103123677542
2267.153550378669 1781.476243900665
2267.7505900963424 1950.3860225373883
2268.3474856718312 1766.3143765481807
2268.9442371379664 1627.757636527956
2269.5408445275643 1647.7522005506155
2270.1373078734377 1924.5468322726235
2270.7336272083758 1958.721008425772
2271.32980256516 1671.3838548308172
2271.925833976562 1830.9962588868482
2272.5217214753357 2125.920203841043
2273.117465094223 1724.0811435969858
2273.7130648659586 1636.6022565731378
2274.308520823257 1804.4067263188815
2274.903832998827 2037.2320097895695
2275.4990014253563 1716.939639187664
2276.094026135528 1960.8832506273382
2276.6889071620117 1630.545838325676
2277.2836445374614 2108.182852245315
2277.878238294519 1766.3790504804783
2278.472688465812 1631.4645094473726
2279.066995083962 1496.2912493082144
2279.6611581815705 1661.7790286076058
2280.255177791232 1974.2119109798707
2280.8490539455233 1792.4896733801256
2281.442786677013 2192.778539660389
2282.0363760182554 1931.8311084389504
2282.6298220017943 1670.5165724614792
2283.223124660155 2135.374740076339
2283.816284025859 1805.2618260657796
2284.4093001314086 1581.524806664585
2285.002173009292 2140.387075739991
2285.5949026919952 1886.7910058337366
2286.1874892119777 1703.916274209032
2286.7799326016993 1600.6234015666425
2287.3722328936 1497.0053533570458
2287.964390120109 1539.3797736878582
2288.556404313642 1802.1718400614943
2289.1482755066027 1746.1777157543925
2289.7400037313873 1690.0152186372052
2290.3315890203703 1973.8908618945436
2290.9230314059205 1900.42163221839
2291.5143309203904 1826.8923828647262
2292.1054875961236 1496.181425815775
2292.6965014654506 2159.651315161847
2293.287372560684 1740.0656964062644
2293.878100914131 1774.4302298540267
2294.468686558086 1808.9252866774746
2295.059129524827 1812.5111080509093
2295.649429846617 1908.4456758137471
2296.239587555716 2004.5334866851613
2296.8296026843636 1783.1750627072656
2297.419475264791 1908.6737149906814
2298.0092053292137 2034.2876652235814
2298.598792909839 1946.3909509125847
2299.1882380388597 1698.1020267768176
2299.777540748455 2014.9638575360939
2300.3667010707904 2088.409041897297
2300.9557190380256 1759.141347586902
2301.544594682302 1719.168036602312
2302.1333280357503 1679.1249863243545
2302.721919130485 2015.8939338196228
2303.3103679986198 2084.653025834546
2303.898674672242 2002.4505550245744
2304.486839183437 1682.0265089181096
2305.0748615642697 1640.09226206185
2305.6627418468015 1598.2346386564036
2306.2504800630704 1852.0065858858247
2306.8380762451143 1771.6454950830037
2307.425530424949 1777.7309039341046
2308.012842634582 1783.8164326584179
2308.6000129060103 2186.664521976924
2309.187041271214 1989.3317570670922
2309.773927762164 1791.5798326729062
2310.3606724108213 1953.2912875501254
2310.9472752491274 1530.1268258587254
2311.5337363090184 1806.2620822183449
2312.120055622414 1921.2865531930852
2312.706233221221 1648.756065250203
2313.2922691373424 1609.8353944144344
2313.8781634026564 1637.2402003445006
2314.463916049037 1664.6868229491156
2315.049527108342 1867.3112486697003
2315.6349966124235 2007.8166611281927
2316.2203245931123 1696.9663856179563
2316.8055110822315 1939.829868938206
2317.3905561115935 1748.7114800811446
2317.9754597129977 1570.383432222884
2318.560221918229 1676.4599086909407
2319.1448427590603 1782.813745994259
2319.729322267256 1554.2400110000635
2320.313660474563 1860.2527762143964
2320.8978574127195 1821.9003686050335
2321.481913113452 1783.5373905725057
2322.0658276084705 1514.0683315097774
2322.6496009294806 1883.7790420081496
2323.233233108165 2247.857732047566
2323.8167241762058 1922.6241200161087
2324.4000741652617 2084.6416595877745
2324.983283106987 2112.548562616835
2325.5663510330232 1983.0600800554105
2326.1492779749933 1853.041906467724
2326.7320639645204 2028.4290380318903
2327.3147090332004 2300.0193814780228
2327.897213212629 1658.5339865481187
2328.4795765343843 1940.0164478655001
2329.0617990300307 1557.5324689150893
2329.643880731124 2104.7935304997864
2330.22582166921 1877.7458538188625
2330.807621875816 1872.3817676804833
2331.3892813824623 1517.9740112823815
2331.9708002206517 1563.4739044640078
2332.5521784218818 1732.2950505325177
2333.133416017634 1901.534771464058
2333.7145130393765 1784.4123550208344
2334.295469518571 1876.6332214518893
2334.876285486658 1969.0768590684554
2335.456960975076 1696.3576295396178
2336.037496015242 1894.8468386233776
2336.6178906385667 1751.5561744522445
2337.198144876451 2128.8233335609825
2337.778258760278 1918.6216110194405
2338.3582323214214 1974.1111133773127
2338.938065591243 2029.680022289532
2339.517758601087 2095.6390357551795
2340.0973113822965 1920.4219203800953
2340.676723966193 1530.8727402038821
2341.255996384094 1722.3762548550392
2341.835128667295 2043.8919776521118
2342.4141208470883 1817.5817471099897
2342.992972954751 1765.7461909343206
2343.5716850215467 1904.4971983496907
2344.1502570787306 1328.4712056848364
2344.7286891575386 1652.8035027357196
2345.3069812892045 2299.245759904954
2345.885133504944 2208.858562244423
2346.4631458359618 1648.0483501591686
2347.04101831345 1563.764951585244
2347.6187509685915 1684.1658006632522
2348.196343832553 1804.6824026222753
2348.7737969364935 1605.039661255808
2349.351110311558 1778.9669356422903
2349.9282839888765 1608.8535363678166
2350.5053179995757 1623.9797421164512
2351.0822123747585 1422.165467008554
2351.658967145526 1512.6591319070203
2352.2355823429643 1603.3933805969618
2352.812057998144 1994.4700795978697
2353.3883941421263 2075.471072975315
2353.9645908059647 2156.726712239884
2354.540648020693 1884.4148929551145
2355.116565817336 1754.3024991774269
2355.6923442269126 1844.447503548755
2356.2679832804224 1645.1362243222588
2356.8434830088518 1577.9487201306574
2357.41884344318 1751.252871974344
2357.994064614377 1869.9097455416227
