#exp_cfg={"servo_angle": 0.0, "laser_lim": 100.0, "servo_angle_to": 18.0, "laser_wup": 0.0, "bt_dev": "EnSpectr-25AE3", "laser_wdn_max": 0.0, "frames": 10.0, "servo_used": 0, "servo_calib_use": 0, "laser_wdn_min": 0.0, "servo_pix_from": 90.0, "cooler_tout": 300.0, "servo_angle_from": 0.0, "servo_calib": "[-1.9174921013161362e-09, 3.9322238269163779e-05, -0.27385609119055809, 653.59552119713567]", "laser_autoctl": 0, "servo_pix_to": 3682.0, "laser_pw": 100.0, "cooler_on": 0, "laser_volt": 4.0, "cooler_autoctl": 0, "cooler_curr": 70.0, "cooler_startup": 10.0, "laser_fixed_pw": 0, "gain": 1.3, "offset": 2.53059635486, "servo_calib_degree": 3.0, "laser_curr": 55.0, "shutter": 8200.0, "servo_calib_step": 1.0, "laser_fixed_curr": 0, "exp": 2000.0, "ccd_volt": 4.7, "bt_addr": "00:06:66:62:5A:E3", "servo_delay": 500.0, "laser_autooff": 1}
#proc_cfg={"flat_auto_wnd": 200.0, "flat_auto_fr": 200.0, "flat_auto_shift": 5.0, "yconv": 1, "flatten": 1, "flatten_strength": 100.0, "xfrom": 300.0, "auto_max_frame": 2000.0, "auto_signal": 48000.0, "flat_auto_tol": 0.1, "autoclip": 1, "xrel_range": 0.0, "flat_auto_to": 4000.0, "intensity_adj": 1.0, "xrel": 7852.0, "rmhot": 1, "flat_auto_slit": 4.999999999999997, "auto_ini_exp": 300.0, "auto_off": 0, "xto": 2860.0, "flat_auto_ref": "", "flat_auto_rank": 1, "autobackg": 0, "xrel_adj": 0.0, "auto_black_lvl": 1, "base_wnd": 100.0, "sub_baseline": 0, "xconv": 2, "auto_max_exp": 1000.0, "auto_total_exp": 10000.0, "auto_exp": 0, "rmripple": 0, "black_lvl": 8284.05, "shutter_clip_adj": 0.0, "auto_bckg": 0, "flat_auto_thr": 0.9, "subbackg": 1}
316.8218498245369 40114.04748857382
317.89969571804795 39983.01178783046
318.977263876126 40016.75158234984
320.05455438786703 39707.403929591295
321.1315673423287 39713.36785629201
322.2083028285215 39771.99571673731
323.2847609354267 39546.05339315491
324.3609417519747 39453.82174722334
325.43684536705587 39339.34618100217
326.5124718695279 39001.40291114137
327.58782134820103 38986.15716277786
328.66289389184385 39083.9105424318
329.7376895891921 38742.7970099885
330.8122085289342 38736.15864290712
331.88645079971866 38765.99432691099
332.9604164901575 38445.66804898127
334.03410568881554 38425.65721594308
335.1075184842266 38582.29335474474
336.18065496487543 38296.45284217689
337.2535152192122 38262.98991755886
338.32609933564163 38297.97699107112
339.39840740253203 38066.29605026127
340.4704395082099 38004.024119248264
341.5421957409617 37766.590211890114
342.6136761890357 38060.09623614479
343.6848809406365 37894.44357788896
344.75581008392874 37679.754238284564
345.82646370703696 37737.051891449555
346.8968418980512 37707.170721230446
347.96694474501055 37813.62216995174
349.0367723359268 37662.991511165674
350.106324758759 37588.659770169834
351.1756021014353 37513.25610119563
352.2446044518383 37469.056693559345
353.31333189781435 37637.39102215085
354.38178452716966 37509.319036369576
355.449962427665 37603.621299925304
356.51786568702846 37414.5368665319
357.58549439294256 37666.5428285904
358.6528486330535 37508.7889625921
359.71992849496564 37400.20960950397
360.7867340662433 37502.3621236461
361.8532654344144 37515.33807687849
362.9195226869597 37614.415635854806
363.9855059113288 37363.163871325116
365.05121519492604 37487.26145821823
366.11665062511565 37714.50792663351
367.1818122892273 37592.03507529862
368.2467002745434 37674.64850387121
369.31131466831175 37632.401586101674
370.375655557742 37652.95443449264
371.4397230299983 37631.72832509137
372.5035171722102 37574.42605178379
373.5670380714637 37615.41198739259
374.6302858148101 37837.29026030604
375.6932604892554 37625.54889292371
376.7559621817709 37768.16764410389
377.81839097928605 37558.85437929844
378.8805469686886 37625.800787496904
379.94243023683157 37544.35315178897
381.0040408705263 37528.40720233746
382.0653789565458 37538.152441641534
383.1264445816196 37547.546931828474
384.1872378324406 37484.682638821694
385.2477587956637 37712.975526392336
386.3080075579037 37445.88091536615
387.3679842057336 37285.55186410064
388.4276888256918 37340.21704835129
389.48712150426945 37488.991813244014
390.54628232792857 37411.71462687767
391.6051713830857 37319.55563807384
392.66378875611736 37288.16315547515
393.7221345333637 37358.84917134662
394.7802088011249 37106.587669218876
395.838011645661 37211.86951902088
396.89554315319765 37055.67499095542
397.9528034099112 37080.97226526457
399.00979250194723 36799.01638586521
400.06651051541485 36782.226303289
401.1229575363741 36694.58719308966
402.17913365085224 36794.24321797949
403.23503894483656 36793.90153493898
404.2906735042761 36490.25154451855
405.3460374150818 36391.92209508979
406.401130763119 36511.37119161786
407.455953634224 36408.63740161179
408.5105061141876 36336.30661391124
409.56478828876243 35945.014862699114
410.6188002436629 36020.46283147418
411.6725420645689 36057.803456260226
412.72601383711117 36154.76111249649
413.77921564689314 36168.658990386684
414.8321475794728 35978.156736014294
415.88480972036814 35774.141350147984
416.93720215506437 36114.543437402426
417.9893249690049 35606.462814628365
419.04117824759123 35648.62186201197
420.09276207619223 35584.16175381054
421.144076540133 35632.31168186599
422.1951217247042 35562.29771521594
423.24589771515275 35547.44607440948
424.2964045966928 35414.01824541819
425.34664245449494 35487.81027718167
426.3966113736933 35304.694012056025
427.4463114393875 35388.659573448094
428.49574273662984 35296.649907150524
429.5449053504417 35180.6088240209
430.5937993658026 35289.65698223883
431.6424248676558 34992.72670798277
432.6907819409007 35155.28972685085
433.73887067040596 35054.0744224969
434.7866911409965 34952.18357671728
435.8342434374608 35124.88870548104
436.88152764455117 34890.277897763866
437.9285438469724 34844.942253712325
438.9752921294057 34671.39644730108
440.02177257648145 34880.974468375025
441.06798527279716 34623.09933854785
442.1139303029122 34801.40885958162
443.1596077513459 34673.32855544648
444.2050177025794 34780.65000581602
445.25016024105753 34543.20119830745
446.2950354511886 34695.29227511114
447.33964341733736 34641.0549823267
448.383984223834 34586.47590150275
449.4280579549686 34307.72949801656
450.471864694995 34592.69108316417
451.5154045281306 34455.94112772301
452.5586775385509 34355.06407327308
453.60168381039693 34311.05602196375
454.64442342776783 34440.186945300564
455.6868964747264 34386.27640352059
456.7291030353008 34269.63273346991
457.77104319347563 34324.033503600345
458.8127170332027 34290.0759195579
459.854124638392 34203.668639715244
460.895266092919 34444.22147391151
461.93614148061897 34497.988645565594
462.97675088529104 34489.20634460663
464.01709439069236 34316.96832196907
465.0571720805492 34367.137519685224
466.0969840385442 34264.98366489655
467.1365303483253 34523.43757401283
468.17581109350067 34318.06862392111
469.2148263576437 34324.31196870199
470.2535762242878 34371.688499938246
471.29206077693016 34468.377429105916
472.33028009902773 34381.36332496617
473.3682342740012 34619.63501295756
474.40592338523857 34527.41707453971
475.4433475160804 34557.000213416555
476.4805067498364 34641.55369577121
477.51740116978 34756.19531078948
478.5540308591426 34940.630317249546
479.59039590112116 35159.275940353014
480.6264963788726 35225.48695158285
481.6623323755193 35531.90844513482
482.6979039741436 35457.399741774
483.7332112577915 35792.3452065605
484.76825430947247 35899.35908064307
485.80303321215797 36210.66580714546
486.837548048783 36244.48570986046
487.8717989022425 36545.937448703815
488.90578585539697 36572.414052652326
489.9395089910686 36825.105297899914
490.97296839203955 36575.142552014884
492.00616414106116 36493.226774963216
493.0390963208429 36396.32595406705
494.0717650140559 36539.003640490184
495.10417030333883 36470.7250801663
496.1363122712901 36119.06829697704
497.16819100046814 35858.38352945947
498.1998065734024 35683.98597348243
499.2311590725767 35510.35991782821
500.26224858044407 35293.30283943836
501.2930751794156 34987.76400911824
502.3236389518679 34840.175607997095
503.35393998014115 34565.316346107116
504.38397834653733 34537.36960925138
505.4137541333221 34275.95426458606
506.4432674227228 34121.09297751884
507.4725182969323 34056.00535568308
508.5015068381035 34111.41521736517
509.53023312835467 34039.409668672706
510.55869724976765 33943.69093247356
511.58689928438434 33653.17480553597
512.6148393142121 33678.949133368944
513.6425174212218 33800.52688611219
514.6699336873462 33859.88273670342
515.6970881944835 33783.114406289555
516.7239810244901 33665.64432905623
517.7506122591931 33661.51137049601
518.7769819803761 33753.09088167442
519.8030902697901 33666.69851864263
520.8289372091476 33713.601445039254
521.8545228801249 33851.53414963992
522.8798473643619 33538.5569073133
523.9049107434621 33492.648535821834
524.9297130989908 33557.53863703828
525.9542545124805 33588.12539766598
526.9785350654201 33460.96269531209
528.0025548392696 33496.97348257281
529.0263139154504 33507.21822823
530.0498123753423 33442.21339412892
531.073050300296 33280.08070119206
532.0960277716204 33257.55023506711
533.1187448705896 33230.63998419993
534.1412016784416 33113.16804921559
535.1633982763833 33066.0203555361
536.1853347455726 32836.11018406535
537.2070111671401 32856.32566696311
538.2284276221817 32597.37598154719
539.2495841917516 32634.054867197807
540.2704809568677 32566.963913722488
541.2911179985167 32694.7268422266
542.3114953976419 32440.18045827137
543.3316132351592 32442.00650228949
544.3514715919409 32314.810353375913
545.3710705488247 32319.788385977132
546.3904101866156 32136.79580762792
547.4094905860784 32234.791138634748
548.4283118279418 32035.180386886095
549.4468739929034 32174.08702289611
550.4651771616191 32049.471301203565
551.4832214147063 32033.657902226005
552.501006832761 31979.721943777327
553.5185334963226 31977.35808167273
554.5358014859103 31974.76311140039
555.5528108820035 31867.32353170671
556.5695617650363 31778.22465143534
557.5860542154242 32015.049685090944
558.6022883135283 31742.429394364193
559.6182641396881 31769.29086635997
560.6339817741991 31578.94462281475
561.6494412973225 31866.441024097458
562.6646427892883 31686.15553284267
563.6795863302796 31677.37284617347
564.694272000459 31608.450725586998
565.7086998799423 31792.308666546975
566.7228700488104 31553.01154823422
567.7367825871115 31769.936928048362
568.7504375748576 31610.882226316142
569.7638350920224 31608.806318887982
570.7769752185486 31668.811027952976
571.7898580343353 31797.29921626019
572.802483619258 31603.54997004138
573.8148520531431 31999.379130761925
574.8269634157932 31862.950320283453
575.8388177869692 31818.18196752998
576.8504152463938 31966.167662616936
577.8617558737587 32080.710790831443
578.8728397487175 32046.03554176347
579.883666950891 32255.093321539236
580.8942375598654 32228.36642265087
581.9045516551851 32551.946586142352
582.9146093163617 32834.81804497378
583.924410622878 32794.43461833918
584.9339556541727 32607.955060516415
585.9432444896538 33044.714763088545
586.9522772086875 32622.782524446036
587.9610538906127 32840.87313871452
588.9695746147318 32686.792888021282
589.9778394603054 32747.652133467276
590.985848506567 32644.45546117653
591.9936018327098 32710.549190143658
593.0010995178891 32394.191346686122
594.0083416412344 32472.050460114133
595.0153282818283 32182.19263309992
596.0220595187293 32215.731336169218
597.0285354309508 31981.746294724195
598.0347560974806 32027.96693258
599.0407215972609 31907.44385241564
600.0464320092051 32016.302564897767
601.0518874121954 31881.972797604172
602.0570878850685 31728.350926651514
603.062033506636 31694.784065773885
604.0667243556636 31867.464203989755
605.0711605108936 31647.80676434451
606.0753420510264 31911.905574058655
607.0792690547278 31747.930830779205
608.082941600629 31822.13618818196
609.0863597673306 31666.030062109843
610.0895236333909 31992.63376346064
611.0924332773357 32114.498974247672
612.0950887776617 32230.113358054125
613.0974902128219 32143.156929411343
614.0996376612384 32399.70543051605
615.1015312013005 32478.897024807557
616.1031709113595 32665.667792622495
617.1045568697336 32618.21959596329
618.1056891547069 33048.84131783575
619.1065678445229 33171.86752236313
620.1071930173985 33675.62307252998
621.1075647515099 33755.84997972087
622.1076831250048 33791.68426630027
623.1075482159849 34145.68227527544
624.1071601025305 34360.9711576377
625.1065188626781 34571.16254018985
626.105624574433 35019.80209588191
627.1044773157682 35231.89319120025
628.1030771646128 35388.145397537795
629.1014241988742 35510.8801420558
630.0995184964158 35866.17909114367
631.0973601350688 35897.25328857567
632.0949491926294 36171.9571742844
633.0922857468631 35701.270120893794
634.089369875499 35835.098885785
635.0862016562278 35796.626950881924
636.0827811667077 35563.075984138086
637.0791084845641 35435.83832138337
638.0751836873878 35312.65784209735
639.0710068527369 35184.908330327075
640.0665780581294 34933.39372296842
641.0618973810506 34595.46685665329
642.0569648989604 34481.72203946134
643.0517806892676 33916.13819467127
644.0463448293649 33717.53524267689
645.040657396592 33322.610503715674
646.0347184682723 33347.42264775902
647.0285281216875 32941.57486238924
648.0220864340772 32817.69407868532
649.0153934826558 32516.609100533056
650.0084493446047 32247.37763548624
651.0012540970674 32009.71784618956
651.9938078171526 31949.42109339215
652.9861105819346 31681.080873441282
653.9781624684565 31675.66292766147
654.9699635537254 31361.4368833174
655.9615139147136 31227.311687051224
656.9528136283589 31010.570124619542
657.9438627715699 31253.87691792316
658.9346614212154 30873.342249364818
659.925209654135 30629.298968734744
660.9155075471263 30796.707251649983
661.9055551769616 30665.322069183596
662.895352620375 30839.216074652533
663.8848999540678 30689.020072682517
664.8741972547068 30336.544805776175
665.863244598926 30349.1835207197
666.8520420633213 30350.388037973626
667.8405897244611 30377.1342382633
668.8288876588758 30125.214172928303
669.8169359430613 30357.7853318393
670.8047346534822 30183.36756698472
671.7922838665672 30194.422721651783
672.7795836587156 30214.31163830289
673.766634106285 30263.825917726168
674.7534352856092 30035.83795713263
675.7399872729766 30158.80239219554
676.7262901446538 30034.816072102076
677.712343976862 30106.238914931775
678.6981488457986 30166.329326983094
679.6837048276229 30029.70903035996
680.6690119984596 30022.78947479106
681.6540704344043 30017.902362542758
682.6388802115107 29974.594923860528
683.6234414058108 29982.224881350743
684.6077540932874 29815.701201325788
685.591818349907 29894.836948549648
686.575634251587 29847.18364570875
687.5592018742263 29760.90455134339
688.5425212936734 29633.11521776219
689.5255925857564 29651.791991184797
690.5084158262707 29668.85332107731
691.4909910909646 29720.496840693282
692.4733184555644 29419.559162680416
693.4553979957618 29613.037164497306
694.4372297872123 29372.904445631062
695.4188139055404 29389.928670852307
696.4001504263324 29276.058609815238
697.3812394251509 29447.047696546768
698.3620809775111 29164.879795993264
699.3426751589104 29249.380484539306
700.3230220448004 28967.212139992353
701.3031217106054 29202.94780026048
702.2829742317172 29157.4510638319
703.2625796834873 29031.971703949723
704.2419381412474 28725.72458927345
705.22104968028 28948.979316007317
706.1999143758458 28889.553433461806
707.178532303169 28805.922586451703
708.1569035374378 28807.292344151465
709.1350281538107 28902.601162971772
710.1129062274158 28778.720187291696
711.0905378333373 28823.064126734615
712.0679230466376 28715.97208199348
713.0450619423427 28896.71686278989
714.0219545954424 28935.51251955789
714.9986010808989 28687.45157414924
715.9750014736292 28822.959442325024
716.9511558485392 28850.915397287445
717.9270642804786 28870.857411284138
718.9027268442787 28971.41473425297
719.8781436147328 28861.10990063239
720.8533146666014 28927.36383646322
721.828240074612 28685.65491368375
722.8029199134635 28781.600970722513
723.7773542578125 28659.954542777337
724.751543182294 28757.93309353895
725.7254867615029 28596.433498400926
726.6991850700015 28566.48966896657
727.6726381823228 28415.719379819137
728.6458461729599 28532.61566540738
729.6188091163858 28510.490448780234
730.5915270870246 28578.296306103963
731.5640001592856 28298.02524583994
732.536228407529 28478.767277253683
733.5082119060917 28226.694323035605
734.4799507292755 28190.014301869574
735.4514449513481 28245.674938343647
736.4226946465496 28387.901313082788
737.3936998890786 28240.918281588994
738.3644607531078 28208.13270174712
739.3349773127793 28105.967516103596
740.3052496421951 28343.419874117662
741.27527781543 27981.634653901634
742.2450619065221 28023.809300647532
743.2146019894826 28132.93405723229
744.183898138288 28149.024210265954
745.1529504268801 27987.170531897234
746.1217589291682 27939.376332621985
747.0903237190341 27822.936822578864
748.058644870318 27906.71171681978
749.0267224568397 27739.60472468118
749.994556552374 27798.031341918664
750.9621472306771 27794.099554002234
751.9294945654583 27895.97715788673
752.8965986304011 27829.711856551854
753.8634594991636 27728.856729809067
754.8300772453586 27817.977591438095
755.7964519425768 27838.174578319034
756.762583664371 27794.356094672527
757.7284724842611 27848.281902045117
758.6941184757416 27718.305899244548
759.6595217122667 27767.97728866464
760.6246822672638 27742.955848049332
761.5896002141235 27632.098345459573
762.5542756262093 27702.849716783916
763.5187085768503 27818.001863060566
764.4828991393406 27795.257124996882
765.4468473869474 27622.46805151261
766.4105533929032 27466.957940032473
767.3740172304078 27501.11460399191
768.3372389726283 27434.56691336202
769.3002186926988 27285.331794561887
770.2629564637282 27180.680360747636
771.2254523587872 27425.12885580667
772.1877064509154 27154.064004882977
773.1497188131179 27126.68248759274
774.1114895183728 26934.60863611736
775.0730186396268 26956.08423082743
776.0343062497905 26871.490116325374
776.9953524217381 26854.967102274248
777.9561572283274 26787.637640374684
778.9167207423689 26834.109639043
779.8770430366476 26660.417103152122
780.8371241839159 26805.854548590934
781.7969642568951 26704.592476748727
782.7565633282757 27174.94655078819
783.7159214707099 26672.00375545764
784.6750387568281 26763.636578784724
785.6339152592227 26642.61766439776
786.5925510504512 26700.557003836664
787.5509462030477 26660.869853754983
788.5091007895098 26865.06873821732
789.4670148823006 26757.380314619553
790.4246885538596 26780.224828243896
791.3821218765861 26663.4497265389
792.3393149228505 26643.127787622885
793.2962677649975 26634.47921547581
794.2529804753303 26921.3668734267
795.20945312613 26854.977434876055
796.1656857896378 26799.5487315199
797.1216785380675 26777.10524057524
798.0774314435985 27086.652940322143
799.0329445783846 27211.64042313009
799.9882180145414 27228.250644591848
800.9432518241574 27279.77612881448
801.89804607929 27578.02420907056
802.852600851962 27642.07150887607
803.8069162141637 27693.34787644636
804.760992237856 27613.044943656092
805.714828994971 27782.215355563378
806.6684265574077 27691.74182656069
807.6217849970271 27674.040434209153
808.574904385674 27662.50661161277
809.527784795142 27542.594689600628
810.4804262972102 27765.021459435047
811.4328289636178 27420.82691034268
812.3849928660748 27163.9748377653
813.3369180762638 27137.478439926694
814.2886046658241 27025.43293710266
815.2400527063783 26759.40273787154
816.1912622695108 26620.502091699724
817.1422334267718 26575.151922407753
818.0929662496856 26316.59480693908
819.0434608097457 26219.097690158786
819.9937171784059 25905.141175893914
820.9437354271013 25795.71467105113
821.8935156272255 25831.347618222462
822.8430578501484 25589.85076965967
823.7923621672016 25390.281623460643
824.7414286496896 25525.96280910512
825.6902573688876 25449.78193359188
826.6388483960363 25417.41555604362
827.5872018023492 25277.515160643736
828.5353176590033 25381.421959298186
829.4831960371503 25209.938683626493
830.4308370079016 25124.65803120748
831.3782406423525 25265.221444941228
832.3254070115545 25165.495460269027
833.2723361865319 24991.241777635256
834.2190282382799 25032.614260842525
835.1654832377644 25105.717289577347
836.1117012559116 25015.37306971023
837.0576823636256 25003.448886558606
838.003426631778 24937.924667446143
838.9489341312074 24752.324721665453
839.8942049327197 25071.208650948414
840.8392391070975 25032.750753744247
841.7840367250865 24917.615043401875
842.7285978573982 24825.919005822114
843.672922574724 25131.213241797348
844.6170109477152 24763.374713837125
845.560863046996 24847.184553983163
846.5044789431595 24779.415217178954
847.4478587067697 24758.853990174564
848.3910024083561 24887.593082513806
849.333910118421 24763.906103948117
850.2765819074339 24700.741518781157
851.2190178458332 24727.390944873965
852.161218004032 24749.50841549734
853.1031824524016 24769.59190952032
854.0449112612987 24714.768041917217
854.9864045010327 24804.651150691472
855.9276622418947 24615.733064472828
856.8686845541379 24714.62686024311
857.8094715079915 24622.49631906861
858.7500231736467 24905.524184595863
859.690339621271 24797.393928671987
860.6304209209939 24789.51790171301
861.5702671429244 24583.758807112335
862.5098783571284 24738.469525417622
863.4492546336569 24909.67781557636
864.3883960425155 24651.6757488183
865.3273026536863 24700.42931218375
866.2659745371238 24828.15529131357
867.2044117627465 25097.40438934234
868.1426144004472 24833.936035166433
869.0805825200823 24996.8125733124
870.0183161914847 25139.767790248392
870.9558154844526 25122.4048111084
871.8930804687552 25115.065989173825
872.8301112141307 25107.26078415179
873.7669077902865 25417.93115526246
874.7034702669062 25366.830540142633
875.6397987136315 25402.855085489242
876.5758932000863 25489.49073742093
877.5117537958522 25674.244412725515
878.4473805704911 25539.826242601303
879.3827735935283 25407.89028474066
880.3179329344603 25502.322236575234
881.2528586627541 25647.99538633117
882.1875508478479 25583.664769558025
883.1220095591489 25370.36888454961
884.0562348660296 25350.207621711284
884.9902268378391 25581.40978199988
885.9239855438955 25300.65189579941
886.8575110534839 25152.700802567786
887.7908034358588 25031.020218945403
888.7238627602474 25125.17695860374
889.6566890958475 24901.357032938533
890.5892825118208 24786.08906140165
891.5216430773125 24808.91087426368
892.4537708614189 24743.01777469094
893.3856659332196 24521.14978566117
894.3173283617652 24402.685458196895
895.2487582160684 24332.87250351313
896.179955565116 24338.64272551302
897.110920477864 24072.451452859354
898.0416530232451 24016.315651286543
898.9721532701478 24008.280136261128
899.9024212874428 24078.881801403862
900.8324571439662 23838.94802666404
901.7622609085302 23744.343328114875
902.6918326499072 23579.498442035616
903.6211724368477 23738.027313941395
904.5502803380696 23651.032743129013
905.4791564222614 23823.19672642014
906.4078007580792 23495.817965355738
907.3362134141571 23625.450097281115
908.2643944590909 23612.64950832943
909.1923439614493 23437.0674767578
910.1200619897754 23289.097613990554
911.0475486125779 23517.65596567958
911.9748038983344 23233.751189139166
912.9018279155007 23287.165473932615
913.8286207324982 23133.631665787816
914.7551824177117 23343.900648219427
915.6815130395116 23245.973127523357
916.6076126662283 23236.30631224778
917.533481366163 23201.145898385577
918.4591192075914 23215.199017998133
919.3845262587565 23372.747943901017
920.3097025878706 23139.52154590709
921.2346482631237 23109.96048903469
922.1593633526682 23150.037872456138
923.0838479246304 23171.268949836347
924.0081020471061 23278.72964437138
924.9321257881656 22979.26540425776
925.8559192158464 23054.768260974735
926.7794823981512 23040.2174486443
927.7028154030686 23036.716552120568
928.6259182985414 22831.166718087356
929.5487911524906 23065.278425590895
930.4714340328119 23020.235884315094
931.3938470073608 22915.888289889266
932.3160301439748 22924.007352980705
933.2379835104548 22979.06736914618
934.1597071745709 23001.534544947295
935.0812012040769 22936.367832326
936.002465666681 22900.832548155882
936.9235006300696 22962.576014949722
937.8443061619055 22733.09094012679
938.7648823298077 22707.059424848798
939.6852292013809 22654.688968151524
940.6053468441951 22907.532913345603
941.5252353257874 22657.98957363802
942.4448947136698 22797.647866255127
943.364325075323 22630.5986561483
944.2835264782043 22674.601436986657
945.2024989897309 22643.476731253395
946.1212426773054 22697.351272918047
947.0397576082851 22530.69037341572
947.9580438500125 22628.43043469426
948.8761014697939 22642.89201068485
949.7939305349064 22688.9231548967
950.7115311125999 22450.125663509993
951.6289032700952 22487.960767742286
952.5460470745875 22609.91273269952
953.4629625932339 22368.12500658934
954.3796498931715 22522.7330408903
955.2961090415029 22428.879564638886
956.2123401053068 22482.891579165833
957.1283431516276 22431.969537858487
958.0441182474842 22250.922947595198
958.9596654598663 22423.098555570134
959.8749848557309 22332.466425794253
960.7900765020167 22388.709569280756
961.7049404656209 22310.4943974783
962.6195768134185 22359.33990340717
963.5339856122537 22264.911288375602
964.4481669289453 22397.952516103273
965.3621208302793 22228.82881769038
966.2758473830145 22433.879396235025
967.1893466538822 22470.563847039193
968.1026187095813 22306.415209174018
969.0156636167867 22361.018850563272
969.9284814421426 22345.860551314625
970.8410722522622 22329.90224857673
971.753436113735 22252.917943167435
972.6655730931161 22154.975204417737
973.5774832569368 22372.123399011216
974.4891666716958 22268.089460162268
975.4006234038698 22214.4866850655
976.3118535198955 22069.38630585027
977.2228570861935 22355.870390581244
978.1336341691494 22302.754913014567
979.0441848351202 22143.48065465588
979.9545091504333 22256.22729027679
980.864607181391 22334.560399295377
981.7744789942699 22146.79218364352
982.6841246553086 22323.84285360574
983.5935442307236 22231.0309491415
984.5027377867027 22389.23053043644
985.4117053894024 22294.74037893976
986.3204471049557 22270.06138047677
987.2289629994648 22417.05768004951
988.1372531390007 22593.982674237686
989.0453175896091 22234.295222626886
989.9531564173067 22413.118007962446
990.860769688079 22261.430595018588
991.7681574678918 22605.653770520898
992.6753198226706 22385.1850852097
993.582256818323 22435.660367000288
994.4889685207218 22410.064355761213
995.3954549957143 22773.08998817125
996.301716309119 22554.017719899442
997.2077525267232 22597.110375491993
998.1135637142943 22528.728747030025
999.0191499375615 22770.437272586085
999.924511262232 22588.92322640415
1000.8296477539861 22739.662932669893
1001.7345594784656 22536.07616841805
1002.6392465012996 22729.20182433903
1003.5437088880753 22580.948564118033
1004.4479467043584 22561.07311866161
1005.3519600156869 22410.915551545833
1006.2557488875718 22623.874473333526
1007.1593133854858 22464.957393697954
1008.0626535748888 22532.04719667112
1008.9657695212009 22312.774784750683
1009.8686612898182 22597.702469274136
1010.7713289461135 22659.700501656494
1011.6737725554212 22510.87947738471
1012.5759921830577 22411.06067764007
1013.4779878943027 22546.29059731574
1014.379759754418 22319.60135346904
1015.2813078286254 22364.592559271427
1016.18263218213 22260.390737730297
1017.0837328801026 22392.04640979989
1017.9846099876886 22393.469969401638
1018.8852635700023 22150.03909763651
1019.7856936921362 22106.94805378057
1020.6859004191447 22238.546502280144
1021.5858838160675 22091.5163650769
1022.4856439479063 21941.568764441487
1023.3851808796389 22003.91934372094
1024.2844946762143 22156.541058898765
1025.183585402554 21921.798956879793
1026.082453123554 21699.883442047587
1026.9810979040776 21706.051466802066
1027.8795198089647 21716.315613406427
1028.777718903024 21719.260992494914
1029.6756952510368 21779.8516958505
1030.5734489177648 21569.756755410886
1031.4709799679313 21803.367720634335
1032.3682884662358 21797.889177253564
1033.2653744773506 21612.086010461404
1034.1622380659192 21519.3820111026
1035.058879296559 21681.457951798988
1035.9552982338591 21620.328254925866
1036.8514949423825 21713.716540991845
1037.7474694866614 21589.438970110477
1038.6432219312028 21661.299323722127
1039.5387523404825 21605.456460827438
1040.4340607789582 21617.31276766398
1041.3291473110476 21427.792014844334
1042.2240120011465 21743.820884849334
1043.1186549136273 21782.831222658795
1044.0130761128294 21622.286817270673
1044.9072756630649 21595.817554469475
1045.8012536286205 21837.73512734016
1046.6950100737577 21608.63701626675
1047.588545062701 21821.986917232156
1048.481858659663 21807.06688106379
1049.3749509288118 21932.97151376165
1050.2678219343034 21736.40170777939
1051.1604717402515 21759.07661916906
1052.0529004107575 21665.246389135085
1052.9451080098825 22028.596089458242
1053.8370946016694 21845.612868917222
1054.7288602501267 21968.989204156245
1055.6204050192446 21777.28867263392
1056.511728972977 22075.3931160891
1057.402832175254 21803.936397798265
1058.2937146899785 21851.77198357399
1059.1843765810263 21691.401179708842
1060.0748179122456 22128.162031760345
1060.9650387474576 21931.368242315206
1061.855039150456 22094.86534657889
1062.7448191850071 21981.041144373987
1063.6343789148505 21974.341966746517
1064.5237184037014 22038.29577783216
1065.412837715241 21842.838614274115
1066.3017369131267 21774.90580189557
1067.190416060992 21904.691297266287
1068.0788752224398 21807.707943663012
1068.9671144610438 21685.300077139087
1069.8551338403558 21836.56981654252
1070.7429334239023 22061.034242784823
1071.6305132751695 21675.10284718907
1072.517873457633 21719.594256794102
1073.4050140347335 21574.346682316696
1074.2919350698776 21652.239214955254
1075.1786366264623 21663.93174933833
1076.0651187678395 21679.86798598038
1076.95138155735 21528.406965228896
1077.8374250582929 21546.522014480175
1078.7232493339507 21498.243833162225
1079.608854447577 21521.860596690334
1080.4942404623907 21324.110162762154
1081.3794074415982 21434.701062887634
1082.2643554483657 21402.98020106194
1083.149084545841 21374.241892447266
1084.033594797138 21161.42945004401
1084.9178862653516 21329.871562108143
1085.8019590135427 21376.76465952358
1086.6858131047484 21168.517925136817
1087.5694486019802 21109.791464219506
1088.4528655682225 21273.021228614216
1089.3360640664287 21308.046917452848
1090.2190441595321 21215.077125315256
1091.1018059104317 21130.286464783887
1091.98434938201 21365.42146252625
1092.866674637111 21213.164578422402
1093.748781738559 21217.31197691516
1094.6306707491512 20971.007544547134
1095.5123417316554 21121.296617837917
1096.3937947488157 21045.618870077546
1097.2750298633455 21059.413477241316
1098.156047137938 20986.983051886396
1099.0368466352556 21206.129327072224
1099.9174284179317 21139.24875688619
1100.7977925485757 20993.390026398694
1101.6779390897755 20852.41167447258
1102.5578681040806 21157.486443882102
1103.4375796540226 21111.061476750667
1104.3170738021054 21166.65960363474
1105.1963506108077 21011.717904655532
1106.0754101425773 21094.68298597037
1106.9542524598382 21085.226835809353
1107.8328776249855 21148.87391657386
1108.7112857003904 21148.055287539228
1109.5894767483987 21134.43436888177
1110.4674508313292 21438.70042451488
1111.3452080114657 21206.204452816153
1112.2227483510815 21283.361118213237
1113.1000719124077 21532.69892289935
1113.9771787576592 21564.91296347166
1114.854068949022 21562.27762624582
1115.7307425486542 21634.934764577938
1116.6071996186893 21783.837264161823
1117.483440221229 22228.165849676807
1118.3594644183577 22038.317646897878
1119.235272272128 22017.595115654218
1120.1108638445658 22375.216660550206
1120.9862391976712 22640.477787452084
1121.8613983934229 22588.347098640366
1122.7363414937627 22535.95663501403
1123.6110685606182 22841.314590475
1124.485579655884 23038.95119701021
1125.359874841426 23023.57900409076
1126.2339541790916 22980.701262102128
1127.1078177306936 23255.742731978313
1127.9814655580267 23079.16554805956
1128.854897722851 23311.581982991334
1129.7281142869106 23224.074673596173
1130.6011153119125 23441.092907564678
1131.473900859548 23387.752913165146
1132.3464709914697 23257.959977381666
1133.2188257693178 23181.326011428155
1134.0909652546961 23052.275266443132
1134.96288950919 23055.64410178575
1135.8345985943506 23100.167510592222
1136.7060925717087 22800.307251896887
1137.57737150277 22989.482002450288
1138.4484354490069 22805.075108615853
1139.3192844718778 22620.990574278585
1140.1899186327992 22381.27486085829
1141.060337993178 22368.681543747123
1141.930542614382 22296.84689160738
1142.8005325577597 22272.005902001074
1143.670307884635 21876.061379818464
1144.5398686563003 22023.232470741037
1145.409214934025 21744.623558537605
1146.2783467790541 21532.20342081186
1147.1472642526023 21445.14599433211
1148.0159674158622 21659.37716045443
1148.8844563300026 21278.59496043474
1149.7527310561618 21286.43588796954
1150.6207916554504 21160.476723409905
1151.4886381889592 21151.882282044884
1152.3562707177498 21173.632670562056
1153.2236893028585 21115.228939842727
1154.090894005296 20938.490922990746
1154.9578848860474 21052.393380724254
1155.8246620060709 20930.50899074025
1156.6912254262988 20861.388167843907
1157.5575752076438 20751.789541293194
1158.42371141098 20945.790302179797
1159.2896340971656 20846.827988658457
1160.1553433270346 20906.30146212593
1161.0208391613887 20764.403754072417
1161.8861216610057 20890.226461333477
1162.75119088664 20979.13153740718
1163.6160468990201 20796.440768489407
1164.4806897588442 20583.303214349402
1165.3451195267917 20875.32326360093
1166.2093362635114 20792.57140500661
1167.0733400296285 20759.03951073558
1167.9371308857444 20581.656016332134
1168.8007088924278 20618.08684454439
1169.6640741102328 20712.07133422203
1170.5272265996773 20656.622357499178
1171.390166421259 20372.272240528815
1172.252893635452 20798.491189959528
1173.1154083026995 20871.728509517467
1173.977710483421 20816.27719878727
1174.8398002380145 20542.814143484422
1175.7016776268483 20687.70794610389
1176.563342710264 20632.673748410692
1177.4247955485826 20501.04292927887
1178.2860362020947 20638.290064152767
1179.147064731069 20640.660021485048
1180.0078811957483 20480.366921583915
1180.8684856563486 20456.354176938225
1181.7288781730604 20697.67674355603
1182.589058806052 20747.06980362742
1183.4490276154593 20979.712408610358
1184.3087846614017 20744.231136040205
1185.1683300039676 20787.868191899466
1186.027663703222 21085.876669650803
1186.8867858192025 20962.370877523976
1187.7456964119228 20870.873018350012
1188.6043955413716 20988.304590033546
1189.4628832675116 21152.355560672404
1190.3211596502842 21145.70068021529
1191.179224749596 21237.593605753682
1192.0370786253388 21071.47370058991
1192.8947213373758 21285.08601423793
1193.7521529455407 21656.400593668128
1194.6093735096438 21251.791544421263
1195.466383089477 21351.031783778868
1196.3231817447977 21596.524525934445
1197.1797695353398 21684.69210574043
1198.0361465208189 21480.076040695025
1198.8923127609214 21420.588592767017
1199.7482683153048 21517.664855376694
1200.6040132436028 21656.17339770437
1201.459547605431 21454.47170315701
1202.3148714603722 21424.28278199058
1203.1699848679855 21600.651198456988
1204.0248878878065 21408.972781148044
1204.8795805793507 21435.683605352697
1205.7340630020935 21466.28050865437
1206.5883352155033 21573.72888554225
1207.4423972790064 21353.589582068067
1208.2962492520237 21314.23097933211
1209.1498911939307 21346.490667973212
1210.0033231640937 21256.485031572745
1210.8565452218427 21116.609085744098
1211.7095574264913 21070.504234419124
1212.5623598373222 20830.511713948563
1213.4149525135963 20938.38034078094
1214.2673355145507 20886.580630387056
1215.1195088993936 20826.953984622716
1215.9714727273113 20801.686847021185
1216.8232270574663 20828.474431081642
1217.6747719489904 20609.050490795482
1218.5261074609934 20646.22230575356
1219.3772336525653 20558.38585502376
1220.2281505827668 20748.948966686956
1221.0788583106296 20709.860464025052
1221.9293568951707 20510.957054112383
1222.7796463953746 20407.332985277233
1223.629726870202 20655.368163477135
1224.4795983785934 20643.085314321965
1225.3292609794553 20494.46018121749
1226.1787147316809 20488.644121979167
1227.0279596941327 20548.732142030793
1227.8769959256424 20528.359277384603
1228.7258234850306 20630.205923055557
1229.5744424310833 20296.720790474905
1230.422852822563 20709.008798859468
1231.2710547182105 20533.862527026016
1232.119048176739 20423.080478726275
1232.9668332568417 20271.654935466875
1233.8144100171812 20553.00324374637
1234.6617785163999 20466.189833432574
1235.508938813111 20406.78815465127
1236.3558909659114 20330.486623910805
1237.2026350333617 20567.40386676704
1238.049171074008 20370.888202735536
1238.8954991463652 20360.502163683635
1239.741619308932 20226.429544598665
1240.587531620169 20652.538679214274
1241.4332361385277 20384.876167189115
1242.2787329224248 20170.623992375717
1243.1240220302534 20141.892446838116
1243.9691035203869 20265.40279148401
1244.813977451171 20278.837372062375
1245.6586438809263 20472.211078086424
1246.5031028679496 20095.731844532773
1247.3473544705157 20352.787550893823
1248.1913987468706 20355.634222924775
1249.0352357552383 20133.203071389642
1249.8788655538228 20119.42336754586
1250.7222882007918 20275.762173043964
1251.565503754302 20232.42910074353
1252.4085122724755 20150.428454510708
1253.2513138134182 20308.642242633112
1254.0939084352049 20280.19989734718
1254.9362961958905 20216.316830909702
1255.7784771535007 20151.296280360846
1256.6204513660432 20084.341981751706
1257.4622188915 20289.933351595522
1258.3037797878242 20186.93491883559
1259.1451341129468 20025.521860689332
1259.9862819247755 20185.94434793479
1260.8272232811978 20182.638323758227
1261.6679582400666 20328.555266999796
1262.5084868592203 20067.320027274312
1263.34880919647 19996.441959212025
1264.1889253095997 20021.62496790273
1265.0288352563712 20073.5376655157
1265.8685390945266 19992.677481414354
1266.7080368817751 20016.225561844545
1267.5473286758115 20196.94894041884
1268.386414534294 20178.737048941202
1269.2252945148703 19708.561461987996
1270.0639686751547 19847.748296450394
1270.9024370727402 19870.572905362158
1271.7406997651997 19909.02266717668
1272.5787568100714 19889.074124532905
1273.4166082648808 19810.57874196692
1274.2542541871244 20023.182094742973
1275.091694634275 20019.664032346234
1275.9289296637817 19760.26627394445
1276.7659593330663 19918.06529490521
1277.6027836995308 19847.710464363652
1278.4394028205552 19870.024015260213
1279.2758167534867 19840.74331116868
1280.112025555658 19854.072015375412
1280.9480292843746 19944.297302072784
1281.7838279969128 19782.888497459942
1282.6194217505326 19808.327203059416
1283.4548106024686 19598.769721988247
1284.289994609926 19785.906606633675
1285.1249738300921 20001.411648385816
1285.959748320127 19774.041344445814
1286.7943181371702 19720.960377057036
1287.6286833383328 19874.886544017154
1288.4628439807038 19832.487105117252
1289.2968001213521 19579.795325738967
1290.1305518173194 19752.086392963298
1290.9640991256183 20002.468368178364
1291.7974421032523 19621.1347509501
1292.630580807183 19768.963342082356
1293.463515294361 19869.563458654327
1294.29624562171 19970.196949902776
1295.12877184613 19889.48917727335
1295.961094024493 19869.30085842015
1296.79321221365 19849.028558184284
1297.6251264704333 20009.231589613588
1298.4568368516466 20117.71398663838
1299.2883434140658 19952.989825723304
1300.1196462144526 19711.647145799245
1300.9507453095375 20029.93568807108
1301.7816407560313 19864.536187666083
1302.6123326106172 19868.521252373954
1303.4428209299622 19827.271124256247
1304.2731057707024 20108.30473394731
1305.1031871894502 19871.039853999617
1305.933065242798 19910.679896196256
1306.7627399873181 20034.51875868375
1307.5922114795467 20377.290970319005
1308.4214797760123 20071.501163067816
1309.2505449332057 19941.494307366436
1310.0794070076026 20047.44182414672
1310.9080660556538 20183.113502253713
1311.736522133786 20046.206290280224
1312.5647752983987 19935.70549964541
1313.3928256058734 19922.71891650108
1314.2206731125661 20196.885450511047
1315.048317874809 20119.226863470984
1315.8757599489109 19932.649562800994
1316.7029993911547 20038.92734010687
1317.5300362578055 20337.34680675428
1318.356870605101 19957.98829790085
1319.183502489257 20128.435165343144
1320.0099319664623 20229.208098545198
1320.836159092889 20173.748159022765
1321.66218392468 20197.84278723108
1322.4880065179532 20019.22745759845
1323.3136269288134 20113.98373808911
1324.1390452133292 20303.38942066605
1324.9642614275563 20138.370892679373
1325.7892756275214 20237.77918725095
1326.6140878692295 20048.155551984808
1327.4386982086617 20487.553815046365
1328.2631067017755 20189.264875564244
1329.0873134045069 20163.3755606501
1329.911318372764 19858.193664885323
1330.735121662441 20098.525956548205
1331.558723329399 20011.597951200783
1332.3821234294774 19984.240813665656
1333.2053220185007 19962.539135496572
1334.0283191522612 20004.197446593575
1334.851114886529 20082.92227452911
1335.6737092770582 19762.437709654372
1336.4961023795695 19912.70271710447
1337.3182942497697 19812.277944086927
1338.1402849433325 19960.305044903034
1338.962074515921 19693.542467252446
1339.7836630231632 19657.20503447913
1340.6050505206676 20206.04020083772
1341.426237064028 19900.629561879752
1342.2472227088037 19921.798369552584
1343.0680075105338 19473.09305928193
1343.888591524741 19761.919767413085
1344.7089748069138 19799.505242956824
1345.5291574125276 19575.43735173053
1346.3491393970307 19431.86916846344
1347.168920815846 19807.488890048866
1347.9885017243778 19685.45433113632
1348.8078821780036 19485.56708950227
1349.6270622320844 19438.52985007868
1350.4460419419447 19618.644481506857
1351.2648213629054 19474.839393192622
1352.0834005502438 19241.648167839547
1352.90177955923 19363.535910082337
1353.7199584451064 19768.837370278176
1354.5379372630887 19375.392935096104
1355.355716068374 19307.640678163116
1356.1732949161305 19296.9498594872
1356.9906738615155 19327.21119971394
1357.8078529596478 19413.233591725817
1358.6248322656375 19216.741568951737
1359.441611834567 19155.38087402709
1360.2581917214866 19514.854848730603
1361.0745719814367 19027.47180946359
1361.890752669433 19104.274750313685
1362.7067338404577 19054.907619686175
1363.5225155494845 19384.961768448953
1364.3380978514506 19241.734239880177
1365.1534808012839 18884.0544223874
1365.9686644538815 18857.534258559084
1366.783648864117 19222.926243251324
1367.5984340868417 19111.868037449876
1368.413020176893 19141.66742164709
1369.2274071890715 18630.394948047207
1370.0415951781652 19089.76994713228
1370.8555841989346 18891.899395587752
1371.6693743061223 18841.39975581493
1372.48296555444 18709.29181497501
1373.2963579985844 19141.09895263737
1374.1095516932255 18921.578536953763
1374.9225466930166 18876.108611796768
1375.7353430525782 18733.667133512346
1376.5479408265164 18747.103214142673
1377.36034006941 18942.837200172078
1378.1725408358216 18810.86420910054
1378.9845431802805 18692.166775529975
1379.796347157304 19045.196312315144
1380.6079528213813 18888.47967488313
1381.4193602269788 18586.38112902295
1382.230569428546 18562.558677031746
1383.0415804805016 19128.586290408544
1383.852393437246 18814.140275321908
1384.6630083531563 18808.598908165288
1385.4734252825892 18582.643608570666
1386.2836442798798 18778.721264650776
1387.0936653993322 18638.0196747198
1387.9034886952395 18533.406960397297
1388.713114221864 18672.137210568188
1389.5225420334482 18759.508353692967
1390.331772184214 18518.416090016985
1391.1408047283585 18332.355678335738
1391.9496397200564 18256.37835647633
1392.758277213461 18691.10129280777
1393.5667172627054 18480.75736399362
1394.3749599218918 18182.939266222333
1395.1830052451114 18094.713818924636
1395.9908532864265 18248.8360002896
1396.7985040998774 18459.647345388013
1397.6059577394808 18127.05127313908
1398.4132142592352 18143.312221732675
1399.2202737131156 18088.003782232572
1400.027136155073 18037.24069490248
1400.8338016390353 17994.131593102407
1401.6402702189134 17787.80405187002
1402.446541948586 18043.61809840026
1403.2526168819204 17796.909776099445
1404.058495072757 17881.880921835334
1404.8641765749107 17629.941352506357
1405.6696614421799 17827.291030982182
1406.4749497283356 17901.33658454507
1407.280041487129 17696.995254049914
1408.084936772295 17306.037957731896
1408.8896356375335 17692.677961061785
1409.6941381365323 17620.77241778226
1410.498444322955 17228.4436283483
1411.3025542504402 17244.498525279138
1412.106467972606 17510.586629260877
1412.9101855430508 17435.536741525826
1413.7137070153458 17172.114655497142
1414.5170324430437 17094.1707162608
1415.320161879672 17271.924599387963
1416.1230953787435 17428.570356234213
1416.925832993742 17064.51297421198
1417.7283747781275 16833.811262002968
1418.5307207853439 17172.65574962949
1419.3328710688093 17010.66584243411
1420.134825681922 16886.87580162919
1420.9365846780584 16920.926000400523
1421.7381481105713 17202.246700926706
1422.539516032788 17030.410388500535
1423.3406884980232 16841.267724788486
1424.1416655595604 16649.502593184858
1424.942447270665 16987.894894761917
1425.7430336845828 16755.24944555922
1426.5434248545298 16708.809845083964
1427.3436208337116 16728.973172526297
1428.143621675301 16858.544919169457
1428.9434274324558 16849.86691229864
1429.7430381583108 16402.1201553139
1430.5424539059713 16460.408408891464
1431.3416747285337 17216.350047830787
1432.1407006790632 16690.404045503703
1432.9395318106053 16629.582534674664
1433.7381681761835 16363.834124123507
1434.5366098288014 16549.670115626643
1435.3348568214424 16672.07632194102
1436.1329092070573 16401.21041812711
1436.9307670385879 16424.345320430613
1437.7284303689503 16600.36421924056
1438.5258992510335 16768.960917219694
1439.3231737377118 16486.592751172207
1440.1202538818306 16438.36833755268
1440.9171397362225 16439.657051767757
1441.7138313536925 16535.45163929905
1442.5103287870243 16299.426824758437
1443.3066320889775 16286.631481343826
1444.1027413122956 16484.388765646483
1444.8986565096966 16362.87805285541
1445.694377733882 16412.182849257337
1446.4899050375207 16144.346717517803
1447.2852384732687 16279.034330740653
1448.0803780937622 16540.610024515325
1448.8753239516063 16244.917917403984
1449.6700760993954 16139.04733216867
1450.464634589689 16171.817186278518
1451.2589994750397 16485.987062921962
1452.0531708079689 16173.627540759615
1452.8471486409799 16067.142893036382
1453.6409330265524 16323.483341125431
1454.4345240171442 16068.090832377575
1455.2279216651987 16201.400379993971
1456.0211260231263 16146.356445780277
1456.8141371433194 16330.563398295915
1457.6069550781594 16369.212323521939
1458.3995798799897 15994.683473807221
1459.1920116011424 15928.45431264843
1459.98425029393 16070.024016875483
1460.7762960106338 16075.612414927455
1461.5681488035225 15968.105233745297
1462.3598087248392 15936.88716511672
1463.1512758268036 16100.439426766306
1463.942550161617 15915.449407845314
1464.7336317814625 15864.839897291196
1465.524520738496 15933.22231999095
1466.3152170848552 15959.088166602343
1467.1057208726506 16043.940670493437
1467.8960321539817 15797.074466715945
1468.6861509809169 15750.031808047119
1469.4760774055085 15882.50272856816
1470.265811479785 16040.026579384275
1471.055353255755 15753.914433189548
1471.844702785409 15732.120176538001
1472.6338601207044 15838.748157808372
1473.4228253135934 16352.030777829816
1474.2115984159936 15760.00474990538
1475.0001794798063 15505.612842131985
1475.7885685569145 15936.82313394573
1476.576765699172 15921.719295831059
1477.3647709584238 15624.905782987791
1478.1525843864802 15913.050942921498
1478.9402060351367 15949.228578679904
1479.7276359561693 16013.443689608253
1480.514874201328 15638.287122504713
1481.3019208223468 15591.475198170734
1482.0887758709323 15723.825525171927
1482.8754393987747 15892.760873503013
1483.6619114575406 15543.368913882961
1484.4481920988783 15844.868853912008
1485.2342813744108 16034.088162087379
1486.0201793357446 16072.356270229411
1486.8058860344572 15660.672434900422
1487.591401522117 15687.224960970201
1488.3767258502594 15885.663787957421
1489.1618590704056 15968.729780610873
1489.9468012340494 15763.185834442023
1490.7315523926754 15882.540652548769
1491.5161125977356 16021.481769865926
1492.3004819006637 15763.684739191662
1493.084660352877 15763.218375713604
1493.8686480057622 15861.462561697404
1494.6524449106964 16025.242742263526
1495.4360511190262 16112.087549825097
1496.219466682087 15710.502705662147
1497.0026916511779 15776.916006474732
1497.7857260775945 15748.326155097904
1498.5685700125996 15743.59337750883
1499.3512235074395 15744.9002485024
1500.133686613337 15570.229185458351
1500.9159593814966 15773.221711722372
1501.698041863101 16114.257300148403
1502.4799341093094 15535.323309347525
1503.2616361712662 15542.495804919416
1504.043148100087 15830.767287553934
1504.8244699468742 15689.141469168037
1505.6056017626997 15530.800663748078
1506.3865435986281 15556.849456191649
1507.1672955056893 15724.805233455045
1507.9478575348967 15572.184464084112
1508.7282297372512 15703.378339255734
1509.5084121637192 15373.78914824119
1510.2884048652577 15523.636766034391
1511.0682078927948 15541.915808461254
1511.8478212972423 15468.14216881827
1512.6272451294917 15253.433047797585
1513.4064794404076 15654.031725295583
1514.1855242808433 15500.057173368263
1514.9643797016215 15518.996504006314
1515.743045753552 15510.980952286005
1516.5215224874191 15554.994910070784
1517.2998099539836 15302.09576411847
1518.077908203999 15145.673023284815
1518.8558172881785 15396.716736541386
1519.633537257234 15547.327878693482
1520.4110681618404 15276.115006135175
1521.1884100526604 15540.148281034508
1521.9655629803365 15351.967880219174
1522.7425269954856 15673.057291704932
1523.5193021487103 15672.444243929387
1524.2958884905856 15375.62771906918
1525.0722860716687 15334.32151249765
1525.848494942502 15450.998931040216
1526.624515153595 15393.799476367363
1527.4003467554485 15478.2973703464
1528.175989798534 15470.582716388719
1528.9514443333064 15442.415750439806
1529.726710410203 15604.26590824227
1530.5017880796331 15252.990502057004
1531.276677391992 15256.670495287228
1532.0513783976457 15480.293504133122
1532.825891146953 15326.647564771833
1533.6002156902414 15460.929042237836
1534.3743520778207 15464.820830443428
1535.1483003599806 15487.954880231418
1535.9220605869923 15376.64208057397
1536.6956328091019 15406.396997299682
1537.4690170765407 15388.159441546139
1538.242213439511 15381.3563780506
1539.015221948208 15285.265441534697
1539.78804265279 15357.699847872214
1540.560675603405 15170.430315608994
1541.3331208501804 15544.651094534353
1542.1053784432224 15471.62835419554
1542.8774484326168 15428.19020483963
1543.649330868422 15157.17633764322
1544.4210258006842 15469.452616801305
1545.1925332794308 15398.65905152084
1545.9638533546604 15269.927216241349
1546.7349860763552 15195.873685967657
1547.5059314944829 15624.02090034157
1548.27668965898 15293.547086881643
1549.0472606197673 15372.858548643944
1549.817644426752 15151.849731619663
1550.5878411298072 15360.467607040564
1551.3578507787988 15306.329727330554
1552.1276734235635 15231.789973339764
1552.8973091139233 15285.547194258825
1553.6667578996767 15414.454677189191
1554.436019830604 15335.317408612016
1555.20509495646 15371.275624249585
1555.9739833269869 15076.016954311679
1556.7426849919011 15089.305230380909
1557.511200000903 15486.370928783863
1558.2795284036674 15093.024139812784
1559.0476702498509 15181.579343759082
1559.8156255890954 15430.661333134227
1560.5833944710157 15410.845506938776
1561.3509769452048 15081.449820771604
1562.1183730612447 15105.649168407981
1562.8855828686865 15163.047711546238
1563.6526064170703 15379.664064527044
1564.4194437559127 15217.081642651767
1565.1860949347047 14954.44520786763
1565.9525600029283 15405.511756652273
1566.7188390100328 15142.812017895067
1567.4849320054564 15050.42206845764
1568.250839038612 14969.73390568496
1569.0165601588997 15010.433547127614
1569.7820954156887 15076.555795235588
1570.5474448583373 14877.302614895321
1571.31260853618 14815.423970054026
1572.0775864985299 14849.794197547479
1572.8423787946813 14966.824332545908
1573.6069854739108 14841.238062467493
1574.371406585471 14867.466273742077
1575.1356421785986 14982.323698097814
1575.899692302506 14815.429609437982
1576.6635570063845 14817.29859690944
1577.4272363394157 14767.378754943009
1578.190730350747 14960.757661476426
1578.9540390895163 14741.20652740706
1579.7171626048384 14469.200551703503
1580.480100945806 14480.474793169755
1581.2428541614918 14699.333009045027
1582.0054223009538 14675.26439628772
1582.767805413223 14694.956433964844
1583.5300035473156 14501.320778404644
1584.292016752228 14722.042618494428
1585.0538450769309 14600.080587138791
1585.8154885703807 14439.720784746769
1586.5769472815136 14353.84776099736
1587.3382212592405 14558.485420460362
1588.099310552463 14644.330554573404
1588.8602152100484 14151.725728354004
1589.6209352808564 14464.985389057774
1590.3814708137234 14456.796749203952
1591.14182185746 13952.112702621429
1591.9019884608679 14506.674210006877
1592.6619706727215 14199.975469835885
1593.4217685417734 14330.213340603272
1594.1813821167616 14499.997146375561
1594.9408114464022 14190.947256875996
1595.7000565793933 14332.939274280036
1596.459117564409 14465.229514335782
1597.2179944501113 14134.572169512505
1597.9766872851324 14324.372515482997
1598.735196118092 14147.769825156789
1599.4935209975883 14436.578819725142
1600.2516619721973 14397.25587743166
1601.0096190904787 14236.460779317675
1601.7673924009723 14108.898559398735
1602.524981952196 14157.799975720085
1603.2823877926476 13913.68800850712
1604.0396099708087 14021.878689953472
1604.7966485351371 13825.044492859237
1605.5535035340745 13953.848563904354
1606.3101750160404 14200.314507792928
1607.0666630294363 13888.779086246519
1607.822967622642 13718.740070002623
1608.5790888440224 14128.719420458914
1609.3350267419137 14009.71783301207
1610.0907813646445 13758.033200200083
1610.8463527605145 13655.162184857278
1611.601740977805 13901.620720439925
1612.356946064785 13732.012588235728
1613.1119680696902 13665.384288884146
1613.8668070407512 13457.474036234455
1614.6214630261748 13704.718987086915
1615.375936074137 13665.239824105141
1616.1302262328118 13744.935167997799
1616.8843335503425 13657.235518801088
1617.638258074854 13691.806389188845
1618.391999854457 13406.562245597077
1619.1455589372363 13549.66744049938
1619.8989353712623 13557.196509095043
1620.65212920458 13377.92968011121
1621.4051404852235 13336.711612142899
1622.1579692611976 13458.152721767232
1622.9106155804966 13071.974304585296
1623.663079491087 13357.01732366611
1624.4153610409248 13292.655183127858
1625.1674602779385 13272.897834495909
1625.9193772500403 12988.201108757483
1626.6711120051277 13493.307499304388
1627.4226645910676 13161.385120477538
1628.174035055721 12867.32865260958
1628.9252234469168 13102.457192511958
1629.676229812474 13014.957515556274
1630.4270542001905 13533.991592036651
1631.1776966578382 12992.130369100474
1631.9281572331747 12907.681764134413
1632.678435973945 13093.89338131043
1633.4285329278573 12970.045407638663
1634.1784481426203 12838.184571567019
1634.9281816659113 12890.771181400763
1635.677733545388 13254.955738034401
1636.4271038286934 12820.57575061365
1637.176292563452 12939.658993448846
1637.9252997972635 12895.50884321968
1638.674125577716 13086.030917574202
1639.4227699523672 13138.82053202982
1640.171232968767 12604.318307508624
1640.9195146744423 12947.21367481241
1641.6676151168977 12971.927749885657
1642.4155343436178 13014.538088867344
1643.1632724020765 12948.735383769292
1643.9108293397167 12813.926765132359
1644.658205203974 12812.525552667863
1645.4054000422566 13302.666748382288
1646.1524139019566 12737.63276559669
1646.8992468304423 12594.340976110234
1647.6458988750728 12726.822233264076
1648.3923700831765 12798.217243780653
1649.1386605020743 12640.357454547962
1649.8847701790564 12851.752762233253
1650.6306991614038 12741.599505632337
1651.3764474963682 12759.126371471273
1652.1220152311944 12495.784393259224
1652.867402413096 12626.582770490571
1653.6126090892776 12626.308184836344
1654.3576353069184 12774.321486437253
1655.1024811131829 12404.97617037121
1655.8471465552066 12469.620264171444
1656.5916316801213 12650.66460079314
1657.3359365350298 12428.36755328475
1658.0800611670165 12505.337481236438
1658.824005623148 12363.133591706903
1659.5677699504722 12079.072966003358
1660.3113541960192 12261.529583237661
1661.054758406799 12206.548893452939
1661.7979826297997 12179.960382851277
1662.5410269119966 11944.521521758328
1663.283891300338 12326.620030508173
1664.0265758417645 11873.603809198581
1664.7690805831826 11782.601798460852
1665.5114055714948 12165.879595768181
1666.2535508535748 12361.518736359658
1666.9955164762814 11675.2206521155
1667.7373024864555 11636.290156136836
1668.478908930916 11882.344921734097
1669.220335856462 11573.259185541374
1669.9615833098778 11396.065731500954
1670.7026513379296 11361.303645031567
1671.44353998736 11658.161214834114
1672.1842493048916 11626.923617657627
1672.9247793372379 11302.857728578976
1673.6651301310812 11491.35129749101
1674.4053017330934 11272.194091268564
1675.1452941899242 11525.704203865982
1675.885107548207 11177.864158327873
1676.6247418545518 11079.169802110398
1677.3641971555535 11214.27796167468
1678.1034734977893 11164.54394218748
1678.8425709278108 11082.288466178308
1679.5814894921605 11144.23283343895
1680.320229237359 11104.154509441101
1681.0587902098978 11097.266176493453
1681.7971724562685 11066.967037020784
1682.5353760229264 11013.318849782903
1683.2734009563173 11007.130656172802
1684.0112473028657 10804.726167997449
1684.7489151089794 10893.194558576239
1685.4864044210462 10986.404375170268
1686.2237152854377 10658.104270326055
1686.960847748498 10874.610119928346
1687.6978018565642 10615.650102334628
1688.434577655944 10401.694319011662
1689.1711751929379 10622.907161172338
1689.9075945138156 10687.895241861854
1690.6438356648396 10548.771376737957
1691.3798986922448 10214.937517931725
1692.1157836422499 10587.579572550228
1692.851490561059 10375.150851774628
1693.587019494853 10394.856828955897
1694.3223704897991 10221.240862417017
1695.0575435920364 10258.395133691138
1695.792538847696 10753.647319472466
1696.527356302886 10276.679198709899
1697.2619960036936 10225.992980551428
1697.9964579961907 10350.172619845955
1698.730742326432 9944.985033627343
1699.4648490404488 9948.072036642498
1700.1987781842563 10062.702496884489
1700.9325298038548 10311.065963842133
1701.6661039452174 10204.266816849451
1702.3995006543082 9906.8896798697
1703.1327199770658 10091.93432103504
1703.865761959416 9893.434089588472
1704.598626647261 10227.53803499173
1705.3313140864866 9771.575912668915
1706.0638243229587 9927.306974031313
1706.7961574025303 10171.955598311935
1707.528313371029 9980.10242997609
1708.260292274268 9673.801544072601
1708.9920941580403 9757.356767002291
1709.7237190681226 9837.36204247332
1710.4551670502697 9840.570109854192
1711.18643815022 9568.582629499655
1711.9175324136959 9891.039738590753
1712.6484498863938 9787.83025999077
1713.379190614005 9659.057144455157
1714.109754642188 9676.286269669301
1714.8401420165883 9419.439265926674
1715.570352782839 9780.680384453157
1716.3003869865497 9735.133926957127
1717.0302446733076 9490.051982479094
1717.7599258886876 9508.328363623154
1718.4894306782444 9801.789212339867
1719.2187590875183 9400.238786452112
1719.9479111620203 9518.869448195033
1720.6768869472544 9421.461963986889
1721.4056864887025 9738.779182489448
1722.1343098318284 9605.566663696194
1722.8627570220742 9442.910900674695
1723.591028104871 9373.712547672792
1724.3191231256242 9394.263919736772
1725.0470421297232 9393.255592760614
1725.7747851625427 9511.96109644476
1726.5023522694337 9297.260984508295
1727.2297434957363 9445.500851686293
1727.9569588867635 9411.794276688352
1728.6839984878152 9546.936227569504
1729.4108623441734 9168.086317142393
1730.1375505011038 9552.952335296792
1730.8640630038426 9307.217221420044
1731.5903998976264 9224.238203861312
1732.316561227657 9309.592294518983
1733.0425470391274 9101.209379345239
1733.7683573772065 9310.164937437832
1734.4939922870508 9290.254728333593
1735.2194518137949 9176.465280524746
1735.9447360025606 9198.215647243218
1736.669844898439 9124.045827690328
1737.3947785465189 9074.96087164098
1738.1195369918605 8938.68331618355
1738.8441202795093 9088.824176131811
1739.5685284544943 9056.443116419694
1740.292761561821 9148.974488971138
1741.0168196464838 9232.760910605624
1741.7407027534518 9127.942510505269
1742.464410927687 9198.641705543592
1743.187944214118 9024.162591135702
1743.9113026576688 8919.034848617808
1744.634486303241 9082.499098095444
1745.3574951957125 8903.878884485526
1746.0803293799509 8960.296280976665
1746.8029889008048 8915.603067501566
1747.5254738031017 9379.367629356228
1748.2477841316504 8857.656085892198
1748.969919931249 9001.792382304735
1749.6918812466665 8935.786283804118
1750.4136681226646 9255.277799595558
1751.1352806039777 8977.956745757905
1751.856718735331 8762.401068203162
1752.5779825614281 8940.511235521477
1753.2990721269507 8927.258706625847
1754.0199874765676 9166.30518237082
1754.7407286549314 8874.981827067219
1755.4612957066693 8801.77687068503
1756.1816886763954 8819.006440720335
1756.9019076087097 8850.895240438043
1757.6219525481865 8981.918790830989
1758.3418235393856 8862.374562711162
1759.061520626854 9137.379964299318
1759.7810438551096 9051.628869781021
1760.5003932686614 8695.115754092061
1761.2195689119999 9036.278367673958
1761.938570829594 8724.497474870592
1762.657399065898 8778.743407746257
1763.376053665348 8796.733546246895
1764.0945346723602 8609.49486438198
1764.812842131334 8915.891212166043
1765.5309760866512 8626.575749823043
1766.2489365826787 8765.184166605799
1766.9667236637597 8852.411285354301
1767.684337374223 8484.596268946827
1768.401777758383 8681.522307751833
1769.1190448605284 8678.212776028398
1769.836138724937 8550.799400639919
1770.5530593958665 8852.333723724494
1771.2698069175603 8830.625573950474
1771.9863813342326 8813.47539836794
1772.702782690094 8779.946450349667
1773.4190110293293 8593.64072862066
1774.1350663961111 8878.188405518533
1774.8509488345844 8603.92606963513
1775.5666583888924 8483.477825737815
1776.2821951031437 8813.882342692876
1776.9975590214362 8707.168528762992
1777.7127501878585 8874.867862343546
1778.4277686464684 8532.250345853372
1779.1426144413108 8743.36630897477
1779.8572876164162 8634.556457448145
1780.571788215797 8485.15137091721
1781.2861162834415 8569.707931697303
1782.0002718633277 8447.92871008621
1782.7142549994132 8494.957259963994
1783.4280657356376 8525.651396065547
1784.141704115922 8292.095609993925
1784.855170184177 8528.227744225625
1785.5684639842839 8421.599254277027
1786.2815855601148 8420.382398635384
1786.9945349555237 8547.752043006707
1787.707312214343 8421.365627471401
1788.4199173803918 8628.41501134291
1789.132350497468 8363.692629513806
1789.8446116093583 8399.628306654882
1790.556700759822 8599.616246276319
1791.2686179926077 8158.386907948605
1791.9803633514493 8496.71008559338
1792.6919368800554 8286.846390776827
1793.4033386221236 8635.594325197997
1794.1145686213295 8441.383118196205
1794.8256269213307 8551.781042652412
1795.536513565774 8333.065322146354
1796.247228598284 8197.49036882865
1796.9577720624693 8313.52111037596
1797.6681440019165 8254.679347524883
1798.3783444602013 8336.096584714445
1799.0883734808776 8358.877314741983
1799.7982311074884 8424.901205141448
1800.5079173835475 8232.422655091741
1801.2174323525633 8454.219364941498
1801.9267760580187 8153.103380604041
1802.635948543386 8329.667095885965
1803.3449498521113 8204.348429111102
1804.0537800276325 8394.783357494907
1804.7624391133668 8115.142767935249
1805.47092715271 8126.8654565386605
1806.1792441890484 8118.068915544951
1806.8873902657433 8358.351582336436
1807.5953654261448 8135.113021767592
1808.3031697135812 8128.503167812024
1809.0108031713662 7991.335763059008
1809.71826584279 8119.184697902661
1810.425557771141 8218.600587512632
1811.1326789996747 8635.067857512793
1811.839629571632 8305.608691638572
1812.5464095302468 8195.498816514853
1813.2530189187182 8282.641350443962
1813.959457780249 8218.563062364998
1814.6657261580076 8231.978625393855
1815.371824095153 8157.747636425101
1816.0777516348262 8354.3805169857
1816.78350882015 7999.6399177963685
1817.4890956942272 7939.284699478277
1818.1945123001533 7999.636440408727
1818.8997586809928 8074.440772149974
1819.6048348798067 7985.132731592801
1820.3097409396287 8120.245167333172
1821.0144769034796 8315.596610932518
1821.7190428143622 8034.918146903292
1822.423438715261 8300.021204947561
1823.1276646491478 8176.8843335633455
1823.8317206589727 7892.83098954148
1824.5356067876692 8154.4527572687075
1825.2393230781581 8168.084427321302
1825.942869573335 7915.1455754746585
1826.646246316086 7858.835727267613
1827.3494533492758 8093.52823069657
1828.052490715756 8132.484216880397
1828.7553584583547 8037.037688654558
1829.458056619891 8071.378512385086
1830.1605852431585 7923.349697160079
1830.8629443709433 7718.288125289588
1831.5651340460063 7831.929416745408
1832.2671543110919 7995.843521607809
1832.9690052089318 8056.669302818363
1833.6706867822395 7902.9696450016345
1834.3721990737104 8104.526765161558
1835.0735421260233 8004.855060338751
1835.774715981841 8118.757642416689
1836.4757206838058 8280.462167266049
1837.1765562745459 7623.538123853384
1837.8772227966747 7700.212702979942
1838.5777202927839 8102.213867025972
1839.2780488054523 7904.3465798559455
1839.9782083772352 7827.355788905812
1840.6781990506806 7993.876878731559
1841.378020868313 7726.809314224372
1842.0776738726418 7823.81218038055
1842.777158106157 7663.657025969607
1843.4764736113375 7518.686124518628
1844.1756204306403 7935.080686288407
1844.8745986065078 7831.415662531355
1845.5734081813607 7505.287483852919
1846.2720491976124 7639.761982664189
1846.970521697649 7804.041941825283
1847.6688257238511 7747.0758110896495
1848.3669613185684 7713.651358245906
1849.0649285241452 7744.0503195264055
1849.7627273829057 7810.1837497690085
1850.460357937156 7949.549312260979
1851.1578202291857 7626.646917196864
1851.8551143012664 7798.0507691677
1852.5522401956569 7911.608954743073
1853.2491979545957 7877.868747641628
1853.9459876203055 7629.447456812273
1854.6426092349902 7573.408136157904
1855.3390628408451 7652.827207770977
1856.0353484800362 7950.497037834624
1856.7314661947203 7793.2421184400855
1857.4274160270397 7665.369465970938
1858.123198019115 7520.1133314327
1858.8188122130487 7580.595979637951
1859.5142586509319 7589.153439958391
1860.209537374838 7671.344395771723
1860.9046484268183 7555.7962392893705
1861.599591848917 7939.1358061540695
1862.294367683151 7795.62540841584
1862.988975971528 7454.411423342868
1863.6834167560355 7683.3381135097325
1864.3776900786452 7603.458193224273
1865.0717959813119 7466.827817350789
1865.7657345059724 7576.834084874399
1866.4595056945564 7501.342171817458
1867.1531095889586 7772.651231100017
1867.846546231076 7529.93577086842
1868.5398156627743 7778.600600640444
1869.2329179259123 7508.67272814434
1869.9258530623283 7853.337045387174
1870.618621113843 7534.614341592419
1871.3112221222636 7360.817913003508
1872.0036561293764 7637.077243603565
1872.695923176956 7729.883085784233
1873.3880233067594 7622.199436582943
1874.0799565605212 7327.766010716463
1874.7717229799673 7501.665918531049
1875.4633226068036 7571.062420379489
1876.1547554827175 7563.950052362864
1876.8460216493859 7457.077162175045
1877.5371211484617 7469.341824894282
1878.2280540215852 7694.7356672814185
1878.9188203103804 7267.080826813028
1879.6094200564548 7558.035779831048
1880.299853301396 7520.411566062148
1880.9901200867826 7582.894790191324
1881.6802204541673 7424.292899074726
1882.3701544450942 7465.266762097713
1883.059922101087 7423.4873922410015
1883.7495234636517 7765.932981945344
1884.4389585742792 7485.4116280824
1885.1282274744517 7361.2335829139
1885.8173302056166 7824.434642646268
1886.506266809225 7380.867380130971
1887.195037326701 7237.674749276877
1887.8836417994517 7449.116283013071
1888.5720802688702 7638.678678286904
1889.260352776333 7446.631337363366
1889.9484593632042 7442.516522025144
1890.63640007082 7339.9794199465805
1891.3241749405151 7419.481094873586
1892.0117840135954 7343.928037360425
1892.6992273313572 7334.781339814443
1893.3865049350788 7335.458296739173
1894.0736168660223 7685.131574683679
1894.7605631654333 7330.848598917439
1895.4473438745408 7169.446654821802
1896.133959034556 7578.292021037069
1896.820408686679 7380.00306870912
1897.506692872088 7584.826132053614
1898.192811631945 7345.254976225735
1898.8787650073991 7308.877138591165
1899.5645530395832 7393.900798785432
1900.2501757696118 7416.977698699104
1900.9356332385796 7190.607131470055
1901.620925487574 7589.057181306549
1902.3060525576602 7418.964904959541
1902.9910144898859 7393.48627681907
1903.6758113252872 7124.7320606303065
1904.3604431048789 7271.652977380426
1905.0449098696663 7315.198046149109
1905.7292116606295 7248.515022464024
1906.4133485187394 7340.546809680309
1907.0973204849488 6988.3569084401925
1907.7811276001976 7284.105896135089
1908.4647699053967 7309.059150434334
1909.1482474414588 7156.778396355192
1909.8315602492694 7062.598408113797
1910.5147083696957 7304.092692678345
1911.1976918436012 7218.267765951704
1911.880510711815 7190.833069363313
1912.5631650151681 7373.016958500506
1913.2456547944657 7166.368925429217
1913.927980090495 7170.5115443724335
1914.6101409440362 7100.8380552429135
1915.2921373958416 7286.026127869693
1915.9739694866603 7100.998509227416
1916.655637257214 7384.732901017832
1917.3371407482136 7058.0479964955975
1918.0184800003572 7419.049655038383
1918.6996550543154 7182.500702849169
1919.3806659507554 7347.88879482314
1920.0615127303208 7270.852119625402
1920.7421954336423 7318.734063624906
1921.4227141013343 7307.847965757734
1922.103068773993 7108.09359170446
1922.783259492202 7337.050694525255
1923.4632862965227 7185.8403983140015
1924.1431492275078 6960.290342742423
1924.8228483256917 6966.8703951431435
1925.5023836315922 7149.139878024738
1926.1817551857057 6833.55080113169
1926.8609630285227 7350.045016172773
1927.5400072005123 7166.515163408345
1928.218887742125 7017.664856153251
1928.8976046938005 6688.198300392891
1929.5761580959588 7135.828921055841
1930.2545479890086 7111.802394468415
1930.9327744133352 6974.36323187291
1931.6108374093164 7034.362397524708
1932.2887370173066 7318.7021720964985
1932.9664732776473 6706.659475141224
1933.6440462306673 6942.706005408392
1934.3214559166754 6828.341674545069
1934.9987023759659 7181.872873173854
1935.675785648813 7035.909994006538
1936.3527057754836 6879.200500151387
1937.029462796223 7225.286865610171
1937.70605675126 7024.031424779534
1938.3824876808085 6914.784495184353
1939.058755625072 6878.770930598204
1939.7348606242267 6896.174906231708
1940.4108027184448 6902.216102385448
1941.0865819478713 7151.93484445826
1941.7621983526478 6793.739140688922
1942.4376519728921 6739.224401025434
1943.1129428487038 6729.535460493185
1943.7880710201734 6946.208702812706
1944.4630365273733 6930.608515118018
1945.1378394103576 6667.524823081645
1945.8124797091714 7225.035148783563
1946.4869574638324 6553.535053497752
1947.161272714353 6832.764030019932
1947.8354255007234 6909.558880312339
1948.5094158629272 6828.8279657594585
1949.1832438409183 6937.503867859823
1949.8569094746435 6913.704371094262
1950.530412804037 6979.971011838536
1951.2037538690092 6926.056719919422
1951.8769327094578 6813.70296545229
1952.5499493652678 6732.070188147567
1953.222803876306 7031.223206377658
1953.895496282421 6852.682961056455
1954.5680266234522 6881.930700077271
1955.2403949392155 6819.313224448553
1955.9126012695142 6470.67741804421
1956.5846456541403 6800.697814386268
1957.2565281328643 6649.847868355758
1957.9282487454457 6782.363134682954
1958.5998075316202 7054.193841071722
1959.27120453112 6816.899827866195
1959.9424397836501 6725.3695891156995
1960.613513328908 6969.96101862351
1961.2844252065697 7050.10046533274
1961.9551754563017 6730.6285627354355
1962.6257641177453 6583.287693716938
1963.29619123054 6549.45131553534
1963.966456834296 6628.356737272885
1964.6365609686181 6391.157509657032
1965.306503673086 6901.91534464629
1965.976284987275 6666.16644035567
1966.645904950734 6599.548183549075
1967.315363603002 6512.909820877892
1967.9846609836077 6469.305313916683
1968.6537971320486 6779.715310607436
1969.3227720878222 6621.025690718758
1969.9915858904042 6491.743300678221
1970.660238579252 6788.358387253649
1971.3287301938108 6593.358727363472
1971.997060773514 6469.032525119794
1972.665230357772 6691.696584879974
1973.3332389859843 6319.285066396884
1974.0010866975335 6636.654384410617
1974.6687735317864 6683.093638115803
1975.3362995280932 6774.286483935129
1976.003664725793 6822.610733951502
1976.6708691642052 6286.836954155626
1977.3379128826364 6665.238342232272
1978.004795920373 6866.461645174968
1978.6715183166925 7016.837292464802
1979.3380801108524 6345.003610270136
1980.0044813420973 6518.356081616929
1980.6707220496555 6360.946631621051
1981.3368022727373 6574.352508347317
1982.0027220505417 6758.647123158308
1982.66848142225 6414.522480051899
1983.3340804270283 6286.482544704174
1983.999519104027 6743.868564899091
1984.6647974923835 6613.226444288188
1985.329915631215 6816.739410508332
1985.99487355963 6532.8001978876155
1986.6596713167146 6659.646659191986
1987.3243089415428 6442.954867153496
1987.9887864731754 6746.9222410948005
1988.6531039506553 6258.235100058848
1989.3172614130071 6648.343722535597
1989.9812588992481 6621.791459973213
1990.645096448372 6242.241898304757
1991.3087740993633 6474.716877597277
1991.9722918911848 6422.910842570707
1992.635649862792 6463.397774989646
1993.2988480531185 6559.938884600565
1993.9618865010852 6694.495171686065
1994.6247652455968 6224.228286930602
1995.287484325545 6275.812463794006
1995.9500437798033 6465.482322016286
1996.6124436472292 6164.780774781795
1997.2746839666706 6663.853178528583
1997.936764776954 6468.279914124946
1998.598686116895 6437.122652515074
1999.2604480252903 6571.922884791706
1999.9220505409212 6500.3507770370625
2000.5834937025593 6240.108122343598
2001.2447775489582 6353.51394455891
2001.9059021188514 6484.148892700741
2002.5668674509616 6314.420928364635
2003.2276735839987 6404.935334412995
2003.8883205566508 6611.8644783506215
2004.5488084075987 6261.937885062409
2005.2091371755014 6338.610913483957
2005.8693068990033 6147.673567522828
2006.5293176167397 6385.629012364777
2007.1891693673224 6282.526193134725
2007.848862189354 6138.295280851975
2008.5083961214223 6341.200499805574
2009.1677712020955 6195.635000817336
2009.8269874699254 6027.232330747693
2010.4860449634598 6549.898095603126
2011.1449437212177 6028.4182545050535
2011.8036837817108 6362.956950597841
2012.4622651834325 6595.144319214143
2013.1206879648653 6517.974076288581
2013.7789521644736 6600.325985334208
2014.4370578207036 6086.745208159111
2015.0950049719922 6211.830514066622
2015.7527936567585 6382.487628955904
2016.4104239134067 6223.882727322951
2017.067895780323 6590.31106413329
2017.725209295886 5932.224444041598
2018.3823644984514 6619.2712206875385
2019.0393614263648 6198.117296553279
2019.6962001179545 5970.376744726751
2020.3528806115355 6458.772351594818
2021.0094029454067 6051.615814482797
2021.6657671578487 6187.0360009385895
2022.321973287133 6181.876678034746
2022.9780213715148 6046.3156730334795
2023.6339114492293 6123.075447619429
2024.2896435585026 5982.346764816556
2024.9452177375442 6221.335831094227
2025.600634024544 6474.324751726213
2026.2558924576842 6126.895476412914
2026.9109930751292 6394.871402639984
2027.565935915025 5938.91590604391
2028.2207210155066 6373.458193259898
2028.8753484146964 6449.468417899171
2029.529818150695 6061.575929277063
2030.1841302615903 6190.114568584729
2030.8382847854573 6089.132637673469
2031.4922817603601 6015.647876990624
2032.1461212243357 6165.784248858893
2032.7998032154192 6026.012401656519
2033.4533277716218 5965.315170946287
2034.1066949309443 5937.891213649432
2034.7599047313688 6070.43819472733
2035.4129572108704 6386.6152186450945
2036.0658524074006 6271.386839366121
2036.7185903589016 6021.583637112107
2037.3711711032956 6157.7356257666825
2038.023594678496 5917.0069281785
2038.675861122394 6015.694918975978
2039.3279704728757 6343.110196225609
2039.9799227678031 5858.832807250242
2040.6317180450278 5938.264104545541
2041.2833563423865 6074.712692777796
2041.9348376977014 6111.384981757658
2042.5861621487784 6204.671382304662
2043.2373297334088 6247.589784734301
2043.8883404893695 6150.587272199763
2044.5391944544208 6294.034071705002
2045.1898916663158 6253.78169874412
2045.8404321627804 6329.21326230709
2046.4908159815368 5969.80592433578
2047.1410431602853 6139.309834934842
2047.7911137367173 5858.015106979616
2048.441027748504 6224.298568724701
2049.090785233302 5879.393739875544
2049.7403862287592 5919.062412227693
2050.389830772503 6427.091572165878
2051.0391189021466 5881.938020082192
2051.688250655294 6118.893084085412
2052.337226069527 5726.643772163052
2052.986045182417 6210.020443393708
2053.634708031521 5729.2809543339645
2054.283214654375 6206.394449211508
2054.931565088511 5799.969480365432
2055.579759371436 5739.532103163435
2056.2277975406523 6047.167553846527
2056.8756796336384 6124.002389919999
2057.5234056878617 5821.017531569942
2058.1709757407752 5760.326029419159
2058.8183898298194 6090.678905627434
2059.465647992416 6106.7169437610755
2060.1127502659747 6078.104134967411
2060.759696687888 5738.784106954162
2061.4064872955405 6157.61998720778
2062.053122126292 6122.289687624511
2062.699601217497 5561.271772360866
2063.345924606485 5949.515663611768
2063.992092330587 5881.1828747022055
2064.638104427102 5813.0567432286825
2065.283960933324 6140.107709241842
2065.92966188653 6194.928305251221
2066.5752073239855 6064.638190786989
2067.2205972829397 5820.600890242799
2067.86583180062 5950.545967547599
2068.5109109142522 5795.097448473045
2069.15583466104 5228.639686623754
2069.8006030781708 5955.37147577683
2070.445216202821 5967.234457179626
2071.089674072153 6249.2068152636075
2071.7339767233116 6012.561947725393
2072.3781241934303 5969.7041152496695
2073.0221165196253 6122.121698042121
2073.6659537390024 5842.064373783744
2074.3096358886505 6234.977539165796
2074.953163005637 5624.7052862152295
2075.596535127028 5612.193811730222
2076.2397522898664 5526.492122949058
2076.882814531182 5888.614041837333
2077.5257218879924 5858.008606068919
2078.1684743973 5706.881332465743
2078.8110720960885 5597.943163778035
2079.453515021336 6062.959514255259
2080.095803209997 5842.350195514593
2080.7379366990135 5806.4028146904375
2081.37991552532 5670.191513278308
2082.0217397258275 5915.856206397718
2082.6634093374414 5618.360956727634
2083.3049243970418 5861.107974097047
2083.9462849415067 5796.737682797941
2084.587491007689 5758.121545972463
2085.2285426324324 6011.984376937554
2085.869439852564 5738.547569929598
2086.510182704902 5444.00433015931
2087.1507712262483 5812.212019187027
2087.791205453381 5466.160065508687
2088.4314854230743 5915.941235160997
2089.0716111720867 5685.227054185091
2089.7115827371617 5462.3145545299285
2090.351400155023 6364.37265808104
2090.991063462385 5556.958653003505
2091.6305726959527 5603.123630933958
2092.2699278924047 6113.624817897495
2092.9091290884153 5442.102155442775
2093.548176320641 5563.674503980991
2094.187069625721 5829.412557655497
2094.8258090402887 5430.705718110754
2095.464394600951 5821.129578901902
2096.102826344313 5578.789478796285
2096.741104306955 5971.463902315298
2097.379228525453 5353.65356248603
2098.017199036358 5405.525145005465
2098.6550158762147 5913.579327028285
2099.2926790815527 5671.085605216936
2099.9301886888825 5725.6283020104975
2100.5675447347076 5696.255565511679
2101.2047472555114 6098.831202723017
2101.841796287761 5803.152434873128
2102.47869186792 5595.834491472291
2103.1154340324265 5538.945075206949
2103.752022817709 5629.384249216912
2104.388458260184 5627.233076756993
2105.024740396251 5620.372914993766
2105.660869262292 5564.66871329662
2106.296844894685 5901.799918628916
2106.93266732978 5732.954346245235
2107.5683366039284 5289.752114956537
2108.2038527534532 5551.466779907937
2108.8392158146726 5799.537530327516
2109.4744258238843 5451.240837194131
2110.1094828173755 5690.374057853046
2110.744386831422 6008.51134341841
2111.3791379022787 5634.078103370887
2112.01373606619 5849.268222418157
2112.648181359389 5575.2426013171325
2113.28247381809 5572.828262160243
2113.916613478492 5515.641007477649
2114.550600376786 5523.5802158944525
2115.1844345491445 5743.900435136486
2115.818116031729 5459.477793432349
2116.451644860679 5513.911874573461
2117.085021072133 5297.517362464244
2117.718244702204 5496.544638953392
2118.3513157869984 5665.126646714352
2118.984234362604 5423.012651470262
2119.617000465092 5669.637804726429
2120.249614130529 5776.94874980319
2120.8820753949585 5465.380135243786
2121.5143842944162 5494.409460227449
2122.14654086492 5388.839564932067
2122.7785451424734 5786.109060297936
2123.4103971630702 5264.841664394714
2124.042096962681 5721.978411493909
2124.6736445772767 5426.128201154556
2125.305040042802 5470.5583431564855
2125.936283395191 5576.919642876555
2126.567374670365 5585.467412408497
2127.198313904233 5289.825868139062
2127.8291011326855 5828.042578342748
2128.4597363916037 5288.471307280145
2129.0902197168507 5554.185952896203
2129.720551144279 5312.169655454106
2130.3507307097225 5873.747226300213
2130.980758449008 5816.46710244311
2131.6106343979427 5086.852812484007
2132.2403585923203 5791.8335660110115
2132.8699310679276 5696.14701863972
2133.499351860526 5500.381156171423
2134.1286210058715 5563.013451743532
2134.7577385397053 5155.933764811479
2135.3867044977487 5543.9798539071735
2136.0155189157176 5667.550361958425
2136.644181829308 5637.6397003488855
2137.2726932742025 5260.924436689989
2137.901053286074 5765.533319872152
2138.5292619005777 5287.180572777878
2139.1573191533535 5475.234857230198
2139.7852250800315 5546.8108655093665
2140.4129797162295 5441.1699544469975
2141.0405830975433 5291.330322849501
2141.6680352595613 5606.552404129393
2142.2953362378576 5215.642883114501
2142.9224860679915 5484.767178832239
2143.549484785508 5320.676056537616
2144.1763324259373 5515.728287050232
2144.803029024799 5404.374347974421
2145.429574617594 5262.110103565135
2146.0559692398165 5605.352437233435
2146.682212926942 5213.24786184209
2147.308305714432 5234.526535632795
2147.9342476377333 5637.060078124348
2148.5600387322847 5612.357625508781
2149.185679033506 5563.547464906436
2149.8111685768017 5472.969320942825
2150.4365073975678 5239.941249679362
2151.061695531187 5378.482691680125
2151.686733013021 5603.382369668355
2152.311619878423 5297.132186780878
2152.9363561627342 5437.072445375389
2153.560941901278 5127.3231213332565
2154.1853771293663 5507.831147186476
2154.809661882293 5432.653955249395
2155.433796195348 5455.542853293022
2156.0577801037944 5350.54307285028
2156.681613642895 5549.613103635832
2157.3052968478896 5246.891838452777
2157.928829754006 5139.450666287298
2158.552212396462 5404.092596076709
2159.1754448104566 5373.157416317432
2159.7985270311783 4939.40770018878
2160.4214590938027 5042.014556585782
2161.0442410334927 4765.892539860753
2161.6668728853874 5223.27556401468
2162.289354684628 5106.465680617325
2162.911686466332 5254.747900938899
2163.533868265602 5465.36470095596
2164.1559001175337 5625.601398609097
2164.7777820572046 5433.036584481182
2165.399514119681 5181.559330149418
2166.021096340013 4758.138269337246
2166.6425287532384 5640.87838989048
2167.263811394385 5175.91189204388
2167.8849442984574 5426.944660014212
2168.505927500455 5115.742801826133
2169.126761035366 5284.810858843035
2169.7474449381552 5134.578234238775
2170.367979243778 5142.693789257044
2170.9883639871823 5386.954682924243
2171.608599203293 5120.106374963235
2172.2286849270276 5861.722369949152
2172.8486211932886 5670.8208463466535
2173.4684080369625 5159.014413259533
2174.0880454929265 5059.9757617506075
2174.7075335960417 4928.897750094112
2175.3268723811543 5280.239296653277
2175.9460618831 5182.294950441332
2176.565102136701 4967.533065628091
2177.1839931767627 5681.715674624117
2177.802735038078 5188.057369523456
2178.421327755432 4884.772064186038
2179.0397713635866 5059.128762670748
2179.658065897298 4639.8218236456405
2180.276211391305 4743.06935733517
2180.8942078803357 4879.7680966555
2181.5120553991 5084.884594203836
2182.129753982299 4905.503541388329
2182.7473036646206 5141.888139478944
2183.3647044807367 5012.043659955247
2183.9819564653044 5043.550777392027
2184.599059652968 5289.509579840671
2185.216014078367 5250.183219998676
2185.832819776113 4770.3860606669805
2186.4494767808137 5332.951725159173
2187.065985127063 5097.753031448667
2187.682344849436 4950.997047057909
2188.298555982501 5287.630247050971
2188.9146185608097 5258.0778722820805
2189.530532618901 5152.289530201275
2190.1462981912937 4926.726605599361
2190.761915312507 5217.929113933289
2191.377384017036 5180.330088600798
2191.9927043393654 5088.385374869575
2192.6078763139667 4654.038921059311
2193.2228999753006 5525.874404111506
2193.837775357808 4899.939253736193
2194.452502495922 4825.574440980563
2195.0670814240602 4883.909425327664
2195.6815121766285 5021.848458119716
2196.2957947880186 5634.956463538674
2196.9099292926057 4794.289640677021
2197.523915724758 5105.931240058111
2198.137754118825 5083.815532763732
2198.7514445091456 5293.416791806603
2199.3649869300443 4919.997104445467
2199.9783814158327 5262.951207790086
2200.5916280008096 5566.787792615996
2201.2047267192593 5119.4496254669475
2201.8176776054515 5109.265027466093
2202.430480693649 5013.027470559957
2203.0431360180955 4880.465811722431
2203.6556436130195 5298.958805691742
2204.268003512645 4823.791545885015
2204.8802157511727 5203.257704720521
2205.492280362796 5160.445418688878
2206.1041973816937 5016.832051484253
2206.715966842032 4945.683735984646
2207.3275887779655 4865.654342456085
2207.93906322363 4856.626302111839
2208.550390213153 5197.372856153445
2209.1615697806465 5008.187795335603
2209.7726019602105 4411.734446912199
2210.3834867859277 4705.502863210529
2210.9942242918787 4785.784316941368
2211.6048145121167 4844.493370228489
2212.2152574806914 5570.081550215111
2212.825553231638 4919.27237792985
2213.435701798975 5563.897145809297
2214.045703216707 4718.016777738455
2214.655557518832 4497.708551280901
2215.2652647393297 4681.773088342552
2215.874824912169 4571.683902100667
2216.4842380713 4848.353020812294
2217.09350425067 4751.9207277683745
2217.7026234842033 4850.541202629636
2218.311595805819 5188.9401453587125
2218.9204212494133 4896.775805731962
2219.52909984888 5266.884754221212
2220.137631638092 4546.95944120364
2220.7460166509154 4995.590524689705
2221.354254921198 4951.621397735671
2221.9623464827764 5108.369325183288
2222.5702913694713 4906.245614684021
2223.178089615096 5007.146653022785
2223.7857412534486 4672.161651504053
2224.39324631831 4718.262423436557
2225.000604843457 4686.472360178354
2225.607816862641 5221.547452392698
2226.214882409611 5071.202701606899
2226.8218015180973 4979.540480313156
2227.4285742218217 4738.401209761623
2228.0352005544864 4858.43951284418
2228.6416805497847 4636.686395829074
2229.248014241399 5034.604215491456
2229.8542016629945 4566.201282789766
2230.460242848223 4919.6453299838195
2231.0661378307304 5225.753712684742
2231.671886644139 4864.487256978317
2232.277489322065 4466.551626486507
2232.8829458981127 4338.571261923038
2233.48825640587 4796.693744485981
2234.0934208789095 5355.884546795535
2234.6984393507955 5162.829289468703
2235.3033118550793 5178.08560306416
2235.9080384252975 4863.872850676274
2236.5126190949723 4609.222028384995
2237.1170538976166 4642.124564755975
2237.721342866729 4375.41137718719
2238.32548603579 4717.036296753014
2238.9294834382763 4643.225232785678
2239.533335107646 4705.543337596712
2240.1370410773434 4905.796712043592
2240.740601380803 4711.447527938039
2241.3440160514474 4600.583088447862
2241.9472851226783 4877.804012798291
2242.550408627896 4692.010375619413
2243.1533866004793 4915.434446928855
2243.756219073799 4719.200591413975
2244.3589060812064 4596.455090948324
2244.961447656049 4442.557537518235
2245.5638438316564 4788.075211651155
2246.166094641343 4913.922427674123
2246.7682001184166 4581.049784345645
2247.3701602961664 4619.6735368691725
2247.971975207871 4765.213844813059
2248.5736448867974 4980.753724916396
2249.175169366197 4719.273200465661
2249.7765486793123 4711.4942318672
2250.3777828593684 4692.9569715149755
2250.9788719395783 4902.089647708597
2251.579815953146 4768.244180660754
2252.1806149332606 4392.260711250458
2252.781268913097 4674.175504022232
2253.381777925817 4222.798693318877
2253.9821420045737 4842.784953849019
2254.5823611825035 4998.393513203611
2255.1824354927303 4753.140408187027
2255.782364968365 5439.389920573363
2256.38214964251 4374.489615098456
2256.9817895482483 4526.242851337559
2257.5812847186553 4675.37817757439
2258.180635186791 4324.596387245691
2258.779840985704 4737.264786838522
2259.37890214843 4619.491456513108
2259.97781870799 5342.135334252147
2260.5765906973957 4817.724700169983
2261.175218149645 4307.442993980158
2261.773701097718 5117.777577228894
2262.3720395745895 4331.533960954892
2262.970233613216 4211.020808928244
2263.568283246548 4459.591797641001
2264.1661885075137 4518.956118639426
2264.763949429038 4402.374327424817
2265.3615660440246 4695.239383848724
2265.959038385374 4335.618731397882
2266.5563664859637 4628.984254429929
2267.153550378669 4349.714136702829
2267.7505900963424 4607.530148247465
2268.3474856718312 4537.082001941947
2268.9442371379664 4479.001955593728
2269.5408445275643 4358.453394763514
2270.1373078734377 4583.118424015642
2270.7336272083758 4500.813531563281
2271.32980256516 4545.390792563836
2271.925833976562 4582.28082160726
2272.5217214753357 4938.295515003187
2273.117465094223 4408.69435416677
2273.7130648659586 4463.757704723376
2274.308520823257 4586.617225545959
2274.903832998827 4896.0962488581645
2275.4990014253563 4384.286705500875
2276.094026135528 4690.955946379745
2276.6889071620117 4149.936121678956
2277.2836445374614 4753.461427481989
2277.878238294519 4662.954420711004
2278.472688465812 5338.652077129697
2279.066995083962 4290.3110174040685
2279.6611581815705 4293.446120692095
2280.255177791232 4085.586540224558
2280.8490539455233 4918.279453681971
2281.442786677013 4771.68353787317
2282.0363760182554 4713.846849880987
2282.6298220017943 4422.585541196096
2283.223124660155 4689.2096450800145
2283.816284025859 4301.0577639394705
2284.4093001314086 4871.744954719377
2285.002173009292 3973.1326246032454
2285.5949026919952 4510.401703962238
2286.1874892119777 4374.469818105678
2286.7799326016993 4619.552997728935
2287.3722328936 4094.761493441063
2287.964390120109 4108.224687290885
2288.556404313642 4379.655484186142
2289.1482755066027 4999.576291530994
2289.7400037313873 4345.89424456602
2290.3315890203703 4417.182599483522
2290.9230314059205 4036.8162331089507
2291.5143309203904 4338.968224339578
2292.1054875961236 4293.708383154815
2292.6965014654506 4796.651302936017
2293.287372560684 4262.368215559171
2293.878100914131 5071.529513166199
2294.468686558086 4336.614364800467
2295.059129524827 4307.99453467958
2295.649429846617 4610.484688034399
2296.239587555716 4717.42845897328
2296.8296026843636 4621.694561296426
2297.419475264791 4979.122780141486
2298.0092053292137 4566.356329864839
2298.598792909839 4474.17919881478
2299.1882380388597 4458.418510897409
2299.777540748455 5044.820544707913
2300.3667010707904 4514.130215993553
2300.9557190380256 4428.536066890282
2301.544594682302 5060.188925662197
2302.1333280357503 4041.4233739473434
2302.721919130485 4675.162545800291
2303.3103679986198 4822.7197604030025
2303.898674672242 4584.75897968915
2304.486839183437 4079.659078056884
2305.0748615642697 4657.338161862366
2305.6627418468015 4263.639831721065
2306.2504800630704 4413.760571399721
2306.8380762451143 4147.114026885877
2307.425530424949 3703.403667018463
2308.012842634582 4227.952919159837
2308.6000129060103 4816.950130184231
2309.187041271214 5132.743993453527
2309.773927762164 4294.54616495118
2310.3606724108213 4581.359629938586
2310.9472752491274 4136.926536774942
2311.5337363090184 4522.38889835124
2312.120055622414 4356.4008053739
2312.706233221221 3954.355272624277
2313.2922691373424 4105.080255756808
2313.8781634026564 4897.571105314092
2314.463916049037 4092.115573285499
2315.049527108342 4437.43372138186
2315.6349966124235 4636.953381701446
2316.2203245931123 4561.575863428356
2316.8055110822315 3987.5426623186368
2317.3905561115935 4246.428219757745
2317.9754597129977 3794.6798181215163
2318.560221918229 4608.608986027306
2319.1448427590603 4090.0697968596796
2319.729322267256 3978.746552451978
2320.313660474563 4490.487356965055
2320.8978574127195 5153.523885121476
2321.481913113452 4200.809517192668
2322.0658276084705 3929.6955331458316
2322.6496009294806 4431.47533174844
2323.233233108165 4625.174334223289
2323.8167241762058 4353.549845618176
2324.4000741652617 4351.112727511826
2324.983283106987 4719.635083977473
2325.5663510330232 4617.679022291877
2326.1492779749933 4075.4714260489027
2326.7320639645204 4200.752657802021
2327.3147090332004 3954.6079482600226
2327.897213212629 4855.537603620707
2328.4795765343843 4183.028498983829
2329.0617990300307 3884.746270475006
2329.643880731124 4457.147650012756
2330.22582166921 4429.711630589585
2330.807621875816 4312.787086094429
2331.3892813824623 4104.505105046204
2331.9708002206517 4009.8482245931896
2332.5521784218818 4499.509019122146
2333.133416017634 4269.5278378949915
2333.7145130393765 4238.298444096338
2334.295469518571 4266.721129345053
2334.876285486658 4489.691378856929
2335.456960975076 3828.756859123201
2336.037496015242 4409.1299633506305
2336.6178906385667 4080.4755773908846
2337.198144876451 4460.463135621185
2337.778258760278 3988.8374865662327
2338.3582323214214 3773.695004573704
2338.938065591243 4390.117938935649
2339.517758601087 4438.0643111418985
2340.0973113822965 4365.319768993202
2340.676723966193 4002.4775600569947
2341.255996384094 4234.498714787094
2341.835128667295 4415.109150456755
2342.4141208470883 4213.701235000468
2342.992972954751 4017.094234034614
2343.5716850215467 4402.578582666587
2344.1502570787306 3490.5993093851575
2344.7286891575386 3907.2778549302775
2345.3069812892045 4738.22828952814
2345.885133504944 4397.490278654981
2346.4631458359618 3937.5122428327413
2347.04101831345 4089.9640704483704
2347.6187509685915 4545.809321433071
2348.196343832553 3896.1165403156347
2348.7737969364935 3788.513273298612
2349.351110311558 4009.225557093689
2349.9282839888765 4078.282042827
2350.5053179995757 4075.909306983979
2351.0822123747585 3972.2175466985077
2351.658967145526 4665.638118636782
2352.2355823429643 3943.8304925973657
2352.812057998144 4361.64194815711
2353.3883941421263 4098.901663058634
2353.9645908059647 4430.1698823068555
2354.540648020693 4371.516893780858
2355.116565817336 3969.2085299696205
2355.6923442269126 4164.1203024284005
2356.2679832804224 3995.6146704251964
2356.8434830088518 3998.1330946615863
2357.41884344318 4191.635695464616
2357.994064614377 3921.1856779139644
