#exp_cfg={"servo_angle": 0.0, "laser_lim": 100.0, "servo_angle_to": 18.0, "laser_wup": 0.0, "bt_dev": "EnSpectr-25AE3", "laser_wdn_max": 0.0, "frames": 10.0, "servo_used": 0, "servo_calib_use": 0, "laser_wdn_min": 0.0, "servo_pix_from": 90.0, "cooler_tout": 300.0, "servo_angle_from": 0.0, "servo_calib": "[-1.9174921013161362e-09, 3.9322238269163779e-05, -0.27385609119055809, 653.59552119713567]", "laser_autoctl": 0, "servo_pix_to": 3682.0, "laser_pw": 100.0, "cooler_on": 0, "laser_volt": 4.0, "cooler_autoctl": 0, "cooler_curr": 70.0, "cooler_startup": 10.0, "laser_fixed_pw": 0, "gain": 1.3, "offset": 2.53059635486, "servo_calib_degree": 3.0, "laser_curr": 55.0, "shutter": 8200.0, "servo_calib_step": 1.0, "laser_fixed_curr": 0, "exp": 2000.0, "ccd_volt": 4.7, "bt_addr": "00:06:66:62:5A:E3", "servo_delay": 500.0, "laser_autooff": 1}
#proc_cfg={"flat_auto_wnd": 200.0, "flat_auto_fr": 200.0, "flat_auto_shift": 5.0, "yconv": 1, "flatten": 1, "flatten_strength": 100.0, "xfrom": 300.0, "auto_max_frame": 2000.0, "auto_signal": 48000.0, "flat_auto_tol": 0.1, "autoclip": 1, "xrel_range": 0.0, "flat_auto_to": 4000.0, "intensity_adj": 1.0, "xrel": 7852.0, "rmhot": 1, "flat_auto_slit": 4.999999999999997, "auto_ini_exp": 300.0, "auto_off": 0, "xto": 2860.0, "flat_auto_ref": "", "flat_auto_rank": 1, "autobackg": 0, "xrel_adj": 0.0, "auto_black_lvl": 1, "base_wnd": 100.0, "sub_baseline": 0, "xconv": 2, "auto_max_exp": 1000.0, "auto_total_exp": 10000.0, "auto_exp": 0, "rmripple": 0, "black_lvl": 8291.125, "shutter_clip_adj": 0.0, "auto_bckg": 0, "flat_auto_thr": 0.9, "subbackg": 1}
316.8218498245369 11861.321548636943
317.89969571804795 11719.516970429057
318.977263876126 11667.051680410954
320.05455438786703 11529.442037053474
321.1315673423287 11550.737239294573
322.2083028285215 11644.942057061522
323.2847609354267 11516.608404294737
324.3609417519747 11503.732939546411
325.43684536705587 11457.286559036402
326.5124718695279 11344.419233324703
327.58782134820103 11453.272584078888
328.66289389184385 11396.169344164879
329.7376895891921 11216.278326461328
330.8122085289342 11212.883920916833
331.88645079971866 11238.516251099767
332.9604164901575 11148.817435399631
334.03410568881554 11197.016038390397
335.1075184842266 11368.041818249156
336.18065496487543 11224.51517735826
337.2535152192122 11240.856130635344
338.32609933564163 11173.236617481893
339.39840740253203 11062.669011401862
340.4704395082099 11007.079984293956
341.5421957409617 11072.797388018733
342.6136761890357 11130.848572752939
343.6848809406365 11047.197551228808
344.75581008392874 10993.093464189773
345.82646370703696 10998.469437878139
346.8968418980512 10908.686263192027
347.96694474501055 10939.036997932535
349.0367723359268 10895.127882140298
350.106324758759 10915.773131137455
351.1756021014353 10719.797587241204
352.2446044518383 10787.398717920096
353.31333189781435 10910.352586599198
354.38178452716966 10789.80940232961
355.449962427665 10811.814599687903
356.51786568702846 10791.261114635116
357.58549439294256 10862.553711152379
358.6528486330535 10840.642798643315
359.71992849496564 10803.028099142208
360.7867340662433 10772.374993065592
361.8532654344144 10747.219832253368
362.9195226869597 10934.85725716182
363.9855059113288 10637.648566788284
365.05121519492604 10670.195569566433
366.11665062511565 10811.525810460738
367.1818122892273 10775.486216617228
368.2467002745434 10748.857079118638
369.31131466831175 10705.438186915768
370.375655557742 10691.031912554277
371.4397230299983 10729.320290792233
372.5035171722102 10654.065079209988
373.5670380714637 10714.861975212156
374.6302858148101 10852.159509174393
375.6932604892554 10775.751304560927
376.7559621817709 10748.426286500426
377.81839097928605 10585.027283788106
378.8805469686886 10625.04085410658
379.94243023683157 10453.270565618493
381.0040408705263 10682.267873925754
382.0653789565458 10506.409327170104
383.1264445816196 10582.467239939037
384.1872378324406 10551.9115325535
385.2477587956637 10678.565206147003
386.3080075579037 10506.219792421578
387.3679842057336 10493.364064616657
388.4276888256918 10582.673841003785
389.48712150426945 10593.293592949343
390.54628232792857 10531.387492100886
391.6051713830857 10466.487853628325
392.66378875611736 10513.074856968236
393.7221345333637 10496.358441590655
394.7802088011249 10359.417600540834
395.838011645661 10355.443299974864
396.89554315319765 10386.386354122023
397.9528034099112 10338.464881030279
399.00979250194723 10285.09584827986
400.06651051541485 10257.742789745034
401.1229575363741 10326.452152076125
402.17913365085224 10243.624571234728
403.23503894483656 10307.343719457467
404.2906735042761 10205.372652073676
405.3460374150818 10104.769583518475
406.401130763119 10172.435275463673
407.455953634224 10130.012475833444
408.5105061141876 10076.689228191575
409.56478828876243 9957.73647609543
410.6188002436629 10030.436004320276
411.6725420645689 9942.670148808582
412.72601383711117 10043.034518154496
413.77921564689314 10034.612661565354
414.8321475794728 9896.783925959344
415.88480972036814 9921.89449081659
416.93720215506437 10066.800851173666
417.9893249690049 9846.122580193216
419.04117824759123 9813.854145235116
420.09276207619223 9777.01346369539
421.144076540133 9827.318562496563
422.1951217247042 9759.011988996692
423.24589771515275 9863.154112294918
424.2964045966928 9765.846034479582
425.34664245449494 9769.540485229498
426.3966113736933 9737.013772506838
427.4463114393875 9652.950018266838
428.49574273662984 9660.592350686375
429.5449053504417 9614.259523779741
430.5937993658026 9692.525470751105
431.6424248676558 9610.573733182297
432.6907819409007 9613.549291463267
433.73887067040596 9643.0629954246
434.7866911409965 9616.20347562226
435.8342434374608 9527.39882139478
436.88152764455117 9518.54193622853
437.9285438469724 9552.799886317118
438.9752921294057 9496.750386926697
440.02177257648145 9434.905914344637
441.06798527279716 9350.855525434654
442.1139303029122 9511.515739847442
443.1596077513459 9464.589125603605
444.2050177025794 9398.545089512216
445.25016024105753 9414.49292528066
446.2950354511886 9356.760442758194
447.33964341733736 9368.093981253154
448.383984223834 9361.6443393062
449.4280579549686 9263.405710051207
450.471864694995 9339.550629062282
451.5154045281306 9406.217743300776
452.5586775385509 9231.434734705894
453.60168381039693 9292.48356135443
454.64442342776783 9335.745403585179
455.6868964747264 9257.025291503658
456.7291030353008 9249.78139860836
457.77104319347563 9259.801099812461
458.8127170332027 9254.130564165314
459.854124638392 9203.335506896552
460.895266092919 9315.80734138915
461.93614148061897 9288.72826237428
462.97675088529104 9311.865486421064
464.01709439069236 9216.877197077647
465.0571720805492 9213.085039978221
466.0969840385442 9214.006324054342
467.1365303483253 9282.53158432903
468.17581109350067 9204.216567457464
469.2148263576437 9125.4003576317
470.2535762242878 9135.348938487323
471.29206077693016 9265.004902926212
472.33028009902773 9223.709458902887
473.3682342740012 9239.724386083293
474.40592338523857 9198.425436561603
475.4433475160804 9263.010417133017
476.4805067498364 9269.874765957615
477.51740116978 9205.000814660938
478.5540308591426 9340.49176504378
479.59039590112116 9439.895755338115
480.6264963788726 9347.732286055028
481.6623323755193 9442.542703593801
482.6979039741436 9424.692958187947
483.7332112577915 9554.293304388468
484.76825430947247 9666.56643666253
485.80303321215797 9631.5647116315
486.837548048783 9649.628897313927
487.8717989022425 9863.00458794984
488.90578585539697 9928.516977006057
489.9395089910686 9998.391567657383
490.97296839203955 9828.177257032221
492.00616414106116 9820.552828385691
493.0390963208429 9829.67506806707
494.0717650140559 9886.875457493925
495.10417030333883 9808.383924737931
496.1363122712901 9860.024629353618
497.16819100046814 9751.848879381163
498.1998065734024 9610.216658584603
499.2311590725767 9543.047754075767
500.26224858044407 9499.631108847276
501.2930751794156 9357.666781438806
502.3236389518679 9408.542602641124
503.35393998014115 9142.212573039502
504.38397834653733 9205.85597023249
505.4137541333221 9147.604473796498
506.4432674227228 9018.480824829026
507.4725182969323 8954.721476498491
508.5015068381035 8996.887890525855
509.53023312835467 8958.765070337375
510.55869724976765 8956.70328980236
511.58689928438434 8838.029191264235
512.6148393142121 8817.171499242553
513.6425174212218 8946.716156171271
514.6699336873462 8946.833939379752
515.6970881944835 8829.134535748522
516.7239810244901 8802.182933018954
517.7506122591931 8816.339988026219
518.7769819803761 8837.060057062963
519.8030902697901 8854.898913027715
520.8289372091476 8905.633659148956
521.8545228801249 8915.398498109116
522.8798473643619 8793.079493174228
523.9049107434621 8777.463084835641
524.9297130989908 8825.202037034298
525.9542545124805 8848.813074616899
526.9785350654201 8744.690958281633
528.0025548392696 8852.38624377322
529.0263139154504 8777.142058696623
530.0498123753423 8806.873057296918
531.073050300296 8768.150711052667
532.0960277716204 8657.506853269331
533.1187448705896 8698.214107520813
534.1412016784416 8723.530509191081
535.1633982763833 8651.77145110441
536.1853347455726 8666.817437313479
537.2070111671401 8635.196117381163
538.2284276221817 8556.992039659051
539.2495841917516 8561.636325595478
540.2704809568677 8388.694898094825
541.2911179985167 8452.175462813062
542.3114953976419 8418.424142564156
543.3316132351592 8304.15916098238
544.3514715919409 8268.580824828914
545.3710705488247 8252.388561345046
546.3904101866156 8228.057122612594
547.4094905860784 8282.662373757732
548.4283118279418 8131.70288148731
549.4468739929034 8288.731849236847
550.4651771616191 8222.351768967412
551.4832214147063 8130.462418449914
552.501006832761 8114.079102017812
553.5185334963226 8115.762789851142
554.5358014859103 8159.676349292812
555.5528108820035 8151.034094160028
556.5695617650363 8025.748720758864
557.5860542154242 8111.233775514107
558.6022883135283 8060.157329477796
559.6182641396881 8039.819103097494
560.6339817741991 8114.549312623715
561.6494412973225 8107.828287666916
562.6646427892883 8110.202540615773
563.6795863302796 8035.41138877276
564.694272000459 8059.745492892415
565.7086998799423 8145.185938502039
566.7228700488104 8084.99237997858
567.7367825871115 7985.352943472622
568.7504375748576 8009.315253556984
569.7638350920224 8056.731096849411
570.7769752185486 8020.075845828166
571.7898580343353 8039.289505213604
572.802483619258 7937.844536597232
573.8148520531431 8092.40499690551
574.8269634157932 8082.600064465076
575.8388177869692 8002.07633199837
576.8504152463938 7986.981136852439
577.8617558737587 8138.883579683874
578.8728397487175 8034.477924970155
579.883666950891 8057.0084402141165
580.8942375598654 8117.917082599242
581.9045516551851 8191.974977318598
582.9146093163617 8267.11347392991
583.924410622878 8129.4140580809135
584.9339556541727 8204.350620978159
585.9432444896538 8422.093755034857
586.9522772086875 8127.005296118344
587.9610538906127 8274.822404094
588.9695746147318 8259.670904287661
589.9778394603054 8283.410934026078
590.985848506567 8258.745227493868
591.9936018327098 8180.583076754483
593.0010995178891 8025.832518189872
594.0083416412344 8141.10295426216
595.0153282818283 7936.428462739833
596.0220595187293 7965.115395213313
597.0285354309508 7947.308385584995
598.0347560974806 7947.966659392002
599.0407215972609 7836.255239176408
600.0464320092051 7807.289831800456
601.0518874121954 7893.319300699029
602.0570878850685 7743.585927927251
603.062033506636 7822.16508219518
604.0667243556636 7797.894554973529
605.0711605108936 7646.468262509004
606.0753420510264 7862.507241340218
607.0792690547278 7759.543481446606
608.082941600629 7682.529875016288
609.0863597673306 7652.710356401319
610.0895236333909 7686.4466788583795
611.0924332773357 7834.477599528693
612.0950887776617 7718.0283390685845
613.0974902128219 7719.780338667339
614.0996376612384 7900.973326638316
615.1015312013005 7863.822935216225
616.1031709113595 7862.24400759307
617.1045568697336 7747.7678608514325
618.1056891547069 7883.218733748819
619.1065678445229 7916.31702565149
620.1071930173985 8153.258989850411
621.1075647515099 8093.767110787
622.1076831250048 8163.873448419923
623.1075482159849 8246.431625280626
624.1071601025305 8274.62141382068
625.1065188626781 8410.5296330052
626.105624574433 8553.704237449405
627.1044773157682 8615.82291856675
628.1030771646128 8630.540141468304
629.1014241988742 8761.548049963509
630.0995184964158 8893.09731360701
631.0973601350688 8881.298853615492
632.0949491926294 9072.795973452152
633.0922857468631 8802.402994147113
634.089369875499 9045.448188318891
635.0862016562278 8989.058751955079
636.0827811667077 8777.175225794113
637.0791084845641 8823.03173405214
638.0751836873878 8690.190488611124
639.0710068527369 8775.287626487878
640.0665780581294 8587.116479432952
641.0618973810506 8574.644141524146
642.0569648989604 8481.123036203957
643.0517806892676 8312.992952428041
644.0463448293649 8262.152255539473
645.040657396592 8169.450089676594
646.0347184682723 8033.728135572406
647.0285281216875 7930.177076992759
648.0220864340772 7891.953081270384
649.0153934826558 7716.895480229105
650.0084493446047 7728.962766301101
651.0012540970674 7681.821284163088
651.9938078171526 7577.2033908807525
652.9861105819346 7434.185313280221
653.9781624684565 7560.371823061838
654.9699635537254 7348.4216217171725
655.9615139147136 7410.093831939074
656.9528136283589 7227.723630783304
657.9438627715699 7364.534632513321
658.9346614212154 7362.443406582332
659.925209654135 7095.507970772291
660.9155075471263 7185.040293146309
661.9055551769616 7191.550469663272
662.895352620375 7346.961279586723
663.8848999540678 7183.834767739165
664.8741972547068 7090.194113018899
665.863244598926 7062.992285264835
666.8520420633213 7015.855047546524
667.8405897244611 7055.709720141507
668.8288876588758 6915.468216177154
669.8169359430613 7058.917773459036
670.8047346534822 7013.3316624522195
671.7922838665672 6909.011436023995
672.7795836587156 6945.912463250139
673.766634106285 7090.640700879785
674.7534352856092 6952.808378322139
675.7399872729766 6965.038183876876
676.7262901446538 6931.012628640005
677.712343976862 6973.864995508283
678.6981488457986 6961.9522095448365
679.6837048276229 6906.860844084404
680.6690119984596 6935.328260305381
681.6540704344043 6892.946302395787
682.6388802115107 6872.6901349740365
683.6234414058108 6832.79137581061
684.6077540932874 6816.584864304389
685.591818349907 6805.361300718161
686.575634251587 6812.011936755451
687.5592018742263 6809.301817405989
688.5425212936734 6722.542767623284
689.5255925857564 6789.487933924732
690.5084158262707 6724.409438323554
691.4909910909646 6745.9196334131575
692.4733184555644 6655.684924217561
693.4553979957618 6725.015702203529
694.4372297872123 6660.1234599883655
695.4188139055404 6590.730399300168
696.4001504263324 6549.472589830404
697.3812394251509 6654.299962289527
698.3620809775111 6563.649842846334
699.3426751589104 6633.305707509407
700.3230220448004 6449.571216558243
701.3031217106054 6505.60031692823
702.2829742317172 6680.527427830401
703.2625796834873 6431.399240374712
704.2419381412474 6387.999696339581
705.22104968028 6455.870054629968
706.1999143758458 6382.067939644369
707.178532303169 6471.083731909415
708.1569035374378 6402.051817207839
709.1350281538107 6412.642168444456
710.1129062274158 6374.696752162436
711.0905378333373 6430.978449670017
712.0679230466376 6340.720446444491
713.0450619423427 6420.187096734985
714.0219545954424 6460.081608064144
714.9986010808989 6301.24497812157
715.9750014736292 6284.202675997169
716.9511558485392 6382.655469893824
717.9270642804786 6437.383751044651
718.9027268442787 6428.9609876432605
719.8781436147328 6336.469676687282
720.8533146666014 6318.342395337325
721.828240074612 6378.366355061911
722.8029199134635 6328.505622581753
723.7773542578125 6386.3264369320095
724.751543182294 6325.901740171267
725.7254867615029 6440.913519689422
726.6991850700015 6244.938953261661
727.6726381823228 6288.259187027486
728.6458461729599 6340.642062932033
729.6188091163858 6281.1446142732575
730.5915270870246 6299.569388457294
731.5640001592856 6115.867779833689
732.536228407529 6236.539462588449
733.5082119060917 6212.9914057691985
734.4799507292755 6145.036273951561
735.4514449513481 6150.904306884652
736.4226946465496 6203.540265181774
737.3936998890786 6286.298947928733
738.3644607531078 6048.588940792646
739.3349773127793 6117.800097818657
740.3052496421951 6153.354231657621
741.27527781543 6079.763232224012
742.2450619065221 6080.307936497424
743.2146019894826 6083.296928006335
744.183898138288 6131.51493393435
745.1529504268801 6084.830850892114
746.1217589291682 5986.713291401699
747.0903237190341 6042.577355233489
748.058644870318 6056.418311987074
749.0267224568397 5952.494653031333
749.994556552374 5933.112306387078
750.9621472306771 6009.302072091279
751.9294945654583 6008.849578256746
752.8965986304011 6093.530511077756
753.8634594991636 5963.083603568557
754.8300772453586 6053.478067475478
755.7964519425768 5981.193036966942
756.762583664371 6057.058943562193
757.7284724842611 6044.940319187326
758.6941184757416 5961.381253197674
759.6595217122667 5998.564251781401
760.6246822672638 6007.287525498721
761.5896002141235 5903.2546363740785
762.5542756262093 6000.282945709004
763.5187085768503 5998.489847629492
764.4828991393406 5962.212428184674
765.4468473869474 5929.306671715231
766.4105533929032 5969.017042138039
767.3740172304078 5909.493255171406
768.3372389726283 6009.352324670995
769.3002186926988 5880.7784794824165
770.2629564637282 5899.138557945478
771.2254523587872 5899.776764985714
772.1877064509154 5866.329681733942
773.1497188131179 5706.875877576535
774.1114895183728 5677.357408244526
775.0730186396268 5688.17354219713
776.0343062497905 5692.938231142462
776.9953524217381 5679.0495389598345
777.9561572283274 5716.739237507243
778.9167207423689 5697.349619766978
779.8770430366476 5633.576782610612
780.8371241839159 5610.771546680371
781.7969642568951 5680.451974384114
782.7565633282757 5796.910070472428
783.7159214707099 5598.707487577133
784.6750387568281 5586.589344268274
785.6339152592227 5602.82260678744
786.5925510504512 5662.282934962538
787.5509462030477 5616.455459345978
788.5091007895098 5597.993758377164
789.4670148823006 5551.401621477302
790.4246885538596 5561.092660364691
791.3821218765861 5624.856048293455
792.3393149228505 5494.831095455591
793.2962677649975 5585.854280452197
794.2529804753303 5587.048841421896
795.20945312613 5662.897981207752
796.1656857896378 5521.350480507864
797.1216785380675 5561.843792498645
798.0774314435985 5628.927425036595
799.0329445783846 5682.672176022687
799.9882180145414 5628.388838919701
800.9432518241574 5625.033959953118
801.89804607929 5744.133832532543
802.852600851962 5712.705749788524
803.8069162141637 5596.851000552898
804.760992237856 5757.119822902553
805.714828994971 5730.834435853497
806.6684265574077 5810.739123034609
807.6217849970271 5770.78478699215
808.574904385674 5736.94575325805
809.527784795142 5787.137692555468
810.4804262972102 5838.909911502111
811.4328289636178 5675.256875961148
812.3849928660748 5605.756213119614
813.3369180762638 5654.075622681605
814.2886046658241 5697.523796173752
815.2400527063783 5582.355316832714
816.1912622695108 5537.11193432319
817.1422334267718 5567.593745356419
818.0929662496856 5427.143951127436
819.0434608097457 5393.061613403855
819.9937171784059 5401.711976056537
820.9437354271013 5357.867622464014
821.8935156272255 5425.212186495997
822.8430578501484 5263.000923037462
823.7923621672016 5165.776449438129
824.7414286496896 5212.241212642712
825.6902573688876 5271.687189217042
826.6388483960363 5222.166466781173
827.5872018023492 5150.968320800844
828.5353176590033 5304.521182368284
829.4831960371503 5157.669772281391
830.4308370079016 5124.570267488275
831.3782406423525 5179.877844683041
832.3254070115545 5174.367365005965
833.2723361865319 5071.888322026161
834.2190282382799 5100.384417975165
835.1654832377644 5127.255707542073
836.1117012559116 5057.696906723312
837.0576823636256 5139.839239438119
838.003426631778 5080.089561235413
838.9489341312074 4985.365630498169
839.8942049327197 5152.906393421247
840.8392391070975 5111.6524942258175
841.7840367250865 4988.360902240736
842.7285978573982 4964.910253451501
843.672922574724 5055.527191153402
844.6170109477152 4952.030194925993
845.560863046996 4993.958874974638
846.5044789431595 4991.758569759954
847.4478587067697 4961.720303324551
848.3910024083561 5064.088978670724
849.333910118421 4995.912771172457
850.2765819074339 4958.957089278211
851.2190178458332 5039.792344253136
852.161218004032 5146.915194156763
853.1031824524016 5030.34471545199
854.0449112612987 4993.42805963574
854.9864045010327 5104.255331150408
855.9276622418947 4994.871392009354
856.8686845541379 4947.031149383455
857.8094715079915 4896.071887594172
858.7500231736467 5075.474523327377
859.690339621271 5007.835610598668
860.6304209209939 5029.783183360875
861.5702671429244 4919.243633895394
862.5098783571284 4973.6472761473515
863.4492546336569 5001.921705150977
864.3883960425155 4920.510207961783
865.3273026536863 4909.367093557747
866.2659745371238 4947.231209185249
867.2044117627465 5097.717642691429
868.1426144004472 4896.4705477535135
869.0805825200823 5011.6666647595985
870.0183161914847 5003.997436643185
870.9558154844526 5104.2832333677325
871.8930804687552 5173.447906190141
872.8301112141307 4975.706378811711
873.7669077902865 5103.309068153976
874.7034702669062 5173.66223566487
875.6397987136315 5047.945009751698
876.5758932000863 5098.703424160312
877.5117537958522 5187.23793463245
878.4473805704911 5126.494674815298
879.3827735935283 5046.588951946674
880.3179329344603 5179.999034670029
881.2528586627541 5201.2155404379455
882.1875508478479 5170.496372497041
883.1220095591489 5115.757683635353
884.0562348660296 5030.786858386499
884.9902268378391 5237.0502052355505
885.9239855438955 5094.213882751951
886.8575110534839 5093.218781746915
887.7908034358588 5158.636733076147
888.7238627602474 5135.547872612713
889.6566890958475 5119.005960305796
890.5892825118208 5008.949717480857
891.5216430773125 5112.174928912937
892.4537708614189 5007.899011308455
893.3856659332196 5013.101772062248
894.3173283617652 4866.168949541494
895.2487582160684 4918.8006116245815
896.179955565116 4826.787416150555
897.110920477864 4785.549471068769
898.0416530232451 4822.151221477381
898.9721532701478 4779.968716230806
899.9024212874428 4961.788232327754
900.8324571439662 4661.418604645295
901.7622609085302 4730.529507206783
902.6918326499072 4653.992618994596
903.6211724368477 4722.457787360398
904.5502803380696 4701.779659839036
905.4791564222614 4857.627294990504
906.4078007580792 4697.501107841919
907.3362134141571 4657.383926166126
908.2643944590909 4727.342392851378
909.1923439614493 4641.831113476088
910.1200619897754 4638.998090536753
911.0475486125779 4806.483248647718
911.9748038983344 4620.571444018599
912.9018279155007 4598.194227605569
913.8286207324982 4527.109785453256
914.7551824177117 4566.480432341914
915.6815130395116 4565.483455910817
916.6076126662283 4490.527949132871
917.533481366163 4528.566570236819
918.4591192075914 4561.964636631055
919.3845262587565 4661.473551191437
920.3097025878706 4544.9061589330295
921.2346482631237 4523.869276451754
922.1593633526682 4477.354941911581
923.0838479246304 4641.697501272408
924.0081020471061 4601.1773893372565
924.9321257881656 4450.672455482035
925.8559192158464 4519.48190305144
926.7794823981512 4520.200314245637
927.7028154030686 4363.274664742527
928.6259182985414 4361.817633882668
929.5487911524906 4525.605082779305
930.4714340328119 4549.561337505423
931.3938470073608 4338.786613948053
932.3160301439748 4446.953045129884
933.2379835104548 4436.067958514587
934.1597071745709 4489.187838732765
935.0812012040769 4464.757602613413
936.002465666681 4430.58479504368
936.9235006300696 4417.211208846455
937.8443061619055 4427.015938221683
938.7648823298077 4317.2370074564815
939.6852292013809 4364.9729126431985
940.6053468441951 4515.090502333864
941.5252353257874 4290.925737757492
942.4448947136698 4392.156343635363
943.364325075323 4369.255963461842
944.2835264782043 4389.065536092366
945.2024989897309 4357.323767398686
946.1212426773054 4370.068381135291
947.0397576082851 4403.95356559628
947.9580438500125 4402.786410429606
948.8761014697939 4466.425660161009
949.7939305349064 4383.903428731182
950.7115311125999 4349.374783856941
951.6289032700952 4297.586606089282
952.5460470745875 4505.903125131267
953.4629625932339 4327.338319513453
954.3796498931715 4497.092519491508
955.2961090415029 4362.84477315645
956.2123401053068 4366.154426130097
957.1283431516276 4375.705835912121
958.0441182474842 4326.981658149544
958.9596654598663 4471.60648875374
959.8749848557309 4354.989688539303
960.7900765020167 4259.517576967739
961.7049404656209 4273.896809765805
962.6195768134185 4303.8951553328325
963.5339856122537 4347.125528947522
964.4481669289453 4354.031655283534
965.3621208302793 4367.519585141747
966.2758473830145 4276.4507994546975
967.1893466538822 4459.333913177834
968.1026187095813 4221.610961518314
969.0156636167867 4339.404573255297
969.9284814421426 4339.565866667552
970.8410722522622 4366.813364061805
971.753436113735 4241.828637010965
972.6655730931161 4269.81554811855
973.5774832569368 4362.0716922333395
974.4891666716958 4284.393737353107
975.4006234038698 4273.06525909381
976.3118535198955 4199.152800211819
977.2228570861935 4318.040170333259
978.1336341691494 4359.708410919921
979.0441848351202 4267.907176112762
979.9545091504333 4349.623354548907
980.864607181391 4409.728815739048
981.7744789942699 4360.679302201521
982.6841246553086 4322.83700100391
983.5935442307236 4342.307823370967
984.5027377867027 4412.883634883394
985.4117053894024 4358.484728586836
986.3204471049557 4382.6719386465975
987.2289629994648 4438.344918373796
988.1372531390007 4399.515989633008
989.0453175896091 4299.906020580776
989.9531564173067 4365.124907681919
990.860769688079 4245.3725935636285
991.7681574678918 4350.962854085482
992.6753198226706 4357.514959515638
993.582256818323 4360.606630660348
994.4889685207218 4328.563104117869
995.3954549957143 4467.626712589001
996.301716309119 4393.59731977398
997.2077525267232 4397.112097505396
998.1135637142943 4358.483267678896
999.0191499375615 4509.052072776711
999.924511262232 4464.698327280554
1000.8296477539861 4445.340073553722
1001.7345594784656 4389.120400638296
1002.6392465012996 4433.293115578979
1003.5437088880753 4487.372363171147
1004.4479467043584 4401.588235534737
1005.3519600156869 4262.158803726585
1006.2557488875718 4385.813999314652
1007.1593133854858 4365.333236546396
1008.0626535748888 4304.889386639793
1008.9657695212009 4220.235061366709
1009.8686612898182 4448.148474159733
1010.7713289461135 4461.542253264395
1011.6737725554212 4362.241133809444
1012.5759921830577 4371.371865298332
1013.4779878943027 4400.231744233335
1014.379759754418 4456.8938669821255
1015.2813078286254 4320.035207561972
1016.18263218213 4189.756860238111
1017.0837328801026 4257.05912633956
1017.9846099876886 4399.681382447195
1018.8852635700023 4313.4648684644535
1019.7856936921362 4218.202286300372
1020.6859004191447 4435.021583499247
1021.5858838160675 4278.125275480097
1022.4856439479063 4217.389781229924
1023.3851808796389 4161.199315851144
1024.2844946762143 4278.261296875345
1025.183585402554 4215.844554708719
1026.082453123554 4115.301670047267
1026.9810979040776 4205.682982753786
1027.8795198089647 4026.5975541836533
1028.777718903024 4185.116279552893
1029.6756952510368 3999.87730692425
1030.5734489177648 4094.489459833693
1031.4709799679313 4141.461084260529
1032.3682884662358 4270.102690797219
1033.2653744773506 3997.3696524170314
1034.1622380659192 4006.485694460439
1035.058879296559 4123.119331622064
1035.9552982338591 4156.655983903195
1036.8514949423825 4049.168636771997
1037.7474694866614 4051.976746382175
1038.6432219312028 4067.273313387925
1039.5387523404825 4144.54011781239
1040.4340607789582 4041.1979921562115
1041.3291473110476 4043.8178243164525
1042.2240120011465 4238.519176229595
1043.1186549136273 4158.978269472043
1044.0130761128294 4094.9611842960485
1044.9072756630649 4121.200303650568
1045.8012536286205 4222.437710703172
1046.6950100737577 4174.35299735545
1047.588545062701 4236.889246489326
1048.481858659663 4173.126434463837
1049.3749509288118 4244.247143443994
1050.2678219343034 4134.078747503748
1051.1604717402515 4175.347673058789
1052.0529004107575 4126.520760846477
1052.9451080098825 4237.921444304737
1053.8370946016694 4201.950893422369
1054.7288602501267 4250.395547391442
1055.6204050192446 4177.243242979258
1056.511728972977 4288.236314244247
1057.402832175254 4198.873022603572
1058.2937146899785 4079.8805665578393
1059.1843765810263 4195.057650811563
1060.0748179122456 4241.10521394897
1060.9650387474576 4211.763246540194
1061.855039150456 4188.1121615997845
1062.7448191850071 4208.448217077128
1063.6343789148505 4100.3393897757105
1064.5237184037014 4244.325273476215
1065.412837715241 4028.2398526048382
1066.3017369131267 4133.187385589745
1067.190416060992 4106.230706086359
1068.0788752224398 4053.436527067611
1068.9671144610438 4036.4850810607263
1069.8551338403558 4134.211382661628
1070.7429334239023 4191.308113924824
1071.6305132751695 4038.747347218546
1072.517873457633 4096.983930955732
1073.4050140347335 4090.66767204382
1074.2919350698776 4055.0599011670442
1075.1786366264623 4043.2907432409984
1076.0651187678395 4076.728056773389
1076.95138155735 3984.3253978287516
1077.8374250582929 3942.882766247123
1078.7232493339507 4054.077859205253
1079.608854447577 3966.505777007671
1080.4942404623907 3891.045672080302
1081.3794074415982 4062.900698503552
1082.2643554483657 3942.4437144853937
1083.149084545841 3962.925579782653
1084.033594797138 3868.2227518160335
1084.9178862653516 3868.071017053729
1085.8019590135427 4012.739752623011
1086.6858131047484 3796.019103290764
1087.5694486019802 3859.2177475629287
1088.4528655682225 3865.9429431550825
1089.3360640664287 4042.194942382094
1090.2190441595321 3858.7622139585787
1091.1018059104317 3960.426847287899
1091.98434938201 3860.779666317725
1092.866674637111 3893.273366453451
1093.748781738559 3844.3110952443285
1094.6306707491512 3791.061673559593
1095.5123417316554 3844.0125697163776
1096.3937947488157 3825.4106135773263
1097.2750298633455 3761.207581925705
1098.156047137938 3764.406436452089
1099.0368466352556 3854.9872224021733
1099.9174284179317 3907.1473144236215
1100.7977925485757 3730.2308691794738
1101.6779390897755 3753.219567866204
1102.5578681040806 3819.2378630396015
1103.4375796540226 3841.5717778142766
1104.3170738021054 3786.9561196191135
1105.1963506108077 3627.5896247846367
1106.0754101425773 3647.6171678292535
1106.9542524598382 3812.4527304907087
1107.8328776249855 3639.654553170404
1108.7112857003904 3651.6706126185977
1109.5894767483987 3661.312416193773
1110.4674508313292 3796.3470781547644
1111.3452080114657 3764.0161964743047
1112.2227483510815 3864.9911316295065
1113.1000719124077 3781.6763742595695
1113.9771787576592 3893.6403135556516
1114.854068949022 3768.759718602915
1115.7307425486542 3884.819195776937
1116.6071996186893 3965.166173748851
1117.483440221229 4124.44386906971
1118.3594644183577 3807.6322210991448
1119.235272272128 3978.103024968558
1120.1108638445658 4021.9511384538973
1120.9862391976712 4237.210590400074
1121.8613983934229 4095.735864444831
1122.7363414937627 4025.42244734228
1123.6110685606182 4039.6117535900294
1124.485579655884 4255.802348673204
1125.359874841426 4127.614230629747
1126.2339541790916 4164.910868126489
1127.1078177306936 4397.059214219285
1127.9814655580267 4205.732321103615
1128.854897722851 4206.29113235413
1129.7281142869106 4183.147461572732
1130.6011153119125 4254.36939034537
1131.473900859548 4426.020642072707
1132.3464709914697 4197.363529782248
1133.2188257693178 4290.801285744767
1134.0909652546961 4188.358152382641
1134.96288950919 4188.25163871391
1135.8345985943506 4262.6195656060645
1136.7060925717087 4090.1005238874045
1137.57737150277 4207.070994463425
1138.4484354490069 4280.034840478512
1139.3192844718778 4125.806793922393
1140.1899186327992 4031.952494087527
1141.060337993178 4164.969450352093
1141.930542614382 4019.626663021189
1142.8005325577597 4028.5144607244097
1143.670307884635 3847.6732788032386
1144.5398686563003 4082.564694509942
1145.409214934025 3929.6445146545666
1146.2783467790541 3726.090855443901
1147.1472642526023 3801.3743887246223
1148.0159674158622 3902.367382141669
1148.8844563300026 3793.8565837262504
1149.7527310561618 3646.014837120444
1150.6207916554504 3689.351529404169
1151.4886381889592 3606.31930813593
1152.3562707177498 3808.117948714387
1153.2236893028585 3618.133786275069
1154.090894005296 3594.890629081177
1154.9578848860474 3602.8961091143465
1155.8246620060709 3550.066099027133
1156.6912254262988 3473.7635096622785
1157.5575752076438 3531.756361653791
1158.42371141098 3651.1413167443875
1159.2896340971656 3639.210687264742
1160.1553433270346 3569.067878000672
1161.0208391613887 3484.0907138928364
1161.8861216610057 3617.2025287867787
1162.75119088664 3582.1055780947063
1163.6160468990201 3453.165164910622
1164.4806897588442 3501.67375911837
1165.3451195267917 3626.6158919652166
1166.2093362635114 3585.6141580280187
1167.0733400296285 3474.1920588365015
1167.9371308857444 3463.8206536385296
1168.8007088924278 3471.7861654583917
1169.6640741102328 3596.5973668700512
1170.5272265996773 3370.5697169694095
1171.390166421259 3251.742465513853
1172.252893635452 3451.3056693668123
1173.1154083026995 3663.2961116122037
1173.977710483421 3498.7292810197323
1174.8398002380145 3437.8327471067946
1175.7016776268483 3472.2347664844224
1176.563342710264 3504.3035708322946
1177.4247955485826 3380.0428690549293
1178.2860362020947 3507.256670800033
1179.147064731069 3364.860453956756
1180.0078811957483 3481.650961331099
1180.8684856563486 3349.08861808535
1181.7288781730604 3432.2406986162723
1182.589058806052 3449.6146634423267
1183.4490276154593 3635.4546256514454
1184.3087846614017 3504.5280526787988
1185.1683300039676 3426.299940750054
1186.027663703222 3650.3064645799445
1186.8867858192025 3542.688032024465
1187.7456964119228 3436.08943286778
1188.6043955413716 3628.3173153367084
1189.4628832675116 3694.604121466484
1190.3211596502842 3656.634315456329
1191.179224749596 3706.3141640562253
1192.0370786253388 3554.9202648206674
1192.8947213373758 3723.6565800767303
1193.7521529455407 3796.208813617679
1194.6093735096438 3600.246172590859
1195.466383089477 3640.922707135093
1196.3231817447977 3747.9924059060263
1197.1797695353398 3816.947933031895
1198.0361465208189 3596.2669248337793
1198.8923127609214 3659.978043706168
1199.7482683153048 3691.856263634254
1200.6040132436028 3751.0990124250447
1201.459547605431 3672.0146036909296
1202.3148714603722 3564.267381641238
1203.1699848679855 3716.1525350740617
1204.0248878878065 3700.315940739005
1204.8795805793507 3522.7932364240573
1205.7340630020935 3729.3996786736743
1206.5883352155033 3749.243716284923
1207.4423972790064 3657.277335924173
1208.2962492520237 3603.3129919525877
1209.1498911939307 3590.987242816572
1210.0033231640937 3646.6730767754016
1210.8565452218427 3618.770248510196
1211.7095574264913 3471.684894161318
1212.5623598373222 3524.634367117269
1213.4149525135963 3384.3312390884225
1214.2673355145507 3601.112390046402
1215.1195088993936 3434.9033190259315
1215.9714727273113 3404.2626739313396
1216.8232270574663 3474.9862522761687
1217.6747719489904 3297.217737619206
1218.5261074609934 3293.179148236858
1219.3772336525653 3340.3951451473645
1220.2281505827668 3457.9141231914155
1221.0788583106296 3511.065267846483
1221.9293568951707 3211.367289874646
1222.7796463953746 3286.3627271990204
1223.629726870202 3396.60494037879
1224.4795983785934 3450.367108910582
1225.3292609794553 3459.7603105352805
1226.1787147316809 3277.588898739809
1227.0279596941327 3416.767511226677
1227.8769959256424 3464.582345292052
1228.7258234850306 3443.639789233671
1229.5744424310833 3250.4740621787078
1230.422852822563 3430.2860314275144
1231.2710547182105 3446.842976562492
1232.119048176739 3272.958378510225
1232.9668332568417 3225.197889690126
1233.8144100171812 3403.1838325293857
1234.6617785163999 3287.4945736901254
1235.508938813111 3076.0916827161177
1236.3558909659114 3221.016559448418
1237.2026350333617 3336.1093673092523
1238.049171074008 3496.927797865552
1238.8954991463652 3293.4177955031655
1239.741619308932 3252.173254403392
1240.587531620169 3435.582282087426
1241.4332361385277 3419.959191299958
1242.2787329224248 3194.229094131409
1243.1240220302534 3249.725427240317
1243.9691035203869 3174.4167034384
1244.813977451171 3401.180298174153
1245.6586438809263 3336.326132398963
1246.5031028679496 3109.2938045352703
1247.3473544705157 3434.2589286727975
1248.1913987468706 3267.806685285732
1249.0352357552383 3102.9971620590823
1249.8788655538228 3191.680134536332
1250.7222882007918 3260.0381088141216
1251.565503754302 3305.407541218016
1252.4085122724755 3062.2388290102194
1253.2513138134182 3263.5145421289103
1254.0939084352049 3212.1398021612836
1254.9362961958905 3233.6218624911803
1255.7784771535007 3242.317546747651
1256.6204513660432 3283.0991997435267
1257.4622188915 3437.2149279817
1258.3037797878242 3249.813035045002
1259.1451341129468 3225.760988161682
1259.9862819247755 3304.842104050781
1260.8272232811978 3192.5543071812003
1261.6679582400666 3393.7415469327957
1262.5084868592203 3123.03154978355
1263.34880919647 3110.313632352755
1264.1889253095997 3224.70495647404
1265.0288352563712 3331.3276810859106
1265.8685390945266 3168.6578333677685
1266.7080368817751 3298.1824948271433
1267.5473286758115 3322.6193386466343
1268.386414534294 3298.3837579060246
1269.2252945148703 3034.315968854854
1270.0639686751547 3174.6869657004268
1270.9024370727402 3165.162304209351
1271.7406997651997 3102.0383163989636
1272.5787568100714 3127.1538586295637
1273.4166082648808 3120.155788887495
1274.2542541871244 3159.286694371891
1275.091694634275 3362.2071835625575
1275.9289296637817 2988.9703883844086
1276.7659593330663 3126.083769996859
1277.6027836995308 3122.6138680997774
1278.4394028205552 3243.820754286634
1279.2758167534867 3087.5844765766915
1280.112025555658 3165.1546514415313
1280.9480292843746 3178.279454272172
1281.7838279969128 3033.5332919990697
1282.6194217505326 3097.088923874444
1283.4548106024686 2951.9964469443303
1284.289994609926 3020.4816239042666
1285.1249738300921 3183.2242098212405
1285.959748320127 2927.618060249504
1286.7943181371702 3087.2636861980786
1287.6286833383328 3066.840477283037
1288.4628439807038 3124.2179714105714
1289.2968001213521 3006.7998092221787
1290.1305518173194 3091.6599653628036
1290.9640991256183 3156.0221879774526
1291.7974421032523 2763.9869137976416
1292.630580807183 2948.564154866334
1293.463515294361 3084.714667436604
1294.29624562171 3072.2882451202845
1295.12877184613 2951.8254084178134
1295.961094024493 3032.045573894094
1296.79321221365 3105.9830346002964
1297.6251264704333 3102.4122713850393
1298.4568368516466 3375.041962341899
1299.2883434140658 3155.2034266472974
1300.1196462144526 3031.671775459653
1300.9507453095375 3129.8189993830365
1301.7816407560313 3019.9910718488663
1302.6123326106172 3052.7049819884332
1303.4428209299622 2916.734172463242
1304.2731057707024 3184.107137080523
1305.1031871894502 2919.2999008049387
1305.933065242798 3122.7306115189126
1306.7627399873181 3067.653932299151
1307.5922114795467 3311.004229904095
1308.4214797760123 3331.463346666236
1309.2505449332057 3047.754032313214
1310.0794070076026 3253.8866604485347
1310.9080660556538 3184.256934935374
1311.736522133786 3257.5595299296797
1312.5647752983987 3069.0299727555534
1313.3928256058734 3064.7507532759078
1314.2206731125661 3112.2732100704798
1315.048317874809 3161.859037602152
1315.8757599489109 3056.274070462004
1316.7029993911547 3072.112593024663
1317.5300362578055 3289.416722865096
1318.356870605101 2962.9988448698305
1319.183502489257 3054.2412170641505
1320.0099319664623 3135.0589206875584
1320.836159092889 3184.7006824247114
1321.66218392468 3205.629202664998
1322.4880065179532 3041.552243926851
1323.3136269288134 3071.2095135947784
1324.1390452133292 3236.1669249798742
1324.9642614275563 3186.313463886667
1325.7892756275214 3076.795401491347
1326.6140878692295 3022.0688402801425
1327.4386982086617 3409.3853656475158
1328.2631067017755 3244.3762391656824
1329.0873134045069 3174.4790837619166
1329.911318372764 3097.140381900748
1330.735121662441 3130.051120971813
1331.558723329399 3126.510166142198
1332.3821234294774 3121.8191421776464
1333.2053220185007 3181.6448222648573
1334.0283191522612 3106.5980857324867
1334.851114886529 3188.531781580066
1335.6737092770582 3046.1701499317655
1336.4961023795695 3157.5656189780416
1337.3182942497697 3116.4655159817476
1338.1402849433325 3168.0251734905755
1338.962074515921 3058.5626498059987
1339.7836630231632 2946.947695655964
1340.6050505206676 3376.247841699996
1341.426237064028 3397.4426430643034
1342.2472227088037 3363.4108604023886
1343.0680075105338 3016.566262968835
1343.888591524741 3016.842375261182
1344.7089748069138 3261.495106484131
1345.5291574125276 3102.3519095068045
1346.3491393970307 2867.7627179241217
1347.168920815846 3090.0082270661214
1347.9885017243778 3136.505647014793
1348.8078821780036 3051.021291710409
1349.6270622320844 3146.369792860979
1350.4460419419447 2979.482693533614
1351.2648213629054 3295.702484344825
1352.0834005502438 2862.8072274501806
1352.90177955923 3033.362637566953
1353.7199584451064 3543.523789412045
1354.5379372630887 3105.834210458713
1355.355716068374 3013.6676034067555
1356.1732949161305 2994.7106461156136
1356.9906738615155 3058.0442033560967
1357.8078529596478 3105.869699234149
1358.6248322656375 3099.3210654027894
1359.441611834567 2954.7254594819046
1360.2581917214866 3295.122395243504
1361.0745719814367 3000.029299088167
1361.890752669433 2964.5517835992787
1362.7067338404577 2993.280599665529
1363.5225155494845 3257.3683592078573
1364.3380978514506 3211.2476267375378
1365.1534808012839 2861.465695453958
1365.9686644538815 2800.442162929539
1366.783648864117 3186.7631823925617
1367.5984340868417 3193.063181467178
1368.413020176893 3175.4030614513786
1369.2274071890715 2987.19491020439
1370.0415951781652 3190.105790308142
1370.8555841989346 3078.9912183424985
1371.6693743061223 2891.544732250849
1372.48296555444 2927.8361541784493
1373.2963579985844 3173.919110118686
1374.1095516932255 3030.2272077165135
1374.9225466930166 2860.2476736175545
1375.7353430525782 3051.2227892292767
1376.5479408265164 2935.0244846189744
1377.36034006941 3056.363309247522
1378.1725408358216 3077.412152023754
1378.9845431802805 2868.055258709702
1379.796347157304 3228.2107627681135
1380.6079528213813 3101.129132013958
1381.4193602269788 2833.555577396299
1382.230569428546 2849.705105416925
1383.0415804805016 3224.0941506184236
1383.852393437246 3062.3357335842243
1384.6630083531563 3037.8351235020314
1385.4734252825892 2961.172136583704
1386.2836442798798 2942.97905647624
1387.0936653993322 2979.032418692973
1387.9034886952395 2856.3302954454775
1388.713114221864 2997.7751239403487
1389.5225420334482 3027.2724934213616
1390.331772184214 2834.1751187249856
1391.1408047283585 2850.583283904455
1391.9496397200564 2878.8227501307306
1392.758277213461 2989.0693114693195
1393.5667172627054 3071.2862458278055
1394.3749599218918 2792.210948924083
1395.1830052451114 2737.077109805239
1395.9908532864265 2872.6464610059656
1396.7985040998774 3048.83194952228
1397.6059577394808 2708.6363485906286
1398.4132142592352 2893.0222292989265
1399.2202737131156 2825.3900991255277
1400.027136155073 2924.0606770241006
1400.8338016390353 2887.0395459728047
1401.6402702189134 2803.0784339804013
1402.446541948586 2829.9626491628837
1403.2526168819204 2756.764511390789
1404.058495072757 2758.1508995843715
1404.8641765749107 2822.8179138298287
1405.6696614421799 2887.1700798774427
1406.4749497283356 3066.641118832963
1407.280041487129 2771.2775453316544
1408.084936772295 2637.9669659338565
1408.8896356375335 2860.6734546141606
1409.6941381365323 2882.980764917389
1410.498444322955 2662.7730226586564
1411.3025542504402 2755.682140402808
1412.106467972606 2840.60261827456
1412.9101855430508 2885.6743704953487
1413.7137070153458 2543.9266484634136
1414.5170324430437 2668.077714401153
1415.320161879672 2757.740140384097
1416.1230953787435 3023.3571813622825
1416.925832993742 2690.111287105364
1417.7283747781275 2524.0396093212503
1418.5307207853439 2788.201303588868
1419.3328710688093 2723.060544705408
1420.134825681922 2497.279810959123
1420.9365846780584 2578.2246034737977
1421.7381481105713 2843.627076751143
1422.539516032788 2770.448065217404
1423.3406884980232 2522.149577468055
1424.1416655595604 2501.0043638903844
1424.942447270665 2633.6080544015467
1425.7430336845828 2719.0826870065785
1426.5434248545298 2514.351236509452
1427.3436208337116 2667.406073857718
1428.143621675301 2699.3185775425413
1428.9434274324558 2822.0108569953863
1429.7430381583108 2446.485990801214
1430.5424539059713 2579.290562028037
1431.3416747285337 3094.5039766326204
1432.1407006790632 2692.834208613007
1432.9395318106053 2687.2939679304723
1433.7381681761835 2511.4719388139533
1434.5366098288014 2612.287189984866
1435.3348568214424 2743.7274450154505
1436.1329092070573 2540.6040443040024
1436.9307670385879 2524.936668663214
1437.7284303689503 2684.8417100413235
1438.5258992510335 2784.97402453007
1439.3231737377118 2708.858835651813
1440.1202538818306 2596.3224967128217
1440.9171397362225 2606.5264221276393
1441.7138313536925 2648.728912323327
1442.5103287870243 2532.017949720197
1443.3066320889775 2494.9528401570597
1444.1027413122956 2680.042606690171
1444.8986565096966 2527.384824074993
1445.694377733882 2589.602129372903
1446.4899050375207 2560.1022392807954
1447.2852384732687 2520.650813824387
1448.0803780937622 2795.1254142651665
1448.8753239516063 2494.6061708356765
1449.6700760993954 2457.5176327804047
1450.464634589689 2456.5609960200545
1451.2589994750397 2728.05230983378
1452.0531708079689 2475.2419567913557
1452.8471486409799 2453.391178539562
1453.6409330265524 2740.380069597172
1454.4345240171442 2569.558384487754
1455.2279216651987 2525.110860293801
1456.0211260231263 2491.0287692216166
1456.8141371433194 2643.374556905265
1457.6069550781594 2687.036678563044
1458.3995798799897 2433.3180467326124
1459.1920116011424 2547.1642575436663
1459.98425029393 2437.5854656226943
1460.7762960106338 2434.172101540399
1461.5681488035225 2505.742395035621
1462.3598087248392 2567.460452649778
1463.1512758268036 2729.394583194687
1463.942550161617 2513.8380178541806
1464.7336317814625 2400.0401007203973
1465.524520738496 2479.2639892498655
1466.3152170848552 2395.07866746321
1467.1057208726506 2600.040987343584
1467.8960321539817 2357.884133956873
1468.6861509809169 2350.557248018772
1469.4760774055085 2389.360645617302
1470.265811479785 2630.748286980637
1471.055353255755 2298.5248240129686
1471.844702785409 2392.170201952164
1472.6338601207044 2341.605536761631
1473.4228253135934 2350.334394243008
1474.2115984159936 2359.204581785719
1475.0001794798063 2184.3654269093904
1475.7885685569145 2429.194378099878
1476.576765699172 2523.2889871717853
1477.3647709584238 2431.532732810817
1478.1525843864802 2641.251410769709
1478.9402060351367 2647.1753265029324
1479.7276359561693 2530.8427660001457
1480.514874201328 2437.250159992732
1481.3019208223468 2290.284662071796
1482.0887758709323 2276.641899333427
1482.8754393987747 2584.5326848377217
1483.6619114575406 2235.092551559234
1484.4481920988783 2519.680233513085
1485.2342813744108 2578.4836203405694
1486.0201793357446 2675.344485237357
1486.8058860344572 2403.7116467727183
1487.591401522117 2488.868873452949
1488.3767258502594 2373.5795986419753
1489.1618590704056 2439.3071969949733
1489.9468012340494 2228.7850801981854
1490.7315523926754 2485.9981148331144
1491.5161125977356 2509.6445856413657
1492.3004819006637 2439.184560607714
1493.084660352877 2295.294350833971
1493.8686480057622 2511.295767485603
1494.6524449106964 2729.3104562948547
1495.4360511190262 2645.5303583653554
1496.219466682087 2390.2482875578557
1497.0026916511779 2557.1540029054013
1497.7857260775945 2435.453411262762
1498.5685700125996 2470.9506352415556
1499.3512235074395 2432.868772447748
1500.133686613337 2352.234173550765
1500.9159593814966 2318.295831715031
1501.698041863101 2274.7877304543267
1502.4799341093094 2231.3287823610776
1503.2616361712662 2179.513685331684
1504.043148100087 2582.7406801978286
1504.8244699468742 2615.032362384994
1505.6056017626997 2298.3297001245764
1506.3865435986281 2137.2502561631236
1507.1672955056893 2467.6364503584837
1507.9478575348967 2367.5533296345843
1508.7282297372512 2452.2571545016913
1509.5084121637192 2434.780273441604
1510.2884048652577 2406.8296648803534
1511.0682078927948 2297.9602593502764
1511.8478212972423 2264.510165903355
1512.6272451294917 2303.6070990478192
1513.4064794404076 2538.108886196636
1514.1855242808433 2363.619128402448
1514.9643797016215 2360.9123563082235
1515.743045753552 2414.1277707880818
1516.5215224874191 2458.9160107822577
1517.2998099539836 2090.5232148121513
1518.077908203999 2295.653700418815
1518.8558172881785 2341.521315535417
1519.633537257234 2482.747151798717
1520.4110681618404 2388.134982220137
1521.1884100526604 2436.395677663505
1521.9655629803365 2405.929361642363
1522.7425269954856 2612.1507270324973
1523.5193021487103 2621.537568719262
1524.2958884905856 2248.5891551740524
1525.0722860716687 2269.26621864076
1525.848494942502 2351.2923211589723
1526.624515153595 2324.7153837764645
1527.4003467554485 2372.4234317366318
1528.175989798534 2505.0322059437117
1528.9514443333064 2442.7591819071645
1529.726710410203 2646.348969879236
1530.5017880796331 2283.9939907540456
1531.276677391992 2333.5549103846374
1532.0513783976457 2566.9658569193275
1532.825891146953 2417.2822847043144
1533.6002156902414 2467.4783343410777
1534.3743520778207 2493.6070570269158
1535.1483003599806 2425.1738099500535
1535.9220605869923 2397.556516272508
1536.6956328091019 2400.964271382897
1537.4690170765407 2415.0505330176447
1538.242213439511 2569.4236254878674
1539.015221948208 2392.804458578172
1539.78804265279 2227.132356688806
1540.560675603405 2120.2272781168176
1541.3331208501804 2610.2401766649373
1542.1053784432224 2502.0092959539006
1542.8774484326168 2425.2575216641144
1543.649330868422 2410.6411218510775
1544.4210258006842 2472.696912662249
1545.1925332794308 2327.669800385822
1545.9638533546604 2266.272977154145
1546.7349860763552 2176.8168954467546
1547.5059314944829 2629.8387392786512
1548.27668965898 2389.9323095414848
1549.0472606197673 2429.848344508935
1549.817644426752 2348.7527947562444
1550.5878411298072 2528.1245567266033
1551.3578507787988 2411.674801528455
1552.1276734235635 2288.0602446125613
1552.8973091139233 2358.8263102201117
1553.6667578996767 2506.008253199626
1554.436019830604 2449.011391826746
1555.20509495646 2328.7000607389677
1555.9739833269869 2251.055722498402
1556.7426849919011 2151.0003522930438
1557.511200000903 2247.197065136458
1558.2795284036674 2343.3807961131233
1559.0476702498509 2353.0683369325393
1559.8156255890954 2518.1549832877386
1560.5833944710157 2536.9254840290896
1561.3509769452048 2318.9863738719023
1562.1183730612447 2383.778941829903
1562.8855828686865 2368.7316505334456
1563.6526064170703 2625.7662096367903
1564.4194437559127 2578.759171036668
1565.1860949347047 2298.1649528507014
1565.9525600029283 2645.605068252917
1566.7188390100328 2709.1297855134426
1567.4849320054564 2248.3649987956837
1568.250839038612 2373.5044579912965
1569.0165601588997 2362.1173004218517
1569.7820954156887 2598.953836324743
1570.5474448583373 2416.5750924319686
1571.31260853618 2281.406717901636
1572.0775864985299 2162.7455663408828
1572.8423787946813 2396.7051400087425
1573.6069854739108 2189.8393765115916
1574.371406585471 2438.015585701296
1575.1356421785986 2469.3828567263013
1575.899692302506 2341.5034989247274
1576.6635570063845 2358.482756222341
1577.4272363394157 2287.6318049229603
1578.190730350747 2378.8622034345126
1578.9540390895163 2324.907995763998
1579.7171626048384 2091.267199540809
1580.480100945806 2256.5953825591955
1581.2428541614918 2276.7114157208607
1582.0054223009538 2328.5274759767794
1582.767805413223 2387.9722503331227
1583.5300035473156 2276.0438785316724
1584.292016752228 2452.120837531912
1585.0538450769309 2462.106989665796
1585.8154885703807 2265.8444662456754
1586.5769472815136 2231.1440761823405
1587.3382212592405 2301.965931723786
1588.099310552463 2566.3956681288532
1588.8602152100484 2129.6700431653044
1589.6209352808564 2413.430265274358
1590.3814708137234 2531.990864886317
1591.14182185746 2120.0599656846125
1591.9019884608679 2418.8482482562963
1592.6619706727215 2132.0250177283606
1593.4217685417734 2350.1299527470437
1594.1813821167616 2609.353441567576
1594.9408114464022 2266.625091471542
1595.7000565793933 2303.65100733242
1596.459117564409 2462.248402740695
1597.2179944501113 2298.570706650051
1597.9766872851324 2405.222598226489
1598.735196118092 2476.3870502565637
1599.4935209975883 2492.823282134196
1600.2516619721973 2693.6809336621473
1601.0096190904787 2305.9383196698423
1601.7673924009723 2424.15647059615
1602.524981952196 2339.891614299484
1603.2823877926476 2282.0084426636486
1604.0396099708087 2297.7923036105526
1604.7966485351371 2354.7695225019934
1605.5535035340745 2310.394051367582
1606.3101750160404 2624.7024839691826
1607.0666630294363 2180.5107029953115
1607.822967622642 2044.9100675089244
1608.5790888440224 2420.9076261458586
1609.3350267419137 2466.288941101465
1610.0907813646445 2289.5220566231737
1610.8463527605145 2431.620338350359
1611.601740977805 2511.4615869266977
1612.356946064785 2330.1528476328813
1613.1119680696902 2113.891210413597
1613.8668070407512 2214.4102639792727
1614.6214630261748 2344.5225672768674
1615.375936074137 2336.622842994177
1616.1302262328118 2420.568970590616
1616.8843335503425 2416.6142771541663
1617.638258074854 2266.281798476414
1618.391999854457 2371.552035853506
1619.1455589372363 2386.933908795629
1619.8989353712623 2418.562352259715
1620.65212920458 2129.9656828203756
1621.4051404852235 2404.7087204139452
1622.1579692611976 2311.50001715091
1622.9106155804966 2069.0076305784537
1623.663079491087 2228.6123303813188
1624.4153610409248 2373.8179123392183
1625.1674602779385 2252.0735866296723
1625.9193772500403 2177.289335181632
1626.6711120051277 2442.4615997064316
1627.4226645910676 2309.6556376579306
1628.174035055721 2038.1534886848362
1628.9252234469168 2305.740620361367
1629.676229812474 2165.8530048378434
1630.4270542001905 2252.130781354567
1631.1776966578382 2338.5834664380855
1631.9281572331747 2261.882544329935
1632.678435973945 2276.336077657573
1633.4285329278573 2365.7552645254877
1634.1784481426203 2101.313007429605
1634.9281816659113 2334.5662133811984
1635.677733545388 2544.282902393191
1636.4271038286934 2167.4423617936086
1637.176292563452 2339.150317055717
1637.9252997972635 2201.623272549504
1638.674125577716 2325.317618564734
1639.4227699523672 2168.662440346731
1640.171232968767 2565.972410364201
1640.9195146744423 2369.9636936396914
1641.6676151168977 2460.9480864489333
1642.4155343436178 2320.3019472076885
1643.1632724020765 2432.3978596265233
1643.9108293397167 2322.6883003894495
1644.658205203974 2149.861568958134
1645.4054000422566 2217.541991497727
1646.1524139019566 2285.104437102094
1646.8992468304423 2183.8947936106015
1647.6458988750728 2231.661009135105
1648.3923700831765 2260.176817649761
1649.1386605020743 2248.08712857018
1649.8847701790564 2384.0806190691796
1650.6306991614038 2326.7971576332848
1651.3764474963682 2477.2906930498234
1652.1220152311944 2115.6203303377974
1652.867402413096 2299.7957451450834
1653.6126090892776 2220.0107069008536
1654.3576353069184 2515.9069188222434
1655.1024811131829 2359.821215240226
1655.8471465552066 2348.9660982916394
1656.5916316801213 2379.309360629529
1657.3359365350298 2385.456692569189
1658.0800611670165 2341.515705660816
1658.824005623148 2371.744023674323
1659.5677699504722 2129.132747407237
1660.3113541960192 2313.577991408483
1661.054758406799 2331.4563668585897
1661.7979826297997 2118.7678073848774
1662.5410269119966 2168.6798557087122
1663.283891300338 2521.640391931107
1664.0265758417645 2207.8621744343463
1664.7690805831826 2242.1670583636137
1665.5114055714948 2550.0747876493197
1666.2535508535748 2701.303343867467
1666.9955164762814 1984.6909753205514
1667.7373024864555 2236.0025696715275
1668.478908930916 2295.929808744212
1669.220335856462 2035.491378411387
1669.9615833098778 2196.0062590618268
1670.7026513379296 1984.777143787171
1671.44353998736 2324.0276441961314
1672.1842493048916 2332.015456562608
1672.9247793372379 2195.523933053905
1673.6651301310812 2324.3093707489265
1674.4053017330934 2115.895343053543
1675.1452941899242 1950.0977405601848
1675.885107548207 1784.0289274685863
1676.6247418545518 1979.915942525347
1677.3641971555535 2167.5358818398536
1678.1034734977893 2336.00902354246
1678.8425709278108 2214.5279973294228
1679.5814894921605 2261.5515984420445
1680.320229237359 2031.6402210387114
1681.0587902098978 2248.174386056603
1681.7971724562685 2140.8917446143537
1682.5353760229264 2198.421746798621
1683.2734009563173 2181.752999620231
1684.0112473028657 2178.7729100398965
1684.7489151089794 2197.4885786659243
1685.4864044210462 2213.398180815586
1686.2237152854377 1955.4691498135842
1686.960847748498 2349.77990230584
1687.6978018565642 2056.3133002003106
1688.434577655944 1968.2467601773321
1689.1711751929379 2057.791051460764
1689.9075945138156 2090.1827579910255
1690.6438356648396 2018.7165227330138
1691.3798986922448 1756.5205205692073
1692.1157836422499 1943.629685029019
1692.851490561059 2018.0000316099267
1693.587019494853 2085.0310456432553
1694.3223704897991 1841.9825090510828
1695.0575435920364 1759.8188676159048
1695.792538847696 2254.358291438586
1696.527356302886 2004.130980399073
1697.2619960036936 1711.9764791247767
1697.9964579961907 1943.1654505230679
1698.730742326432 1499.3067082534312
1699.4648490404488 1691.1676709304909
1700.1987781842563 1826.8730314864806
1700.9325298038548 2131.332283610405
1701.6661039452174 2167.064972652069
1702.3995006543082 1931.4174429813283
1703.1327199770658 1956.2042849472996
1703.865761959416 1801.0982293996672
1704.598626647261 2145.8922159840695
1705.3313140864866 1809.1200831356969
1706.0638243229587 1933.688286991334
1706.7961574025303 2040.8143098090848
1707.528313371029 1971.0155806897594
1708.260292274268 1644.024701552183
1708.9920941580403 1873.6574978929639
1709.7237190681226 1971.1055698057048
1710.4551670502697 1945.700104396715
1711.18643815022 2036.7912734061526
1711.9175324136959 2127.9492672815277
1712.6484498863938 1831.1814941521352
1713.379190614005 1637.2579847387174
1714.109754642188 1924.9484269480595
1714.8401420165883 1785.315025455447
1715.570352782839 2069.3850819598206
1716.3003869865497 2019.893078164409
1717.0302446733076 1694.7419243850084
1717.7599258886876 1801.3979937139557
1718.4894306782444 2041.779021949445
1719.2187590875183 1804.549717678105
1719.9479111620203 1907.7449517400946
1720.6768869472544 1809.8629648527524
1721.4056864887025 2070.488545861552
1722.1343098318284 2129.9853910784404
1722.8627570220742 1822.81042819309
1723.591028104871 1714.0237512840736
1724.3191231256242 1641.0636188381188
1725.0470421297232 1870.1638315067623
1725.7747851625427 1930.1669086698555
1726.5023522694337 1952.4464530162554
1727.2297434957363 1834.4933538250225
1727.9569588867635 1652.262206102383
1728.6839984878152 1979.601524276541
1729.4108623441734 1976.1497839364179
1730.1375505011038 1972.8851496690318
1730.8640630038426 1749.2528820413743
1731.5903998976264 1676.743204388137
1732.316561227657 1894.2534865726807
1733.0425470391274 1803.9563887370518
1733.7683573772065 1888.069768857101
1734.4939922870508 1716.3709286039357
1735.2194518137949 1700.1395007377428
1735.9447360025606 1845.9729410132081
1736.669844898439 1744.2454273801402
1737.3947785465189 1646.7543583015474
1738.1195369918605 1539.0076689470077
1738.8441202795093 1767.2527903417201
1739.5685284544943 1871.8000391848502
1740.292761561821 1901.3682799477963
1741.0168196464838 1905.6097623058206
1741.7407027534518 1781.0748031721748
1742.464410927687 1883.3679985941465
1743.187944214118 1683.5365554994692
1743.9113026576688 1632.4834905205432
1744.634486303241 1714.3921793032648
1745.3574951957125 1674.2775915286759
1746.0803293799509 1842.7917107911064
1746.8029889008048 1629.5852980344112
1747.5254738031017 1644.2981257540553
1748.2477841316504 1659.0675953242276
1748.969919931249 1725.645386620154
1749.6918812466665 1689.47361072995
1750.4136681226646 1972.2403020199156
1751.1352806039777 1743.2836360818292
1751.856718735331 1745.1189704219687
1752.5779825614281 1692.6512236185147
1753.2990721269507 1761.4333008734507
1754.0199874765676 1931.5948268747766
1754.7407286549314 1543.2993184720506
1755.4612957066693 1801.6379322179243
1756.1816886763954 1636.2786443964828
1756.9019076087097 1859.6875330773455
1757.6219525481865 1815.7147474535545
1758.3418235393856 1723.7205517676714
1759.061520626854 1798.2740467992621
1759.7810438551096 1890.0205381425817
1760.5003932686614 1613.3766263875277
1761.2195689119999 1590.580659962614
1761.938570829594 1567.8202954813542
1762.657399065898 1739.8219435455042
1763.376053665348 1556.2953145125985
1764.0945346723602 1616.3376182295094
1764.812842131334 1925.9729265981891
1765.5309760866512 1620.5278092515923
1766.2489365826787 1607.0177446579944
1766.9667236637597 1711.8829406729715
1767.684337374223 1471.9708067068218
1768.401777758383 1481.4026280774024
1769.1190448605284 1588.237860598776
1769.836138724937 1594.753051323099
1770.5530593958665 1752.7916184507624
1771.2698069175603 1832.5887741577505
1771.9863813342326 1748.795328715584
1772.702782690094 1694.1740907621756
1773.4190110293293 1731.7209061375593
1774.1350663961111 1968.4961967921604
1774.8509488345844 1608.6919162620684
1775.5666583888924 1683.3707308662993
1776.2821951031437 1883.5237500689109
1776.9975590214362 1608.1500091090188
1777.7127501878585 1974.1432468134674
1778.4277686464684 1817.8438658448908
1779.1426144413108 1905.0326957245707
1779.8572876164162 1824.05168083535
1780.571788215797 1621.0146374562253
1781.2861162834415 1690.8888058164043
1782.0002718633277 1615.3512740200426
1782.7142549994132 1694.2509512174197
1783.4280657356376 1840.1371379682041
1784.141704115922 1527.9901602242712
1784.855170184177 1666.4996846920355
1785.5684639842839 1758.2576686694076
1786.2815855601148 1426.4066132526013
1786.9945349555237 1743.785917878485
1787.707312214343 1562.9065939521367
1788.4199173803918 1872.1287175493253
1789.132350497468 1672.6675534955812
1789.8446116093583 1666.214343662102
1790.556700759822 1599.7218624782174
1791.2686179926077 1478.6319790839516
1791.9803633514493 1609.0117135949547
1792.6919368800554 1369.417905924401
1793.4033386221236 1767.7052092782603
1794.1145686213295 1714.0317966952305
1794.8256269213307 1845.1184262071233
1795.536513565774 1904.386198045401
1796.247228598284 1711.2480207223223
1796.9577720624693 1517.690807013596
1797.6681440019165 1616.1934862547787
1798.3783444602013 1712.3790415691121
1799.0883734808776 1733.771198556596
1799.7982311074884 1824.315581302312
1800.5079173835475 1593.3072882552317
1801.2174323525633 1872.6578151603383
1801.9267760580187 1624.6022924100848
1802.635948543386 1768.6661521946
1803.3449498521113 1557.2767290165589
1804.0537800276325 1710.4928326278236
1804.7624391133668 1613.8485512466148
1805.47092715271 1478.1626517222626
1806.1792441890484 1468.3488109219443
1806.8873902657433 1697.4806921213392
1807.5953654261448 1640.5646956774635
1808.3031697135812 1561.1606818690777
1809.0108031713662 1642.0901710032238
1809.71826584279 1547.5587202284785
1810.425557771141 1568.5571602055184
1811.1326789996747 1679.8768527954885
1811.839629571632 1791.2331828918607
1812.5464095302468 1511.9463807973875
1813.2530189187182 1711.1813771149634
1813.959457780249 1618.4348375582251
1814.6657261580076 1796.1107594765836
1815.371824095153 1594.7237143379552
1816.0777516348262 1782.6139450683236
1816.78350882015 1528.4561591927938
1817.4890956942272 1479.8786529094282
1818.1945123001533 1562.6946176599756
1818.8997586809928 1549.3308843643013
1819.6048348798067 1600.4722510635124
1820.3097409396287 1577.8682893125554
1821.0144769034796 1879.7767059914845
1821.7190428143622 1684.2773539404411
1822.423438715261 1918.3154990360035
1823.1276646491478 1624.2187927366517
1823.8317206589727 1648.211603654699
1824.5356067876692 1677.196055113824
1825.2393230781581 1738.9285006451441
1825.942869573335 1348.4358463694102
1826.646246316086 1555.5511175216516
1827.3494533492758 1694.653099177541
1828.052490715756 1649.6387852243138
1828.7553584583547 1629.0411452441772
1829.458056619891 1690.1154997943588
1830.1605852431585 1386.7519442473463
1830.8629443709433 1482.4398040819112
1831.5651340460063 1617.8769513781665
1832.2671543110919 1746.7824938319973
1832.9690052089318 1590.005863600088
1833.6706867822395 1447.5151569630902
1834.3721990737104 1804.0967312296107
1835.0735421260233 1741.377963873832
1835.774715981841 1681.3823016338513
1836.4757206838058 1480.9949950802395
1837.1765562745459 1640.6149299131914
1837.8772227966747 1381.3634419840457
1838.5777202927839 1665.3409138239235
1839.2780488054523 1559.9630892441205
1839.9782083772352 1464.5734465812789
1840.6781990506806 1781.4640621659687
1841.378020868313 1606.0113004748573
1842.0776738726418 1577.6169731726848
1842.777158106157 1543.3641288654194
1843.4764736113375 1522.1677616621246
1844.1756204306403 1673.3251115203827
1844.8745986065078 1821.3261673589964
1845.5734081813607 1416.1113819218235
1846.2720491976124 1508.3105408794127
1846.970521697649 1545.5042246235519
1847.6688257238511 1437.115363446907
1848.3669613185684 1594.8312974818073
1849.0649285241452 1380.2575650658418
1849.7627273829057 1457.6113452195505
1850.460357937156 1393.2582970408207
1851.1578202291857 1329.2125293464233
1851.8551143012664 1616.364541910753
1852.5522401956569 1673.8517292742486
1853.2491979545957 1835.012271506468
1853.9459876203055 1440.203950407188
1854.6426092349902 1544.2471613761495
1855.3390628408451 1474.4498097917028
1856.0353484800362 1833.489893096393
1856.7314661947203 1572.3870469126978
1857.4274160270397 1272.917273832981
1858.123198019115 1504.8117425872897
1858.8188122130487 1514.658788567974
1859.5142586509319 1536.6360340382805
1860.209537374838 1531.7660465689692
1860.9046484268183 1490.4380868669841
1861.599591848917 1736.3705917222414
1862.294367683151 1430.1264688053882
1862.988975971528 1464.2031097370088
1863.6834167560355 1760.182715548425
1864.3776900786452 1698.7444811876035
1865.0717959813119 1434.2194615259136
1865.7657345059724 1567.7768037622177
1866.4595056945564 1513.9778327408662
1867.1531095889586 1703.7704763569632
1867.846546231076 1747.5467858360905
1868.5398156627743 1791.4495360562498
1869.2329179259123 1557.5087552433358
1869.9258530623283 1521.6134859928138
1870.618621113843 1485.6252706436353
1871.3112221222636 1376.25212190324
1872.0036561293764 1441.441652457384
1872.695923176956 1722.921776842093
1873.3880233067594 1758.5166061623029
1874.0799565605212 1425.335490950007
1874.7717229799673 1458.1464301370886
1875.4633226068036 1541.290171330257
1876.1547554827175 1624.5964842922585
1876.8460216493859 1506.7037928370703
1877.5371211484617 1516.7698833752797
1878.2280540215852 1652.4415822308274
1878.9188203103804 1371.367586252109
1879.6094200564548 1624.9261991084509
1880.299853301396 1307.8904360052823
1880.9901200867826 1604.3405038322185
1881.6802204541673 1463.4706316357926
1882.3701544450942 1553.3988231289156
1883.059922101087 1530.503086640551
1883.7495234636517 1825.2206028048543
1884.4389585742792 1531.7317529829438
1885.1282274744517 1485.5343830796046
1885.8173302056166 1525.755281690328
1886.506266809225 1566.0322657959327
1887.195037326701 1312.6383797261412
1887.8836417994517 1488.672926047208
1888.5720802688702 1816.0959395851035
1889.260352776333 1753.9216467183892
1889.9484593632042 1705.126640271165
1890.63640007082 1612.380290600264
1891.3241749405151 1470.1848824797105
1892.0117840135954 1479.4787419079296
1892.6992273313572 1479.8144546490823
1893.3865049350788 1493.6273006958377
1894.0736168660223 1780.0894242810846
1894.7605631654333 1547.3209068442738
1895.4473438745408 1666.0517464840916
1896.133959034556 1446.6808075918786
1896.820408686679 1586.5534590142927
1897.506692872088 1842.116270319972
1898.192811631945 1536.9101609542017
1898.8787650073991 1576.6803820684231
1899.5645530395832 1713.3339820230146
1900.2501757696118 1690.9532483549306
1900.9356332385796 1404.1651210248615
1901.620925487574 1727.1448093784438
1902.3060525576602 1558.1176007381277
1902.9910144898859 1640.467729633112
1903.6758113252872 1487.6007769475748
1904.3604431048789 1441.8727060757385
1905.0449098696663 1605.6487840874877
1905.7292116606295 1592.835264606679
1906.4133485187394 1587.2917981247695
1907.0973204849488 1558.396162846098
1907.7811276001976 1529.4048492874451
1908.4647699053967 1599.6976483618596
1909.1482474414588 1362.8656481695373
1909.8315602492694 1458.7010780855294
1910.5147083696957 1640.9891440974043
1911.1976918436012 1547.6583061704482
1911.880510711815 1476.1826153031127
1912.5631650151681 1584.109114212186
1913.2456547944657 1438.7224878903764
1913.927980090495 1427.750602588698
1914.6101409440362 1367.8529321751744
1915.2921373958416 1543.3815466458666
1915.9739694866603 1447.475243974245
1916.655637257214 1497.5833680365479
1917.3371407482136 1547.7769465947554
1918.0184800003572 1636.9381895919646
1918.6996550543154 1603.8295687561385
1919.3806659507554 1658.7275434243177
1920.0615127303208 1773.0149307618933
1920.7421954336423 1697.8910433758872
1921.4227141013343 1694.1685846707373
1922.103068773993 1507.257980112339
1922.783259492202 1784.3501708876097
1923.4632862965227 1494.9801045631814
1924.1431492275078 1469.8370167811472
1924.8228483256917 1318.9208430783256
1925.5023836315922 1568.898291155324
1926.1817551857057 1645.2393953007208
1926.8609630285227 1334.5725691827522
1927.5400072005123 1409.1002818322017
1928.218887742125 1475.879428660949
1928.8976046938005 1522.7380038821443
1929.5761580959588 1569.7932863715882
1930.2545479890086 1620.3401225258049
1930.9327744133352 1354.3804362715587
1931.6108374093164 1594.9659034965362
1932.2887370173066 1788.0806344521177
1932.9664732776473 1651.5256528623327
1933.6440462306673 1514.5973366040866
1934.3214559166754 1357.4570753470985
1934.9987023759659 1795.0838320339274
1935.675785648813 1633.0931142801958
1936.3527057754836 1703.5333871255098
1937.029462796223 1774.1395941624935
1937.70605675126 1453.9420802928466
1938.3824876808085 1526.8885752714273
1939.058755625072 1366.7193043359803
1939.7348606242267 1414.0453686884116
1940.4108027184448 1415.6755313279725
1941.0865819478713 1394.3734681717492
1941.7621983526478 1373.0143096199654
1942.4376519728921 1356.380999652123
1943.1129428487038 1551.5913816199359
1943.7880710201734 1588.8173038692446
1944.4630365273733 1431.0092817008701
1945.1378394103576 1197.788110676594
1945.8124797091714 1216.8106491516724
1946.4869574638324 1235.8283998759664
1947.161272714353 1434.7731171951878
1947.8354255007234 1570.3213712318252
1948.5094158629272 1429.6646627534728
1949.1832438409183 1548.0025755940724
1949.8569094746435 1566.8182682282227
1950.530412804037 1607.9530228854856
1951.2037538690092 1767.4945614660537
1951.8769327094578 1507.8929630653008
1952.5499493652678 1547.0753246888635
1953.222803876306 1725.3196856961308
1953.895496282421 1483.3429139486584
1954.5680266234522 1578.871773268687
1955.2403949392155 1592.6024301939685
1955.9126012695142 1302.046622098209
1956.5846456541403 1501.935118598248
1957.2565281328643 1313.4801283943705
1957.9282487454457 1654.4002420422462
1958.5998075316202 1786.618356958605
1959.27120453112 1437.6636365187298
1959.9424397836501 1511.2770575079246
1960.613513328908 1632.074242140112
1961.2844252065697 1735.3970840551476
1961.9551754563017 1550.2250815357627
1962.6257641177453 1456.0693482354104
1963.29619123054 1394.149982183647
1963.966456834296 1336.995881476185
1964.6365609686181 1220.664701177397
1965.306503673086 1532.5484702797362
1965.976284987275 1371.7722360080054
1966.645904950734 1378.381966335322
1967.315363603002 1306.0463434885562
1967.9846609836077 1423.0350242953182
1968.6537971320486 1485.7579469794427
1969.3227720878222 1480.3286844813942
1969.9915858904042 1323.7457121326302
1970.660238579252 1516.860861544233
1971.3287301938108 1521.4160127689618
1971.997060773514 1207.6821244416851
1972.665230357772 1460.7588092042377
1973.3332389859843 1359.8265674894315
1974.0010866975335 1312.3779324868653
1974.6687735317864 1570.4321503841572
1975.3362995280932 1514.215042660972
1976.003664725793 1524.4090375772107
1976.6708691642052 1514.6256688519618
1977.3379128826364 1504.706754346295
1978.004795920373 1636.060096004197
1978.6715183166925 1461.6594977604066
1979.3380801108524 1734.1199015363316
1980.0044813420973 1530.1922875069408
1980.6707220496555 1258.7281275568398
1981.3368022727373 1375.5090062613524
1982.0027220505417 1221.6944084354209
1982.66848142225 1067.7114049919692
1983.3340804270283 1195.920089823201
1983.999519104027 1518.902298619899
1984.6647974923835 1712.1035288453163
1985.329915631215 1660.5843891930144
1985.99487355963 1439.9961189576052
1986.6596713167146 1603.3647498957566
1987.3243089415428 1468.8063552164135
1987.9887864731754 1696.906580949626
1988.6531039506553 1768.9771336761198
1989.3172614130071 1841.179815919702
1989.9812588992481 1502.1615608050129
1990.645096448372 1344.6686632826945
1991.3087740993633 1537.2627081782373
1991.9722918911848 1533.6110614556442
1992.635649862792 1399.1073227982235
1993.2988480531185 1611.6483947761485
1993.9618865010852 1442.4845026994694
1994.6247652455968 1273.0422165968216
1995.287484325545 1158.3088979603979
1995.9500437798033 1511.4337999193287
1996.6124436472292 1241.6468534216463
1997.2746839666706 1536.5001706144274
1997.936764776954 1483.100353705428
1998.598686116895 1612.9629344883224
1999.2604480252903 1747.1997671602385
1999.9220505409212 1473.9563038718481
2000.5834937025593 1278.1586928383945
2001.2447775489582 1405.0236407455432
2001.9059021188514 1461.9756618663064
2002.5668674509616 1400.3335156066119
2003.2276735839987 1283.78589683803
2003.8883205566508 1286.7625064305253
2004.5488084075987 1289.7011478516322
2005.2091371755014 1350.5559354128134
2005.8693068990033 1374.3053058364817
2006.5293176167397 1324.1530068716525
2007.1891693673224 1274.034796564111
2007.848862189354 1241.055897617058
2008.5083961214223 1496.8546396107602
2009.1677712020955 1369.6373554264517
2009.8269874699254 1239.0865300057035
2010.4860449634598 1212.5266423028008
2011.1449437212177 1185.9686107898553
2011.8036837817108 1487.616714122091
2012.4622651834325 1671.9135079014886
2013.1206879648653 1624.08797351138
2013.7789521644736 1448.0661899581432
2014.4370578207036 1646.9189125970065
2015.0950049719922 1457.7469471997952
2015.7527936567585 1487.3486229589562
2016.4104239134067 1522.269371532488
2017.067895780323 1862.9333655298838
2017.725209295886 1897.8536943657848
2018.3823644984514 1932.8250750069626
2019.0393614263648 1452.175479961688
2019.6962001179545 1175.4756716881905
2020.3528806115355 1212.7421774060188
2021.0094029454067 1250.11625289817
2021.6657671578487 1319.1187400106733
2022.321973287133 1410.8175404199487
2022.9780213715148 1460.0025590033126
2023.6339114492293 1409.6602298935086
2024.2896435585026 1439.8215556374325
2024.9452177375442 1429.2621537543341
2025.600634024544 1672.0387298192848
2026.2558924576842 1439.506635173079
2026.9109930751292 1380.3344591905307
2027.565935915025 1336.124030719395
2028.2207210155066 1787.7401677703297
2028.8753484146964 1778.8052183166776
2029.529818150695 1696.2639159840587
2030.1841302615903 1613.345390114032
2030.8382847854573 1246.568817482676
2031.4922817603601 1272.3857556389648
2032.1461212243357 1233.49912712544
2032.7998032154192 1194.3602361493547
2033.4533277716218 1290.0036936090057
2034.1066949309443 1232.9690845504285
2034.7599047313688 1360.4637826305675
2035.4129572108704 1708.182619543056
2036.0658524074006 1609.249839946664
2036.7185903589016 1375.7183839747167
2037.3711711032956 1602.9636919176553
2038.023594678496 1522.6891181820986
2038.675861122394 1309.7988695953966
2039.3279704728757 1188.4256103792436
2039.9799227678031 1452.9046924939244
2040.6317180450278 1332.1757654401863
2041.2833563423865 1463.813785656565
2041.9348376977014 1597.9997914024852
2042.5861621487784 1464.1588343893625
2043.2373297334088 1691.0135586872552
2043.8883404893695 1481.962517534606
2044.5391944544208 1848.6447698795953
2045.1898916663158 1611.0596826202734
2045.8404321627804 1655.9663016330323
2046.4908159815368 1334.7013292236693
2047.1410431602853 1574.1407182314172
2047.7911137367173 1572.7714855755585
2048.441027748504 1571.3189380474187
2049.090785233302 1251.1750411540127
2049.7403862287592 1249.489423568723
2050.389830772503 1649.831192116794
2051.0391189021466 1147.3030264083632
2051.688250655294 1526.737382715917
2052.337226069527 1227.338803591794
2052.986045182417 1190.46847417875
2053.634708031521 1153.6424147682617
2054.283214654375 1430.7977667295381
2054.931565088511 1183.815476337992
2055.579759371436 1262.770467272892
2056.2277975406523 1457.0815729410592
2056.8756796336384 1342.2190162462311
2057.5234056878617 1227.0298092223463
2058.1709757407752 1242.321966712368
2058.8183898298194 1422.8196299798437
2059.465647992416 1655.3687756903528
2060.1127502659747 1603.4779439364684
2060.759696687888 1617.8087789109454
2061.4064872955405 1632.1581586632255
2062.053122126292 1581.4014104839273
2062.699601217497 1442.85830722147
2063.345924606485 1304.3403392514756
2063.992092330587 1421.6226379825669
2064.638104427102 1421.0277440955938
2065.283960933324 1665.6924269587932
2065.92966188653 1573.2576604707551
2066.5752073239855 1628.4716076832767
2067.2205972829397 1518.3465764882806
2067.86583180062 1408.135241681424
2068.5109109142522 1321.166165548147
2069.15583466104 1323.4874151667032
2069.8006030781708 1325.81217257434
2070.445216202821 1573.6642195423824
2071.089674072153 1671.2663612858134
2071.7339767233116 1559.1264919331063
2072.3781241934303 1375.0185677436082
2073.0221165196253 1376.824604965564
2073.6659537390024 1378.6803677593653
2074.3096358886505 1502.8594116591353
2074.953163005637 1224.7722513078747
2075.596535127028 1243.8410844615246
2076.2397522898664 1257.2308072754072
2076.882814531182 1428.7295820448894
2077.5257218879924 1600.445836300829
2078.1684743973 1265.3840464205316
2078.8110720960885 1320.1126123556112
2079.453515021336 1349.038996927046
2080.095803209997 1377.9615636304673
2080.7379366990135 1408.5948367247067
2081.37991552532 1324.1949725253348
2082.0217397258275 1517.050351982276
2082.6634093374414 1198.8763312171855
2083.3049243970418 1444.9354249023986
2083.9462849415067 1391.652227897211
2084.587491007689 1503.3757275684534
2085.2285426324324 1477.9936627476886
2085.869439852564 1515.0510869290104
2086.510182704902 1120.8499315937813
2087.1507712262483 1557.0466168251025
2087.791205453381 1074.1315147140353
2088.4314854230743 1619.9670044835016
2089.0716111720867 1406.6204709263918
2089.7115827371617 1102.3489932714012
2090.351400155023 1169.555001055255
2090.991063462385 1236.9399341320905
2091.6305726959527 1221.8393441647186
2092.2699278924047 1232.9981264840817
2092.9091290884153 1244.2279018642387
2093.548176320641 1316.8438762079998
2094.187069625721 1533.482709053977
2094.8258090402887 1224.8980383142793
2095.464394600951 1491.1415843868542
2096.102826344313 1420.035502536249
2096.741104306955 1318.2387976254847
2097.379228525453 1216.2182583055046
2098.017199036358 1115.1443409185404
2098.6550158762147 1264.2911132537738
2099.2926790815527 1413.7523359290249
2099.9301886888825 1566.4677652899861
2100.5675447347076 1565.771902053711
2101.2047472555114 1708.2912164545135
2101.841796287761 1621.828468966623
2102.47869186792 1535.188330572044
2103.1154340324265 1387.2225968202208
2103.752022817709 1369.7133098528861
2104.388458260184 1395.0188536571418
2105.024740396251 1545.4945792243516
2105.660869262292 1593.1534854092924
2106.296844894685 1640.9478592136115
2106.93266732978 1407.3481624420535
2107.5683366039284 1386.28760348267
2108.2038527534532 1365.209328332955
2108.8392158146726 1590.0844939552373
2109.4744258238843 1353.011221320161
2110.1094828173755 1376.392964050362
2110.744386831422 1337.82613431088
2111.3791379022787 1299.180328484617
2112.01373606619 1641.4694819331519
2112.648181359389 1308.669653252259
2113.28247381809 1518.6445142014938
2113.916613478492 1513.2966968036285
2114.550600376786 1356.1244452258516
2115.1844345491445 1435.4813985830108
2115.818116031729 1371.3708181920447
2116.451644860679 1338.705764075809
2117.085021072133 1213.2492731139166
2117.718244702204 1198.5319689350986
2118.3513157869984 1283.8785818186418
2118.984234362604 1212.847283002598
2119.617000465092 1355.7430602239288
2120.249614130529 1346.4038632578367
2120.8820753949585 1337.05226271924
2121.5143842944162 1394.564909868572
2122.14654086492 1168.7351702835754
2122.7785451424734 1583.9425558960252
2123.4103971630702 1576.4697604144262
2124.042096962681 1569.153020837835
2124.6736445772767 1356.6476539630664
2125.305040042802 1326.39006635768
2125.936283395191 1428.3486095846708
2126.567374670365 1531.7437509161036
2127.198313904233 1338.9973414430328
2127.8291011326855 1260.4338444631233
2128.4597363916037 1181.5561940382354
2129.0902197168507 1372.8112598256419
2129.720551144279 1555.545741736912
2130.3507307097225 1738.4355612008858
2130.980758449008 1601.253287111919
2131.6106343979427 1592.2224860323909
2132.2403585923203 1583.0990958218108
2132.8699310679276 1691.2167027956325
2133.499351860526 1458.553814800103
2134.1286210058715 1441.7740676081035
2134.7577385397053 1133.811753419971
2135.3867044977487 1423.3148718457091
2136.0155189157176 1693.226616348308
2136.644181829308 1759.5026705758623
2137.2726932742025 1695.6601509330242
2137.901053286074 1631.8094318281944
2138.5292619005777 1529.0132725602186
2139.1573191533535 1345.6857518293568
2139.7852250800315 1668.7899001033038
2140.4129797162295 1437.4964714707676
2141.0405830975433 1584.974120305974
2141.6680352595613 1217.0305695225074
2142.2953362378576 1336.844731240229
2142.9224860679915 1405.1054093939088
2143.549484785508 1267.3733706672908
2144.1763324259373 1483.7987897476564
2144.803029024799 1339.49230864794
2145.429574617594 1324.206559726807
2146.0559692398165 1256.7659939301084
2146.682212926942 1189.1158782173393
2147.308305714432 1360.2269989625815
2147.9342476377333 1577.2608241944422
2148.5600387322847 1653.261881946703
2149.185679033506 1710.287492036965
2149.8111685768017 1363.5837046023921
2150.4365073975678 1197.5756221890765
2151.061695531187 1330.063753281419
2151.686733013021 1327.5118785511347
2152.311619878423 1325.042314563508
2152.9363561627342 1321.3050919005057
2153.560941901278 1305.976978844482
2154.1853771293663 1291.787206184108
2154.809661882293 1598.3160275027865
2155.433796195348 1601.950581792611
2156.0577801037944 1496.150446122169
2156.681613642895 1684.5231747055973
2157.3052968478896 1550.1120778441077
2157.928829754006 1335.8068380174984
2158.552212396462 1598.9272686906331
2159.1754448104566 1415.526520878017
2159.7985270311783 1135.4340034069457
2160.4214590938027 1105.252527628009
2161.0442410334927 1306.761377184888
2161.6668728853874 1144.503542298936
2162.289354684628 1273.505972907175
2162.911686466332 1318.6601523592785
2163.533868265602 1530.9269513754996
2164.1559001175337 1784.9858425013888
2164.7777820572046 1715.1026493672878
2165.399514119681 1325.6944332359046
2166.021096340013 1498.2151132724928
2166.6425287532384 1184.1017520830696
2167.263811394385 1340.6228309588494
2167.8849442984574 1431.7553589101728
2168.505927500455 1105.963385535133
2169.126761035366 1532.802383750951
2169.7474449381552 1201.4230135066928
2170.367979243778 1091.7692700049906
2170.9883639871823 1651.5702227868733
2171.608599203293 1321.8178564053142
2172.2286849270276 1872.9486758673672
2172.8486211932886 1767.5360523398977
2173.4684080369625 1284.9360196993982
2174.0880454929265 1208.7179332448286
2174.7075335960417 1313.2554438837399
2175.3268723811543 1351.9257599919276
2175.9460618831 1390.7129723746398
2176.565102136701 1283.775228047859
2177.1839931767627 1354.5004375184674
2177.802735038078 1425.4320153460214
2178.421327755432 1190.3667845734908
2179.0397713635866 1366.5462749742826
2179.658065897298 1069.3228570945573
2180.276211391305 1124.756383786454
2180.8942078803357 1180.2653738012336
2181.5120553991 1434.7541579147796
2182.129753982299 1212.422177422779
2182.7473036646206 1488.9711975219923
2183.3647044807367 1407.3536370462573
2183.9819564653044 1217.9568797973911
2184.599059652968 1531.9892204196144
2185.216014078367 1686.3003781372797
2185.832819776113 1751.1447609727493
2186.4494767808137 1816.0428699951797
2187.065985127063 1411.9444400768261
2187.682344849436 1233.1344278485435
2188.298555982501 1343.3920026607618
2188.9146185608097 1453.7537772712144
2189.530532618901 1287.8601585442307
2190.1462981912937 1294.3383313727586
2190.761915312507 1496.7768176607192
2191.377384017036 1368.7407395263126
2191.9927043393654 1356.3859832599233
2192.6078763139667 1023.4588173660713
2193.2228999753006 1045.650232071454
2193.837775357808 1067.9048078892533
2194.452502495922 1096.3638077156045
2195.0670814240602 1276.9257981061269
2195.6815121766285 1276.8442639258278
2196.2957947880186 1254.7956671464267
2196.9099292926057 1232.706928030067
2197.523915724758 1614.9555575435493
2198.137754118825 1306.8808439026848
2198.7514445091456 1745.2613804838388
2199.3649869300443 1737.600912654048
2199.9783814158327 1729.9955282702933
2200.5916280008096 1841.3886192720624
2201.2047267192593 1599.925390205025
2201.8176776054515 1540.926597511784
2202.430480693649 1242.973244829662
2203.0431360180955 1382.2164595497047
2203.6556436130195 1484.268796858813
2204.268003512645 1573.3997674951681
2204.8802157511727 1662.8473220810295
2205.492280362796 1547.8190815088124
2206.1041973816937 1396.0922904634467
2206.715966842032 1333.6468474777691
2207.3275887779655 1339.7530001492812
2207.93906322363 1498.9901951823026
2208.550390213153 1658.4121959333183
2209.1615697806465 1407.8758270446683
2209.7726019602105 1022.6825985440175
2210.3834867859277 1024.8029572191776
2210.9942242918787 1323.3051047858348
2211.6048145121167 1258.9325854945878
2212.2152574806914 2043.800022048578
2212.825553231638 1233.1317771512674
2213.435701798975 1274.761384075766
2214.045703216707 1316.5756122376238
2214.655557518832 1037.0951399097698
2215.2652647393297 1115.994777388895
2215.874824912169 1271.8438452567125
2216.4842380713 1165.3345670559313
2217.09350425067 1374.470353825755
2217.7026234842033 1496.576150890262
2218.311595805819 1618.9700048124212
2218.9204212494133 1406.7409700337691
2219.52909984888 1845.7773051307208
2220.137631638092 1796.2269652168202
2220.7460166509154 1746.4601664060015
2221.354254921198 1434.1187466602228
2221.9623464827764 1544.5304900848296
2222.5702913694713 1438.2232643125449
2223.178089615096 1462.5670659023265
2223.7857412534486 1079.6649397982972
2224.39324631831 1093.6292343907921
2225.000604843457 1080.1973653320374
2225.607816862641 1297.585297225511
2226.214882409611 1515.2589753279522
2226.8218015180973 1575.629006242107
2227.4285742218217 1069.0372574081628
2228.0352005544864 1084.145248156357
2228.6416805497847 1099.2199080786872
2229.248014241399 1409.8086940153482
2229.8542016629945 1035.154189152852
2230.460242848223 1537.4911332863321
2231.0661378307304 1931.6116817616937
2231.671886644139 1475.426226750932
2232.277489322065 1320.8970626245014
2232.8829458981127 1449.6733923347033
2233.48825640587 1578.6230237217123
2234.0934208789095 1853.3161899570555
2234.6984393507955 1631.6943987858856
2235.3033118550793 1759.645367943704
2235.9080384252975 1502.7406972389322
2236.5126190949723 1131.639827745736
2237.1170538976166 1236.2745285461888
2237.721342866729 1279.687654345466
2238.32548603579 1323.1737717672827
2238.9294834382763 1349.1404152905434
2239.533335107646 1291.5830611061024
2240.1370410773434 1486.2244533533672
2240.740601380803 1298.0106753211185
2241.3440160514474 1269.6551507717973
2241.9472851226783 1366.2593213435357
2242.550408627896 1284.9821021244916
2243.1533866004793 1593.8939182848258
2243.756219073799 1502.4013908903928
2244.3589060812064 1258.8012768634512
2244.961447656049 1264.357745179339
2245.5638438316564 1200.4830672468984
2246.166094641343 1429.459312961768
2246.7682001184166 1267.94765013438
2247.3701602961664 1519.724540236353
2247.971975207871 1504.9068751660411
2248.5736448867974 1810.854044655462
2249.175169366197 1589.5374412357955
2249.7765486793123 1548.5194120804697
2250.3777828593684 1507.32692383652
2250.9788719395783 1594.8789860861546
2251.579815953146 1417.014274963553
2252.1806149332606 1232.88092627553
2252.781268913097 1233.6366646901308
2253.381777925817 1161.1715923979532
2253.9821420045737 1495.255404523362
2254.5823611825035 1711.6005769746457
2255.1824354927303 1345.9715595123953
2255.782364968365 1284.7190781733548
2256.38214964251 1223.421850421269
2256.9817895482483 1251.3311101703137
2257.5812847186553 1442.9588800505026
2258.180635186791 1248.8124235458474
2258.779840985704 1356.6324881564508
2259.37890214843 1366.8464743350023
2259.97781870799 1461.4565364914185
2260.5765906973957 1556.2477687146907
2261.175218149645 1206.027448303575
2261.773701097718 1243.3365637968377
2262.3720395745895 1280.677547457653
2262.970233613216 1310.471491241221
2263.568283246548 1188.8522631618193
2264.1661885075137 1341.2543591158512
2264.763949429038 1401.3413092442154
2265.3615660440246 1658.744335748294
2265.959038385374 1088.98185314518
2266.5563664859637 1650.468125184394
2267.153550378669 1178.8118786331597
2267.7505900963424 1625.73388173949
2268.3474856718312 1211.3420554561503
2268.9442371379664 1294.8678575822798
2269.5408445275643 1186.3014482310618
2270.1373078734377 1517.6148130033876
2270.7336272083758 1436.6312277242325
2271.32980256516 1285.0246804176238
2271.925833976562 1481.0261179432705
2272.5217214753357 1465.645907402682
2273.117465094223 1376.48104220697
2273.7130648659586 1259.4496111381
2274.308520823257 1220.667684632885
2274.903832998827 1359.7272057777925
2275.4990014253563 1499.0455819243439
2276.094026135528 1628.5710311069142
2276.6889071620117 1591.4428619802295
2277.2836445374614 1554.1760548524665
2277.878238294519 1515.213566791374
2278.472688465812 1337.5182757506668
2279.066995083962 1159.5094863716104
2279.6611581815705 1293.733358307613
2280.255177791232 1587.2656004011217
2280.8490539455233 1232.0454097090108
2281.442786677013 1508.263969831098
2282.0363760182554 1545.4454361761661
2282.6298220017943 1275.9592491405947
2283.223124660155 1637.4909527885507
2283.816284025859 1395.7998781627275
2284.4093001314086 1220.036212947587
2285.002173009292 1554.7338321084667
2285.5949026919952 1422.6318029145925
2286.1874892119777 1162.3759258999603
2286.7799326016993 1154.2504335843805
2287.3722328936 1146.0342163790453
2287.964390120109 1065.3538482312176
2288.556404313642 1280.4749787592891
2289.1482755066027 1324.900522033638
2289.7400037313873 1369.3421256468396
2290.3315890203703 1523.5304168451337
2290.9230314059205 1497.0954493623985
2291.5143309203904 1470.6641786118412
2292.1054875961236 1092.1689241990748
2292.6965014654506 1650.7235827064446
2293.287372560684 1349.541840510075
2293.878100914131 1367.6246410441338
2294.468686558086 1385.790095278006
2295.059129524827 1365.0499135940672
2295.649429846617 1670.68614726144
2296.239587555716 1685.2228592087226
2296.8296026843636 1607.1513498617219
2297.419475264791 1678.175409137466
2298.0092053292137 1749.2276107597859
2298.598792909839 1699.492098785418
2299.1882380388597 1553.4911457836247
2299.777540748455 1548.9784286536164
2300.3667010707904 1544.3604484011153
2300.9557190380256 1495.5308481109578
2301.544594682302 1348.6680623275493
2302.1333280357503 1201.6263277910598
2302.721919130485 1361.3711774075823
2303.3103679986198 1862.2592181710363
2303.898674672242 1721.9747315029022
2304.486839183437 1357.839853507313
2305.0748615642697 1571.8894081665262
2305.6627418468015 1297.6075905850546
2306.2504800630704 1530.0457811327776
2306.8380762451143 1395.9491061496672
2307.425530424949 1482.5555255884883
2308.012842634582 1569.349179822328
2308.6000129060103 1795.0730693167704
2309.187041271214 1646.8442102833385
2309.773927762164 1498.3031748618907
2310.3606724108213 1640.1255262020775
2310.9472752491274 1280.1667097271688
2311.5337363090184 1422.135515366104
2312.120055622414 1270.2678801018724
2312.706233221221 1298.0374208492758
2313.2922691373424 1132.5171518339207
2313.8781634026564 1227.417487369991
2314.463916049037 1322.5308547146929
2315.049527108342 1786.2176458955703
2315.6349966124235 1850.8916709569905
2316.2203245931123 1887.658759329639
2316.8055110822315 1663.7279676649407
2317.3905561115935 1439.258934863668
2317.9754597129977 1172.9292262659997
2318.560221918229 1243.7883729973096
2319.1448427590603 1314.8354980481836
2319.729322267256 1162.0495757630613
2320.313660474563 1600.5111396962966
2320.8978574127195 1493.6047371161017
2321.481913113452 1386.489978717475
2322.0658276084705 1213.235884098916
2322.6496009294806 1460.5552916057643
2323.233233108165 1590.6291385455677
2323.8167241762058 1721.0417980645284
2324.4000741652617 1481.794330565133
2324.983283106987 1937.3078294653692
2325.5663510330232 1860.5905617525823
2326.1492779749933 1509.0168046820022
2326.7320639645204 1488.561006254084
2327.3147090332004 1736.9279111592605
2327.897213212629 1313.6391009230679
2328.4795765343843 1557.7352355384987
2329.0617990300307 1205.4397044757247
2329.643880731124 1791.3788650753254
2330.22582166921 1674.125936705224
2330.807621875816 1678.771056854635
2331.3892813824623 1395.3961266471417
2331.9708002206517 1303.3544329738959
2332.5521784218818 1413.3277327108133
2333.133416017634 1523.586672330304
2333.7145130393765 1698.7869409893744
2334.295469518571 1426.322174384252
2334.876285486658 1617.1971107041759
2335.456960975076 1613.8661569909184
2336.037496015242 1610.5557111100256
2336.6178906385667 1530.25856056963
2337.198144876451 1574.8795154266281
2337.778258760278 1242.236734850372
2338.3582323214214 1484.1254004278003
2338.938065591243 1344.8456945655175
2339.517758601087 1647.5724760056764
2340.0973113822965 1606.2748397526425
2340.676723966193 1325.0673837919658
2341.255996384094 1233.1825478839933
2341.835128667295 1319.1313392764237
2342.4141208470883 1405.2519516714847
2342.992972954751 1586.8117590060203
2343.5716850215467 1682.0385758979432
2344.1502570787306 991.2555804011856
2344.7286891575386 1464.6592259200993
2345.3069812892045 2070.9510840278126
2345.885133504944 1811.6076599266366
2346.4631458359618 1368.9117932284853
2347.04101831345 1411.635450376011
2347.6187509685915 1541.5303818570799
2348.196343832553 1341.8454766235102
2348.7737969364935 1152.3949117621737
2349.351110311558 1418.6104153578524
2349.9282839888765 1382.8406380282584
2350.5053179995757 1215.9078265725152
2351.0822123747585 1332.3502478997832
2351.658967145526 1259.8558650010193
2352.2355823429643 1187.3132366571951
2352.812057998144 1583.2696655848686
2353.3883941421263 1289.703697325488
2353.9645908059647 1611.0607865228526
2354.540648020693 1642.70193640313
2355.116565817336 1240.9421307277794
2355.6923442269126 1378.1533564595823
2356.2679832804224 1377.9009318447906
2356.8434830088518 1374.0750934751209
2357.41884344318 1499.3830646546385
2357.994064614377 1421.1446935117674
