#exp_cfg={"servo_angle": 0.0, "laser_lim": 100.0, "servo_angle_to": 18.0, "laser_wup": 0.0, "bt_dev": "EnSpectr-25AE3", "laser_wdn_max": 0.0, "frames": 10.0, "servo_used": 0, "servo_calib_use": 0, "laser_wdn_min": 0.0, "servo_pix_from": 90.0, "cooler_tout": 300.0, "servo_angle_from": 0.0, "servo_calib": "[-1.9174921013161362e-09, 3.9322238269163779e-05, -0.27385609119055809, 653.59552119713567]", "laser_autoctl": 0, "servo_pix_to": 3682.0, "laser_pw": 100.0, "cooler_on": 0, "laser_volt": 4.0, "cooler_autoctl": 0, "cooler_curr": 70.0, "cooler_startup": 10.0, "laser_fixed_pw": 0, "gain": 1.3, "offset": 2.53059635486, "servo_calib_degree": 3.0, "laser_curr": 55.0, "shutter": 8200.0, "servo_calib_step": 1.0, "laser_fixed_curr": 0, "exp": 2000.0, "ccd_volt": 4.7, "bt_addr": "00:06:66:62:5A:E3", "servo_delay": 500.0, "laser_autooff": 1}
#proc_cfg={"flat_auto_wnd": 200.0, "flat_auto_fr": 200.0, "flat_auto_shift": 5.0, "yconv": 1, "flatten": 1, "flatten_strength": 100.0, "xfrom": 300.0, "auto_max_frame": 2000.0, "auto_signal": 48000.0, "flat_auto_tol": 0.1, "autoclip": 1, "xrel_range": 0.0, "flat_auto_to": 4000.0, "intensity_adj": 1.0, "xrel": 7852.0, "rmhot": 1, "flat_auto_slit": 4.999999999999997, "auto_ini_exp": 300.0, "auto_off": 0, "xto": 2860.0, "flat_auto_ref": "", "flat_auto_rank": 1, "autobackg": 0, "xrel_adj": 0.0, "auto_black_lvl": 1, "base_wnd": 100.0, "sub_baseline": 0, "xconv": 2, "auto_max_exp": 1000.0, "auto_total_exp": 10000.0, "auto_exp": 0, "rmripple": 0, "black_lvl": 8287.3625, "shutter_clip_adj": 0.0, "auto_bckg": 0, "flat_auto_thr": 0.9, "subbackg": 1}
316.8218498245369 18032.730387670483
317.89969571804795 17974.643634852742
318.977263876126 17900.692799377444
320.05455438786703 17646.022755669717
321.1315673423287 17568.77325838763
322.2083028285215 17633.322343054264
323.2847609354267 17402.554375698433
324.3609417519747 17513.735783830234
325.43684536705587 17303.699011064626
326.5124718695279 17159.290604311198
327.58782134820103 17208.123380748664
328.66289389184385 17136.792392557796
329.7376895891921 16870.93929423605
330.8122085289342 16899.378054033812
331.88645079971866 16821.19352797918
332.9604164901575 16690.150056502585
334.03410568881554 16720.44519796776
335.1075184842266 16787.52205089787
336.18065496487543 16586.469559568486
337.2535152192122 16578.703130217284
338.32609933564163 16563.030008111156
339.39840740253203 16497.66187178379
340.4704395082099 16336.68268109029
341.5421957409617 16334.871744037513
342.6136761890357 16432.96017094628
343.6848809406365 16278.78329308853
344.75581008392874 16250.525679625975
345.82646370703696 16166.929063754584
346.8968418980512 16157.18807697621
347.96694474501055 16232.723566524477
349.0367723359268 16122.671881819824
350.106324758759 16147.6061246902
351.1756021014353 16040.293386741245
352.2446044518383 16020.372163486303
353.31333189781435 16146.233078548237
354.38178452716966 16130.254519969249
355.449962427665 16100.848161289556
356.51786568702846 16100.03633018865
357.58549439294256 16220.156511645118
358.6528486330535 16318.097282820318
359.71992849496564 16237.076384353339
360.7867340662433 16246.755983941059
361.8532654344144 16246.809705554242
362.9195226869597 16470.83224170749
363.9855059113288 16226.84200198962
365.05121519492604 16331.903437537298
366.11665062511565 16533.688375901427
367.1818122892273 16588.04839066761
368.2467002745434 16638.46371410199
369.31131466831175 16574.277313562485
370.375655557742 16665.83643259661
371.4397230299983 16699.967796874113
372.5035171722102 16786.068331741826
373.5670380714637 16780.76276307627
374.6302858148101 16865.177212384275
375.6932604892554 16915.873351039576
376.7559621817709 16995.46135267051
377.81839097928605 16746.608449760188
378.8805469686886 16857.174352725506
379.94243023683157 16857.557955884007
381.0040408705263 16843.62454006417
382.0653789565458 16765.49780367179
383.1264445816196 16778.58375164422
384.1872378324406 16790.10741502008
385.2477587956637 16816.415878395506
386.3080075579037 16706.464364471747
387.3679842057336 16625.233326934955
388.4276888256918 16701.00954448254
389.48712150426945 16615.42296199168
390.54628232792857 16607.105255306327
391.6051713830857 16419.600157631714
392.66378875611736 16604.94586307946
393.7221345333637 16452.350285399712
394.7802088011249 16355.35846367649
395.838011645661 16361.443361457885
396.89554315319765 16266.91487972157
397.9528034099112 16208.093877494675
399.00979250194723 16092.565934039147
400.06651051541485 16051.372502803317
401.1229575363741 16099.64674831567
402.17913365085224 15932.743515206597
403.23503894483656 15959.623711751472
404.2906735042761 15815.702929592211
405.3460374150818 15775.131479254987
406.401130763119 15816.242922579375
407.455953634224 15714.02790295958
408.5105061141876 15641.140969282165
409.56478828876243 15407.21519890542
410.6188002436629 15510.66621118491
411.6725420645689 15358.048230353661
412.72601383711117 15389.495461594575
413.77921564689314 15440.367036924985
414.8321475794728 15205.868138414653
415.88480972036814 15268.071519411475
416.93720215506437 15371.210138084838
417.9893249690049 15093.501571950756
419.04117824759123 15080.833062345482
420.09276207619223 14987.80882893108
421.144076540133 14942.666938864673
422.1951217247042 14890.12646061992
423.24589771515275 14974.673624178478
424.2964045966928 14904.767613544225
425.34664245449494 14801.119256239213
426.3966113736933 14786.085263078741
427.4463114393875 14798.705322089805
428.49574273662984 14849.714062490671
429.5449053504417 14680.44451061855
430.5937993658026 14780.64755709899
431.6424248676558 14628.819586575357
432.6907819409007 14621.3556761493
433.73887067040596 14645.888502534202
434.7866911409965 14628.28474976058
435.8342434374608 14633.484945273905
436.88152764455117 14553.286918558917
437.9285438469724 14524.41823627615
438.9752921294057 14472.6910691761
440.02177257648145 14514.992460891948
441.06798527279716 14397.785413090964
442.1139303029122 14487.279207501018
443.1596077513459 14457.75938900955
444.2050177025794 14383.810315968052
445.25016024105753 14476.652803771343
446.2950354511886 14381.127854429567
447.33964341733736 14463.870276568941
448.383984223834 14396.578919257969
449.4280579549686 14305.787952588016
450.471864694995 14310.756991486054
451.5154045281306 14382.692246890063
452.5586775385509 14295.308223681515
453.60168381039693 14238.403019416137
454.64442342776783 14413.143396383468
455.6868964747264 14375.011980724445
456.7291030353008 14347.646124018813
457.77104319347563 14444.474422990656
458.8127170332027 14304.462708184325
459.854124638392 14294.96904056533
460.895266092919 14408.428029110082
461.93614148061897 14432.294983590877
462.97675088529104 14468.783669577202
464.01709439069236 14399.958414247634
465.0571720805492 14394.42437960483
466.0969840385442 14350.443636743672
467.1365303483253 14478.02424661848
468.17581109350067 14450.207177647218
469.2148263576437 14418.631481212578
470.2535762242878 14503.738611112776
471.29206077693016 14754.689120229616
472.33028009902773 14680.997482679788
473.3682342740012 14846.052839105
474.40592338523857 14871.014766771503
475.4433475160804 15016.357546477502
476.4805067498364 15139.830147892319
477.51740116978 15314.07676507573
478.5540308591426 15547.185456676492
479.59039590112116 15921.129562497887
480.6264963788726 16057.943613267034
481.6623323755193 16440.54498767417
482.6979039741436 16778.247125676622
483.7332112577915 17165.176891240262
484.76825430947247 17668.1523178172
485.80303321215797 17959.3471431435
486.837548048783 18193.039368202215
487.8717989022425 18625.400586741678
488.90578585539697 18845.93381785159
489.9395089910686 19008.24276242956
490.97296839203955 19004.677541077683
492.00616414106116 18886.780458105026
493.0390963208429 18961.256475319526
494.0717650140559 18796.089351023074
495.10417030333883 18459.96832816751
496.1363122712901 18304.781911393038
497.16819100046814 18008.829645778384
498.1998065734024 17611.379862621514
499.2311590725767 17270.1708479261
500.26224858044407 16841.993002678722
501.2930751794156 16538.719850144753
502.3236389518679 16308.061416829596
503.35393998014115 15814.861636689177
504.38397834653733 15746.45896034422
505.4137541333221 15551.401583397212
506.4432674227228 15264.213256972169
507.4725182969323 15112.420974616969
508.5015068381035 14983.830376238262
509.53023312835467 14890.235271665708
510.55869724976765 14815.643100183675
511.58689928438434 14672.831336571611
512.6148393142121 14538.089791872893
513.6425174212218 14619.01296469821
514.6699336873462 14703.99489753248
515.6970881944835 14638.016659822772
516.7239810244901 14580.755385805325
517.7506122591931 14697.62679442066
518.7769819803761 14571.668554235268
519.8030902697901 14667.736012801786
520.8289372091476 14699.022837521063
521.8545228801249 14885.899527275204
522.8798473643619 14715.498536576782
523.9049107434621 14683.182000984918
524.9297130989908 14763.966697187225
525.9542545124805 14700.345610334183
526.9785350654201 14590.712894242528
528.0025548392696 14656.863997253033
529.0263139154504 14608.517714408672
530.0498123753423 14578.318874691346
531.073050300296 14423.0671580198
532.0960277716204 14309.128234944152
533.1187448705896 14234.976947989877
534.1412016784416 14250.646507274349
535.1633982763833 14133.551026192032
536.1853347455726 14001.648951617279
537.2070111671401 13921.545409722716
538.2284276221817 13848.82668617013
539.2495841917516 13673.532964883218
540.2704809568677 13557.101803671161
541.2911179985167 13528.569515227946
542.3114953976419 13410.257525603698
543.3316132351592 13419.230753625932
544.3514715919409 13302.777408793196
545.3710705488247 13289.51756371063
546.3904101866156 13244.47502509639
547.4094905860784 13260.078581018202
548.4283118279418 13008.180755170757
549.4468739929034 13211.551005447047
550.4651771616191 12952.074171927161
551.4832214147063 12937.20978742762
552.501006832761 12934.75841476794
553.5185334963226 13009.535499450212
554.5358014859103 12999.2414008529
555.5528108820035 12997.225635244136
556.5695617650363 12911.161021042575
557.5860542154242 12968.96780206541
558.6022883135283 12922.242677852895
559.6182641396881 12856.337656062595
560.6339817741991 12882.395825343
561.6494412973225 12997.784291535823
562.6646427892883 12953.27845624484
563.6795863302796 12850.502811683036
564.694272000459 12922.742223385085
565.7086998799423 12993.944414086754
566.7228700488104 12859.086178512518
567.7367825871115 12881.923152166568
568.7504375748576 13006.483657472027
569.7638350920224 12965.302504406236
570.7769752185486 12987.415522054478
571.7898580343353 13129.241190713092
572.802483619258 13122.820333382047
573.8148520531431 13342.970404572789
574.8269634157932 13387.032666443067
575.8388177869692 13491.61000619262
576.8504152463938 13684.70962479925
577.8617558737587 13880.504335974902
578.8728397487175 13840.029912699049
579.883666950891 14061.385940057453
580.8942375598654 14386.070206074208
581.9045516551851 14640.163266973488
582.9146093163617 14872.933323734402
583.924410622878 14876.150268371664
584.9339556541727 14959.97734839701
585.9432444896538 15298.278666494361
586.9522772086875 15112.052615787441
587.9610538906127 15211.251048868242
588.9695746147318 15093.115808967477
589.9778394603054 15114.99842307175
590.985848506567 14986.815655817054
591.9936018327098 14821.651620300861
593.0010995178891 14539.345529996546
594.0083416412344 14555.068026221245
595.0153282818283 14250.468315014368
596.0220595187293 14100.209452643205
597.0285354309508 13982.714941741258
598.0347560974806 13877.589924081676
599.0407215972609 13721.161297281937
600.0464320092051 13559.818766242504
601.0518874121954 13552.72767196201
602.0570878850685 13523.775164801511
603.062033506636 13458.81663670553
604.0667243556636 13449.399725305946
605.0711605108936 13275.641391547935
606.0753420510264 13610.849717126566
607.0792690547278 13447.733902214683
608.082941600629 13482.13307478273
609.0863597673306 13473.472822826769
610.0895236333909 13701.458581687013
611.0924332773357 13896.811164598063
612.0950887776617 13907.066609349285
613.0974902128219 14027.546121208861
614.0996376612384 14491.737794594985
615.1015312013005 14504.329909952718
616.1031709113595 14784.2455881984
617.1045568697336 14812.570280712305
618.1056891547069 15167.97961569511
619.1065678445229 15624.852696313925
620.1071930173985 16137.255879848108
621.1075647515099 16305.667789532807
622.1076831250048 16788.509877240067
623.1075482159849 17225.08183935068
624.1071601025305 17555.08907424047
625.1065188626781 18023.720412973147
626.105624574433 18631.023299519824
627.1044773157682 18946.141115234917
628.1030771646128 19131.41026228363
629.1014241988742 19522.620883546842
630.0995184964158 20049.975316072643
631.0973601350688 20277.121076202075
632.0949491926294 20624.385929551823
633.0922857468631 20423.817132771546
634.089369875499 20484.854160087685
635.0862016562278 20449.189280469596
636.0827811667077 20154.11632859493
637.0791084845641 20094.456892592952
638.0751836873878 19680.02476552525
639.0710068527369 19493.82665986791
640.0665780581294 19039.758043594473
641.0618973810506 18603.99738715949
642.0569648989604 18226.193144166384
643.0517806892676 17648.166705907282
644.0463448293649 17433.678798132787
645.040657396592 16887.170952369568
646.0347184682723 16469.491350249846
647.0285281216875 15934.137642737744
648.0220864340772 15779.769699358574
649.0153934826558 15260.984496151164
650.0084493446047 14947.109498314883
651.0012540970674 14737.971055940894
651.9938078171526 14394.019921965228
652.9861105819346 14107.536960928797
653.9781624684565 14119.729656774309
654.9699635537254 13711.04710509117
655.9615139147136 13685.854527047666
656.9528136283589 13271.199700745023
657.9438627715699 13447.830318727549
658.9346614212154 13258.350382285422
659.925209654135 12976.776889613351
660.9155075471263 13028.670064655507
661.9055551769616 12906.77386836951
662.895352620375 12896.354737656337
663.8848999540678 12840.911806320657
664.8741972547068 12531.85385214251
665.863244598926 12499.575153362723
666.8520420633213 12619.829548846212
667.8405897244611 12493.254850491398
668.8288876588758 12358.367117280164
669.8169359430613 12492.356954061777
670.8047346534822 12422.041602641604
671.7922838665672 12339.324631385558
672.7795836587156 12523.204129788463
673.766634106285 12574.986451151166
674.7534352856092 12355.20900107275
675.7399872729766 12432.139380537727
676.7262901446538 12443.772993656781
677.712343976862 12417.147253715058
678.6981488457986 12476.632399686017
679.6837048276229 12373.55182467637
680.6690119984596 12480.902138712907
681.6540704344043 12438.869245322656
682.6388802115107 12386.440655602677
683.6234414058108 12369.967593372396
684.6077540932874 12164.509330674937
685.591818349907 12228.471420869615
686.575634251587 12094.906923387382
687.5592018742263 12171.827268146899
688.5425212936734 11983.218518714955
689.5255925857564 11981.827279640196
690.5084158262707 11920.873844134778
691.4909910909646 11940.455896632167
692.4733184555644 11767.98585955041
693.4553979957618 11811.070053454541
694.4372297872123 11707.757430068585
695.4188139055404 11653.819960401686
696.4001504263324 11557.751417165755
697.3812394251509 11657.23538092157
698.3620809775111 11543.749983912365
699.3426751589104 11591.065013468968
700.3230220448004 11379.106060931817
701.3031217106054 11434.901314190658
702.2829742317172 11577.715550366234
703.2625796834873 11271.501718384492
704.2419381412474 11205.77249448688
705.22104968028 11352.847871418038
706.1999143758458 11342.574061589856
707.178532303169 11326.862413033592
708.1569035374378 11282.786251710237
709.1350281538107 11397.510504708818
710.1129062274158 11355.61099424586
711.0905378333373 11494.401581613345
712.0679230466376 11452.38158407322
713.0450619423427 11528.737709147437
714.0219545954424 11524.169269801232
714.9986010808989 11335.416766303259
715.9750014736292 11491.399816595987
716.9511558485392 11552.908315382316
717.9270642804786 11695.457644036516
718.9027268442787 11778.182377376548
719.8781436147328 11699.062498561538
720.8533146666014 11676.981679632725
721.828240074612 11780.302847056937
722.8029199134635 11682.3930795538
723.7773542578125 11817.586083361033
724.751543182294 11574.652373014234
725.7254867615029 11725.268785559574
726.6991850700015 11457.730746811294
727.6726381823228 11438.370398259663
728.6458461729599 11473.146854345316
729.6188091163858 11333.815478127033
730.5915270870246 11377.463780897313
731.5640001592856 11213.299861240714
732.536228407529 11280.373211056129
733.5082119060917 11166.778154600821
734.4799507292755 11123.391318071737
735.4514449513481 11145.793188058246
736.4226946465496 11251.538416872356
737.3936998890786 11305.623696504092
738.3644607531078 11115.395700634232
739.3349773127793 11181.584201956288
740.3052496421951 11214.21301152737
741.27527781543 11116.458181736105
742.2450619065221 11067.00840644692
743.2146019894826 11160.910716775865
744.183898138288 11173.615587920469
745.1529504268801 11242.77312896677
746.1217589291682 11025.859036750891
747.0903237190341 11032.527373856854
748.058644870318 11100.360585442326
749.0267224568397 11023.508765325712
749.994556552374 10825.392753532473
750.9621472306771 10967.620075838335
751.9294945654583 11161.428542825455
752.8965986304011 11114.655778221906
753.8634594991636 11101.018818891489
754.8300772453586 11285.335305910408
755.7964519425768 11150.624614181976
756.762583664371 11286.323129037459
757.7284724842611 11262.441468520876
758.6941184757416 11201.422174347408
759.6595217122667 11248.810392743908
760.6246822672638 11206.060199484371
761.5896002141235 11040.479656470243
762.5542756262093 11180.860829017141
763.5187085768503 11170.619225778748
764.4828991393406 11100.046114869861
765.4468473869474 11133.472118034228
766.4105533929032 11059.573195439314
767.3740172304078 10938.316974123843
768.3372389726283 11089.358645258219
769.3002186926988 10885.422784999091
770.2629564637282 10734.075522652462
771.2254523587872 10754.771643086797
772.1877064509154 10619.932360216764
773.1497188131179 10484.59999549846
774.1114895183728 10380.934969992619
775.0730186396268 10434.67509328298
776.0343062497905 10314.367117614938
776.9953524217381 10183.127726766254
777.9561572283274 10234.525303817003
778.9167207423689 10158.5148946085
779.8770430366476 10127.229138330367
780.8371241839159 10144.87155043687
781.7969642568951 10128.233573583795
782.7565633282757 10359.434896116069
783.7159214707099 10152.565726286184
784.6750387568281 10213.850102258026
785.6339152592227 10159.977054512488
786.5925510504512 10097.960315805112
787.5509462030477 10214.653955235332
788.5091007895098 10268.980556313805
789.4670148823006 10246.753676487257
790.4246885538596 10244.77666479009
791.3821218765861 10220.181986804082
792.3393149228505 10164.010921334195
793.2962677649975 10391.419309414097
794.2529804753303 10480.532871020096
795.20945312613 10492.221572077153
796.1656857896378 10525.377164112313
797.1216785380675 10492.178951054182
798.0774314435985 10825.238740252911
799.0329445783846 11010.53506807544
799.9882180145414 10996.919194493963
800.9432518241574 11175.543012328522
801.89804607929 11250.133318125436
802.852600851962 11466.87174557846
803.8069162141637 11310.046137761945
804.760992237856 11654.02783248676
805.714828994971 11681.583289048358
806.6684265574077 11864.008716733342
807.6217849970271 11806.731533290003
808.574904385674 11719.665441489591
809.527784795142 11746.26945602739
810.4804262972102 11908.802110922681
811.4328289636178 11618.897303020854
812.3849928660748 11343.15220622873
813.3369180762638 11177.076764317253
814.2886046658241 11202.751293285142
815.2400527063783 10888.809237280524
816.1912622695108 10708.87547343328
817.1422334267718 10632.893727665729
818.0929662496856 10369.486571474288
819.0434608097457 10178.341267490494
819.9937171784059 10120.60178364959
820.9437354271013 9976.26068759601
821.8935156272255 9930.158470993401
822.8430578501484 9699.436617874639
823.7923621672016 9513.340509536323
824.7414286496896 9564.292383398315
825.6902573688876 9495.22494095951
826.6388483960363 9461.08983413472
827.5872018023492 9316.816109559837
828.5353176590033 9499.810727013264
829.4831960371503 9242.985135423505
830.4308370079016 9253.267621927069
831.3782406423525 9397.812377529215
832.3254070115545 9338.741852878313
833.2723361865319 9164.675975771606
834.2190282382799 9164.321059771242
835.1654832377644 9233.95147165712
836.1117012559116 9158.748287293947
837.0576823636256 9288.09738262018
838.003426631778 9102.893039714943
838.9489341312074 9012.39148957656
839.8942049327197 9133.836182260633
840.8392391070975 9253.385330089262
841.7840367250865 9129.551604768705
842.7285978573982 8963.407259428304
843.672922574724 9176.961159341397
844.6170109477152 8977.650400085862
845.560863046996 9095.175257388462
846.5044789431595 9008.749724982574
847.4478587067697 9014.875330890947
848.3910024083561 9251.521705757907
849.333910118421 9110.817148648219
850.2765819074339 8935.882659323215
851.2190178458332 9199.509820033058
852.161218004032 9127.52177178879
853.1031824524016 9199.046731678742
854.0449112612987 9189.86543135598
854.9864045010327 9192.908770002126
855.9276622418947 9099.741688690558
856.8686845541379 9218.840013810892
857.8094715079915 9084.515655495763
858.7500231736467 9304.124585858684
859.690339621271 9252.695329821869
860.6304209209939 9319.596896231958
861.5702671429244 9171.015803103557
862.5098783571284 9319.388506579658
863.4492546336569 9406.764815606466
864.3883960425155 9262.526104400498
865.3273026536863 9456.630815837369
866.2659745371238 9402.077388883057
867.2044117627465 9742.136139548651
868.1426144004472 9642.00175718623
869.0805825200823 9738.41498137104
870.0183161914847 9918.124615411605
870.9558154844526 10072.403667382176
871.8930804687552 10102.788719443868
872.8301112141307 10044.496616324019
873.7669077902865 10287.015563220524
874.7034702669062 10391.012330443296
875.6397987136315 10393.55080177507
876.5758932000863 10554.95369887257
877.5117537958522 10694.163368512027
878.4473805704911 10603.451154095412
879.3827735935283 10636.0894384499
880.3179329344603 10756.384624110746
881.2528586627541 10821.665592690293
882.1875508478479 10919.353133124469
883.1220095591489 10775.823780997609
884.0562348660296 10607.570434157627
884.9902268378391 10848.744670658176
885.9239855438955 10590.456439256353
886.8575110534839 10547.345694846223
887.7908034358588 10607.888076135076
888.7238627602474 10462.200103035935
889.6566890958475 10314.601034963998
890.5892825118208 10128.85763031433
891.5216430773125 10107.876383102583
892.4537708614189 9997.502458787774
893.3856659332196 9879.477724360864
894.3173283617652 9743.875399582135
895.2487582160684 9626.493813801173
896.179955565116 9547.579235732977
897.110920477864 9304.572958120978
898.0416530232451 9345.461068531778
898.9721532701478 9200.115064127789
899.9024212874428 9245.296671826183
900.8324571439662 9012.067828862237
901.7622609085302 8918.764846323824
902.6918326499072 8804.142138336914
903.6211724368477 8971.750256369223
904.5502803380696 8848.180251612805
905.4791564222614 9016.834539226504
906.4078007580792 8676.927053835452
907.3362134141571 8666.294118233975
908.2643944590909 8779.40272814973
909.1923439614493 8556.688073223417
910.1200619897754 8535.636166929333
911.0475486125779 8729.75700615492
911.9748038983344 8514.825750768494
912.9018279155007 8487.427692293862
913.8286207324982 8366.539418684744
914.7551824177117 8411.078240309722
915.6815130395116 8450.657144314126
916.6076126662283 8368.949268881996
917.533481366163 8401.79010016523
918.4591192075914 8386.072420753893
919.3845262587565 8443.763756158674
920.3097025878706 8363.85159122117
921.2346482631237 8322.451525188986
922.1593633526682 8224.151805190102
923.0838479246304 8388.517071821925
924.0081020471061 8456.923956001989
924.9321257881656 8173.123067799946
925.8559192158464 8239.440790108154
926.7794823981512 8119.965938510638
927.7028154030686 8202.512872797894
928.6259182985414 8085.654565141056
929.5487911524906 8298.360975830448
930.4714340328119 8269.129081891298
931.3938470073608 8031.489871765858
932.3160301439748 8083.746489007461
933.2379835104548 8105.512110117491
934.1597071745709 8222.229467581605
935.0812012040769 8239.501307785293
936.002465666681 8213.611448027255
936.9235006300696 8149.104982339339
937.8443061619055 8164.843835844996
938.7648823298077 8038.761458400052
939.6852292013809 8077.523868897554
940.6053468441951 8141.277640307792
941.5252353257874 7906.227442695604
942.4448947136698 7994.15652819509
943.364325075323 8048.740880382333
944.2835264782043 8034.946595288867
945.2024989897309 8046.3200327926315
946.1212426773054 8053.996893141375
947.0397576082851 8086.5458749966
947.9580438500125 8176.4146065854
948.8761014697939 8166.064746270409
949.7939305349064 8215.405678528889
950.7115311125999 8057.425547248022
951.6289032700952 7896.924306098522
952.5460470745875 8131.338972142848
953.4629625932339 7952.769218528735
954.3796498931715 8171.893797390752
955.2961090415029 8087.9813019161065
956.2123401053068 8022.672877373063
957.1283431516276 8037.327746295118
958.0441182474842 7902.355136776603
958.9596654598663 8124.372685606382
959.8749848557309 8025.645759785635
960.7900765020167 8003.3095858517945
961.7049404656209 7969.077986254835
962.6195768134185 8012.741371948451
963.5339856122537 7987.8970320653025
964.4481669289453 8119.1066197307255
965.3621208302793 7976.325810663009
966.2758473830145 7922.837891196007
967.1893466538822 8193.315622517834
968.1026187095813 7933.674812144882
969.0156636167867 8174.511426792402
969.9284814421426 8023.789684037009
970.8410722522622 7988.73060613988
971.753436113735 7906.270819674106
972.6655730931161 7973.015439508794
973.5774832569368 8100.9466550424095
974.4891666716958 7984.63035570616
975.4006234038698 8003.1580841514515
976.3118535198955 7897.969755302271
977.2228570861935 8112.6318119194675
978.1336341691494 8074.739819462814
979.0441848351202 7980.40342517802
979.9545091504333 8058.884944887912
980.864607181391 8136.492601064424
981.7744789942699 8162.602310422217
982.6841246553086 8171.228341415639
983.5935442307236 8204.53156806225
984.5027377867027 8323.484432079116
985.4117053894024 8259.406858387516
986.3204471049557 8153.310524410654
987.2289629994648 8319.235850314863
988.1372531390007 8362.288128446276
989.0453175896091 8221.746608487358
989.9531564173067 8272.607727345006
990.860769688079 8261.468374552765
991.7681574678918 8341.2931093733
992.6753198226706 8484.265559141806
993.582256818323 8378.720522500846
994.4889685207218 8460.754050885686
995.3954549957143 8706.667245163653
996.301716309119 8623.56358509101
997.2077525267232 8646.478091352981
998.1135637142943 8633.310383766335
999.0191499375615 8819.71540879924
999.924511262232 8756.918630887343
1000.8296477539861 8859.748068308294
1001.7345594784656 8689.249908128699
1002.6392465012996 8752.407537532341
1003.5437088880753 8873.729215299929
1004.4479467043584 8848.292059938978
1005.3519600156869 8622.35847809858
1006.2557488875718 8883.103706361273
1007.1593133854858 8812.708987271035
1008.0626535748888 8830.88998798282
1008.9657695212009 8753.291785510026
1009.8686612898182 8868.274800311414
1010.7713289461135 8864.589480158782
1011.6737725554212 8744.278580523724
1012.5759921830577 8739.67833204686
1013.4779878943027 8694.802265173046
1014.379759754418 8802.153069679163
1015.2813078286254 8647.936424605981
1016.18263218213 8427.208915106603
1017.0837328801026 8525.664292362255
1017.9846099876886 8630.324772946888
1018.8852635700023 8495.070891451345
1019.7856936921362 8186.432777750286
1020.6859004191447 8451.955531215315
1021.5858838160675 8262.092740501042
1022.4856439479063 8199.23624830688
1023.3851808796389 8088.743772248106
1024.2844946762143 8149.407163818386
1025.183585402554 8058.849553476057
1026.082453123554 7928.123207541413
1026.9810979040776 8026.038667922805
1027.8795198089647 7874.149990695492
1028.777718903024 7950.78302868832
1029.6756952510368 7809.071215542863
1030.5734489177648 7840.147857595979
1031.4709799679313 7834.606313825211
1032.3682884662358 7924.049231752077
1033.2653744773506 7650.226091151404
1034.1622380659192 7687.161731558556
1035.058879296559 7786.288254542291
1035.9552982338591 7868.940785616003
1036.8514949423825 7743.014893039089
1037.7474694866614 7747.398772813894
1038.6432219312028 7667.616107003369
1039.5387523404825 7872.9552956184925
1040.4340607789582 7722.909662285585
1041.3291473110476 7761.831993134586
1042.2240120011465 7884.445974668792
1043.1186549136273 7967.89050242314
1044.0130761128294 7834.951735840174
1044.9072756630649 7956.377625508826
1045.8012536286205 7987.536540390189
1046.6950100737577 7995.057945110503
1047.588545062701 7987.757186715132
1048.481858659663 8074.478090463017
1049.3749509288118 8117.439600895888
1050.2678219343034 8043.72343426848
1051.1604717402515 8110.353635884169
1052.0529004107575 7916.255548127403
1052.9451080098825 8159.4863109310345
1053.8370946016694 8137.203837143117
1054.7288602501267 8219.266741108964
1055.6204050192446 8110.819773626246
1056.511728972977 8358.412033202734
1057.402832175254 8327.077404073681
1058.2937146899785 8146.870781655472
1059.1843765810263 8183.572547219451
1060.0748179122456 8374.356076284184
1060.9650387474576 8384.73943105029
1061.855039150456 8399.238449546703
1062.7448191850071 8375.749181536647
1063.6343789148505 8254.658922444429
1064.5237184037014 8489.255182699202
1065.412837715241 8182.517206889841
1066.3017369131267 8275.500194413755
1067.190416060992 8326.19044580435
1068.0788752224398 8239.619752060436
1068.9671144610438 8213.885102176366
1069.8551338403558 8315.161521540937
1070.7429334239023 8406.099593056291
1071.6305132751695 8234.40397160694
1072.517873457633 8330.749798516053
1073.4050140347335 8145.848268998842
1074.2919350698776 8173.624573297328
1075.1786366264623 8063.10545780112
1076.0651187678395 8128.02559648356
1076.95138155735 7985.200004866868
1077.8374250582929 7847.859510574455
1078.7232493339507 7941.777061766634
1079.608854447577 7791.461043154144
1080.4942404623907 7719.95523199902
1081.3794074415982 7864.343155153329
1082.2643554483657 7785.201299969633
1083.149084545841 7796.019610436151
1084.033594797138 7520.139656217517
1084.9178862653516 7483.684682371573
1085.8019590135427 7657.353281712662
1086.6858131047484 7293.362116457858
1087.5694486019802 7472.853143333092
1088.4528655682225 7406.877649256623
1089.3360640664287 7607.21954231641
1090.2190441595321 7414.063244993839
1091.1018059104317 7408.831415666007
1091.98434938201 7441.295254379127
1092.866674637111 7357.295894484266
1093.748781738559 7356.377714255863
1094.6306707491512 7298.129404561127
1095.5123417316554 7369.891289207619
1096.3937947488157 7305.582527479368
1097.2750298633455 7346.000892767135
1098.156047137938 7287.757366998124
1099.0368466352556 7376.4161810412015
1099.9174284179317 7392.774091454364
1100.7977925485757 7163.066085663649
1101.6779390897755 7284.977951346853
1102.5578681040806 7318.91115596579
1103.4375796540226 7423.338769333304
1104.3170738021054 7301.850984853831
1105.1963506108077 7185.958532585651
1106.0754101425773 7241.918647287312
1106.9542524598382 7511.131125566344
1107.8328776249855 7356.418416704895
1108.7112857003904 7425.43355575028
1109.5894767483987 7301.179325294729
1110.4674508313292 7663.630681908867
1111.3452080114657 7595.026556906669
1112.2227483510815 7801.080321791245
1113.1000719124077 7898.601938364249
1113.9771787576592 7925.150798056959
1114.854068949022 7903.096935026518
1115.7307425486542 8199.211082453603
1116.6071996186893 8241.738400918592
1117.483440221229 8506.736794782888
1118.3594644183577 8407.633593489427
1119.235272272128 8618.219053734374
1120.1108638445658 8899.416133051647
1120.9862391976712 9209.522151293513
1121.8613983934229 9219.903825308182
1122.7363414937627 9224.1289282849
1123.6110685606182 9452.985758571953
1124.485579655884 9805.93326765805
1125.359874841426 9684.111727065852
1126.2339541790916 9698.744801665162
1127.1078177306936 10190.49138184296
1127.9814655580267 9943.159250439476
1128.854897722851 10063.312000192627
1129.7281142869106 10154.791547310617
1130.6011153119125 10280.732326809935
1131.473900859548 10397.034194378553
1132.3464709914697 10207.50879878435
1133.2188257693178 10100.690379139709
1134.0909652546961 10078.619670910412
1134.96288950919 9888.245518821304
1135.8345985943506 10030.876022365937
1136.7060925717087 9699.336717193131
1137.57737150277 9679.011477463793
1138.4484354490069 9628.106714492187
1139.3192844718778 9424.313900075489
1140.1899186327992 9200.061302151158
1141.060337993178 9291.141965346967
1141.930542614382 8966.110956833827
1142.8005325577597 8947.350758400693
1143.670307884635 8453.772700039965
1144.5398686563003 8608.986307817053
1145.409214934025 8452.135907977445
1146.2783467790541 8076.017117586847
1147.1472642526023 8074.248714624844
1148.0159674158622 8040.003968492851
1148.8844563300026 7847.711730533041
1149.7527310561618 7555.228046497383
1150.6207916554504 7491.493702094401
1151.4886381889592 7404.283631354991
1152.3562707177498 7503.750228950135
1153.2236893028585 7289.513228900185
1154.090894005296 7182.806552430744
1154.9578848860474 7139.375106885163
1155.8246620060709 7145.823883777079
1156.6912254262988 6963.916831174751
1157.5575752076438 6959.141154090944
1158.42371141098 7220.403929971227
1159.2896340971656 7054.727431750425
1160.1553433270346 7031.450576575985
1161.0208391613887 6989.735360901878
1161.8861216610057 6999.163046535607
1162.75119088664 6966.351209215847
1163.6160468990201 6801.0253371666795
1164.4806897588442 6734.136048882329
1165.3451195267917 6979.481002305247
1166.2093362635114 6888.637727960025
1167.0733400296285 6797.633024223523
1167.9371308857444 6664.6780798123755
1168.8007088924278 6737.093307513647
1169.6640741102328 6965.024977256454
1170.5272265996773 6727.605170584259
1171.390166421259 6555.860725780922
1172.252893635452 6782.983754216775
1173.1154083026995 6886.247994063104
1173.977710483421 6802.060501066136
1174.8398002380145 6659.779399156338
1175.7016776268483 6827.46011858929
1176.563342710264 6762.849240556236
1177.4247955485826 6629.8308373046
1178.2860362020947 6870.66859318552
1179.147064731069 6728.661947448511
1180.0078811957483 6912.666744081883
1180.8684856563486 6789.394584789708
1181.7288781730604 6823.338401971823
1182.589058806052 6956.596179731857
1183.4490276154593 7266.7905441273815
1184.3087846614017 7051.2346023809805
1185.1683300039676 7041.709669688881
1186.027663703222 7465.823652909859
1186.8867858192025 7263.869490125649
1187.7456964119228 7329.59541289521
1188.6043955413716 7502.974946667193
1189.4628832675116 7631.3374832506715
1190.3211596502842 7678.995208703236
1191.179224749596 7790.883079065941
1192.0370786253388 7637.398382303906
1192.8947213373758 7915.317621346013
1193.7521529455407 8213.905620099375
1194.6093735096438 7963.77041600418
1195.466383089477 7963.180424711162
1196.3231817447977 8057.80181248991
1197.1797695353398 8376.680296377379
1198.0361465208189 8036.604422560103
1198.8923127609214 8109.8366649794425
1199.7482683153048 8190.098862845208
1200.6040132436028 8346.779876926554
1201.459547605431 8183.842879817345
1202.3148714603722 8131.543426659376
1203.1699848679855 8249.131758840913
1204.0248878878065 8222.317197864162
1204.8795805793507 7877.895527335946
1205.7340630020935 8135.612531316276
1206.5883352155033 8217.45616193397
1207.4423972790064 7965.921460979014
1208.2962492520237 7919.422094873958
1209.1498911939307 7826.734790535464
1210.0033231640937 7811.162975688673
1210.8565452218427 7719.688095538404
1211.7095574264913 7553.261509483763
1212.5623598373222 7460.807174255072
1213.4149525135963 7334.521565040652
1214.2673355145507 7472.105959421935
1215.1195088993936 7282.4881583906445
1215.9714727273113 7110.743222049903
1216.8232270574663 7292.4162879320165
1217.6747719489904 6949.750371115403
1218.5261074609934 6912.277297536641
1219.3772336525653 6983.112046269632
1220.2281505827668 7135.490535374274
1221.0788583106296 7059.806961417198
1221.9293568951707 6806.0681961819255
1222.7796463953746 6731.016997938752
1223.629726870202 6851.752071914556
1224.4795983785934 6920.430577946232
1225.3292609794553 6843.315692486583
1226.1787147316809 6564.03362239183
1227.0279596941327 6839.6783019848535
1227.8769959256424 6807.047277103649
1228.7258234850306 6860.777177442299
1229.5744424310833 6652.785356826917
1230.422852822563 6749.545881128601
1231.2710547182105 6861.661022708526
1232.119048176739 6735.9903375670865
1232.9668332568417 6512.647286751725
1233.8144100171812 6697.038625785138
1234.6617785163999 6744.054415074609
1235.508938813111 6438.037586331974
1236.3558909659114 6607.679492384368
1237.2026350333617 6703.784575068555
1238.049171074008 6769.449957259201
1238.8954991463652 6588.94418254872
1239.741619308932 6593.0140029558725
1240.587531620169 6663.108080946197
1241.4332361385277 6731.626681701224
1242.2787329224248 6659.8499991456165
1243.1240220302534 6656.735439770171
1243.9691035203869 6567.100520396278
1244.813977451171 6716.583335578704
1245.6586438809263 6785.052572510607
1246.5031028679496 6511.195877218905
1247.3473544705157 6769.582838245534
1248.1913987468706 6752.046199496132
1249.0352357552383 6531.554013601361
1249.8788655538228 6583.621523645629
1250.7222882007918 6714.349922690215
1251.565503754302 6780.916118969198
1252.4085122724755 6453.411484803788
1253.2513138134182 6781.918613334916
1254.0939084352049 6676.587491100101
1254.9362961958905 6669.719925417546
1255.7784771535007 6600.6423902576325
1256.6204513660432 6696.881997322715
1257.4622188915 6831.013702044782
1258.3037797878242 6734.062613923408
1259.1451341129468 6476.7372558130755
1259.9862819247755 6627.387404362844
1260.8272232811978 6465.586733542307
1261.6679582400666 6778.773394992675
1262.5084868592203 6389.16250925089
1263.34880919647 6440.617189906317
1264.1889253095997 6618.944066505712
1265.0288352563712 6734.133147820772
1265.8685390945266 6459.743581222909
1266.7080368817751 6638.513241371593
1267.5473286758115 6648.365610193019
1268.386414534294 6573.660612322148
1269.2252945148703 6160.60080668337
1270.0639686751547 6326.212377385228
1270.9024370727402 6403.843962746521
1271.7406997651997 6300.218578898664
1272.5787568100714 6293.93599203297
1273.4166082648808 6255.9611678208175
1274.2542541871244 6247.142585176354
1275.091694634275 6488.595212308065
1275.9289296637817 6155.248746932816
1276.7659593330663 6263.063603959199
1277.6027836995308 6201.990289101422
1278.4394028205552 6326.283724271778
1279.2758167534867 6200.629634855964
1280.112025555658 6241.370672310059
1280.9480292843746 6206.390838286568
1281.7838279969128 6093.083997719136
1282.6194217505326 6075.822213019818
1283.4548106024686 5945.143649539508
1284.289994609926 6058.7721528568
1285.1249738300921 6221.436463574639
1285.959748320127 6056.567621803425
1286.7943181371702 6071.2451017909725
1287.6286833383328 6145.202043300424
1288.4628439807038 6124.392274649189
1289.2968001213521 5963.412288261404
1290.1305518173194 6050.693673673005
1290.9640991256183 6116.946384438203
1291.7974421032523 5848.124973405316
1292.630580807183 6024.294994559894
1293.463515294361 6154.445582361796
1294.29624562171 6221.227407335126
1295.12877184613 5924.1489622216095
1295.961094024493 6095.961949902995
1296.79321221365 6131.706274343554
1297.6251264704333 6139.327421060971
1298.4568368516466 6559.290149012454
1299.2883434140658 6251.22995103313
1300.1196462144526 6110.735215912792
1300.9507453095375 6219.213406355101
1301.7816407560313 6196.274778885189
1302.6123326106172 6286.220513510287
1303.4428209299622 6035.857283152491
1304.2731057707024 6267.8418545058075
1305.1031871894502 6158.082825638984
1305.933065242798 6269.704717788684
1306.7627399873181 6332.96412751503
1307.5922114795467 6706.813029880128
1308.4214797760123 6596.630938783992
1309.2505449332057 6431.4683754491725
1310.0794070076026 6533.628411527349
1310.9080660556538 6660.86593679679
1311.736522133786 6603.291857049278
1312.5647752983987 6451.9712088581855
1313.3928256058734 6493.438890214668
1314.2206731125661 6670.792748236801
1315.048317874809 6575.3508654423085
1315.8757599489109 6669.325533665811
1316.7029993911547 6733.186274586149
1317.5300362578055 6887.554444715746
1318.356870605101 6503.201976506552
1319.183502489257 6604.225101179682
1320.0099319664623 6740.950634424442
1320.836159092889 6793.017478161503
1321.66218392468 6876.789391482259
1322.4880065179532 6637.304289561926
1323.3136269288134 6781.90661671579
1324.1390452133292 6909.651987872302
1324.9642614275563 6902.93208397968
1325.7892756275214 6873.28427595877
1326.6140878692295 6636.078801694802
1327.4386982086617 7183.245685108117
1328.2631067017755 6920.419188987743
1329.0873134045069 6929.146582013882
1329.911318372764 6851.610181490362
1330.735121662441 6822.727931560557
1331.558723329399 6736.658323880084
1332.3821234294774 6771.130326996073
1333.2053220185007 6872.646312165285
1334.0283191522612 6764.406616237351
1334.851114886529 7018.940241238864
1335.6737092770582 6804.971871309333
1336.4961023795695 6816.483550066393
1337.3182942497697 6803.526128084943
1338.1402849433325 6718.693779797904
1338.962074515921 6723.546410296275
1339.7836630231632 6624.456000390119
1340.6050505206676 7067.913866990006
1341.426237064028 7057.899575345749
1342.2472227088037 7015.868625009872
1343.0680075105338 6621.725304795496
1343.888591524741 6653.259630771665
1344.7089748069138 6981.5029592924275
1345.5291574125276 6768.240805049706
1346.3491393970307 6573.818471788564
1347.168920815846 6804.621914875337
1347.9885017243778 6832.652945536744
1348.8078821780036 6693.808762855978
1349.6270622320844 6875.058720518146
1350.4460419419447 6540.14457537974
1351.2648213629054 6851.616851510495
1352.0834005502438 6531.761423244654
1352.90177955923 6726.356050645144
1353.7199584451064 7193.831913401118
1354.5379372630887 6781.91320383703
1355.355716068374 6603.783645900748
1356.1732949161305 6608.731286721746
1356.9906738615155 6665.231669363302
1357.8078529596478 6821.656554999654
1358.6248322656375 6824.343291985821
1359.441611834567 6597.723818683602
1360.2581917214866 6944.3297438082345
1361.0745719814367 6625.493619178096
1361.890752669433 6661.031916742291
1362.7067338404577 6613.754568114391
1363.5225155494845 6815.322996148096
1364.3380978514506 6863.341476344356
1365.1534808012839 6395.216390896492
1365.9686644538815 6397.5758081479435
1366.783648864117 6794.334677823364
1367.5984340868417 6796.145794984521
1368.413020176893 6688.473880771207
1369.2274071890715 6661.608881607908
1370.0415951781652 6807.084077790516
1370.8555841989346 6635.637216788693
1371.6693743061223 6539.760036142688
1372.48296555444 6467.491238176644
1373.2963579985844 6722.499330129113
1374.1095516932255 6535.493605697065
1374.9225466930166 6349.334674194606
1375.7353430525782 6602.020259102772
1376.5479408265164 6480.390758309896
1377.36034006941 6654.535112439798
1378.1725408358216 6684.664057830669
1378.9845431802805 6335.2385625964025
1379.796347157304 6814.628636078603
1380.6079528213813 6733.0478086374405
1381.4193602269788 6342.835305989322
1382.230569428546 6340.69853576135
1383.0415804805016 6696.778210433133
1383.852393437246 6671.206926295888
1384.6630083531563 6585.4826762422945
1385.4734252825892 6522.7039191139265
1386.2836442798798 6437.747789135057
1387.0936653993322 6521.454801727658
1387.9034886952395 6417.872939329054
1388.713114221864 6605.294026948427
1389.5225420334482 6596.722444295777
1390.331772184214 6272.760050105441
1391.1408047283585 6230.375273686555
1391.9496397200564 6237.46614787093
1392.758277213461 6563.932397645112
1393.5667172627054 6527.7864948482475
1394.3749599218918 6300.3050502450915
1395.1830052451114 6131.418754607937
1395.9908532864265 6240.658329519339
1396.7985040998774 6601.8546791749195
1397.6059577394808 6138.518828764269
1398.4132142592352 6409.081505816984
1399.2202737131156 6225.884745204987
1400.027136155073 6350.372253990503
1400.8338016390353 6253.824636258048
1401.6402702189134 6326.8555412112055
1402.446541948586 6322.538295964445
1403.2526168819204 6049.098158082111
1404.058495072757 6215.35665416504
1404.8641765749107 6091.919998398574
1405.6696614421799 6201.472969182017
1406.4749497283356 6432.231636233115
1407.280041487129 6019.635005182038
1408.084936772295 5859.399710423337
1408.8896356375335 6110.7881794356845
1409.6941381365323 6050.727807018902
1410.498444322955 5720.080367948196
1411.3025542504402 5856.942050062977
1412.106467972606 5840.59934853761
1412.9101855430508 5872.6937978520455
1413.7137070153458 5550.426014669462
1414.5170324430437 5600.56634230625
1415.320161879672 5804.937147029066
1416.1230953787435 5990.24197711306
1416.925832993742 5499.169202279219
1417.7283747781275 5326.188529424351
1418.5307207853439 5661.837846051381
1419.3328710688093 5602.440773527547
1420.134825681922 5210.25942738238
1420.9365846780584 5427.762880878008
1421.7381481105713 5612.6782400908605
1422.539516032788 5471.241887297883
1423.3406884980232 5082.967830185397
1424.1416655595604 5076.892430277827
1424.942447270665 5200.675155646996
1425.7430336845828 5350.3563245077585
1426.5434248545298 5011.149369356717
1427.3436208337116 5270.847502031022
1428.143621675301 5423.571588937776
1428.9434274324558 5319.464734729825
1429.7430381583108 5001.50454972939
1430.5424539059713 5198.188036784467
1431.3416747285337 5700.4686033368935
1432.1407006790632 5239.170079902554
1432.9395318106053 5239.756907229661
1433.7381681761835 4961.815644895808
1434.5366098288014 5153.789004697348
1435.3348568214424 5196.294621883922
1436.1329092070573 5029.506154891451
1436.9307670385879 5073.962801613678
1437.7284303689503 5149.0595170498555
1438.5258992510335 5336.6352809734835
1439.3231737377118 5072.347482513496
1440.1202538818306 5167.962758684573
1440.9171397362225 5047.840700988183
1441.7138313536925 5120.102362061735
1442.5103287870243 4849.420662648929
1443.3066320889775 4837.259757395118
1444.1027413122956 5208.410294325758
1444.8986565096966 4976.721790983504
1445.694377733882 4897.213032468022
1446.4899050375207 4761.692001358118
1447.2852384732687 4811.545189923136
1448.0803780937622 5116.219093747668
1448.8753239516063 4811.931961315176
1449.6700760993954 4794.5591981561265
1450.464634589689 4716.561131970427
1451.2589994750397 5182.1939519154175
1452.0531708079689 4753.6277488748
1452.8471486409799 4746.131843367157
1453.6409330265524 5128.302348865849
1454.4345240171442 4857.478291839398
1455.2279216651987 4855.693323292982
1456.0211260231263 4959.23856782089
1456.8141371433194 4926.339940964131
1457.6069550781594 4967.0431633075
1458.3995798799897 4733.008192568531
1459.1920116011424 4885.737209106248
1459.98425029393 4774.44425911222
1460.7762960106338 4754.1748440928495
1461.5681488035225 4843.1411851415305
1462.3598087248392 4802.906969832426
1463.1512758268036 5046.171131999588
1463.942550161617 4791.376500535417
1464.7336317814625 4725.173492952718
1465.524520738496 4889.99085184571
1466.3152170848552 4681.278509204561
1467.1057208726506 4915.230531863442
1467.8960321539817 4750.013597426535
1468.6861509809169 4672.772498881347
1469.4760774055085 4821.203530006433
1470.265811479785 4876.397404327001
1471.055353255755 4605.583729517373
1471.844702785409 4739.525916871142
1472.6338601207044 4621.953572905983
1473.4228253135934 5365.8688401125855
1474.2115984159936 4655.916351159418
1475.0001794798063 4558.817754612344
1475.7885685569145 4862.246661511719
1476.576765699172 4895.718185712772
1477.3647709584238 4850.444735216626
1478.1525843864802 5041.87355428565
1478.9402060351367 5032.3339812805425
1479.7276359561693 4837.849941592138
1480.514874201328 4795.738924862565
1481.3019208223468 4587.397621229591
1482.0887758709323 4589.657779151248
1482.8754393987747 4867.921406926357
1483.6619114575406 4588.802067709958
1484.4481920988783 4940.875071804533
1485.2342813744108 4933.505814174865
1486.0201793357446 5067.267361616412
1486.8058860344572 4857.547699908944
1487.591401522117 4872.494911419328
1488.3767258502594 4844.829584756786
1489.1618590704056 4884.293675754235
1489.9468012340494 4721.779421190827
1490.7315523926754 4939.6217195811605
1491.5161125977356 5027.955302271311
1492.3004819006637 4869.176448356977
1493.084660352877 4900.1657591593475
1493.8686480057622 5002.656180188139
1494.6524449106964 5305.047564919826
1495.4360511190262 5122.4764723613525
1496.219466682087 4965.975512273125
1497.0026916511779 5095.521605596665
1497.7857260775945 4938.808478910487
1498.5685700125996 5094.795617705585
1499.3512235074395 4918.752062719761
1500.133686613337 4936.004407631672
1500.9159593814966 4885.048729106265
1501.698041863101 5448.268601787917
1502.4799341093094 4797.257488533205
1503.2616361712662 4725.701543463843
1504.043148100087 5064.8463188386795
1504.8244699468742 5074.00118747921
1505.6056017626997 4929.959541943846
1506.3865435986281 4672.011958655747
1507.1672955056893 5017.661936122333
1507.9478575348967 4807.919030693767
1508.7282297372512 5034.837348277892
1509.5084121637192 4934.050773323964
1510.2884048652577 4815.817378098757
1511.0682078927948 4772.692522227242
1511.8478212972423 4708.960057791997
1512.6272451294917 4789.698039157146
1513.4064794404076 4986.046965603291
1514.1855242808433 4886.808282009689
1514.9643797016215 4954.416245554315
1515.743045753552 4855.967433885744
1516.5215224874191 4975.3698728197705
1517.2998099539836 4561.850601955
1518.077908203999 4781.067025700213
1518.8558172881785 4765.65767350103
1519.633537257234 4954.860329244868
1520.4110681618404 4855.949477271212
1521.1884100526604 4956.80763192684
1521.9655629803365 4873.937117871316
1522.7425269954856 5127.3823771358875
1523.5193021487103 5085.472959148301
1524.2958884905856 4648.23810322588
1525.0722860716687 4743.658867453998
1525.848494942502 4865.524234140574
1526.624515153595 4872.657783308021
1527.4003467554485 5006.9389970720995
1528.175989798534 5024.551919237674
1528.9514443333064 4869.25201723204
1529.726710410203 5107.72172161115
1530.5017880796331 4784.585236805933
1531.276677391992 4926.3851372492745
1532.0513783976457 5191.6488301637455
1532.825891146953 4965.769616573112
1533.6002156902414 5068.708407938633
1534.3743520778207 4985.707822908375
1535.1483003599806 5042.375166097889
1535.9220605869923 4967.458070575862
1536.6956328091019 5112.443091731126
1537.4690170765407 5097.46769364246
1538.242213439511 5167.716308556208
1539.015221948208 5134.064290182242
1539.78804265279 4910.450540738902
1540.560675603405 4782.17517026722
1541.3331208501804 5383.185415057675
1542.1053784432224 5233.454715786075
1542.8774484326168 5230.241434119677
1543.649330868422 5107.130710950985
1544.4210258006842 5267.60424018179
1545.1925332794308 5123.1986169116735
1545.9638533546604 5085.0697944774965
1546.7349860763552 4922.852948207766
1547.5059314944829 5419.577117297402
1548.27668965898 5157.852734074078
1549.0472606197673 5197.92982335002
1549.817644426752 5005.320798576317
1550.5878411298072 5396.391642280063
1551.3578507787988 5178.26999084763
1552.1276734235635 5157.269464536485
1552.8973091139233 5194.15734292098
1553.6667578996767 5314.338744765379
1554.436019830604 5317.989648040407
1555.20509495646 5236.9008519077815
1555.9739833269869 5072.628577424531
1556.7426849919011 5010.249685536133
1557.511200000903 5622.246095088742
1558.2795284036674 5368.74807934417
1559.0476702498509 5270.009418028069
1559.8156255890954 5435.620061291681
1560.5833944710157 5403.605663527398
1561.3509769452048 5161.043725482383
1562.1183730612447 5198.245474419901
1562.8855828686865 5218.160232850793
1563.6526064170703 5583.041821284538
1564.4194437559127 5482.995895156452
1565.1860949347047 5221.455980538332
1565.9525600029283 5559.8872445858515
1566.7188390100328 5596.406068526603
1567.4849320054564 5214.07026030883
1568.250839038612 5271.51307320857
1569.0165601588997 5139.532107243913
1569.7820954156887 5408.794120819013
1570.5474448583373 5247.815923375937
1571.31260853618 5130.121873711403
1572.0775864985299 5017.995870672689
1572.8423787946813 5248.241516823965
1573.6069854739108 5119.610689371088
1574.371406585471 5243.9156700202075
1575.1356421785986 5403.1641000562695
1575.899692302506 5235.766088624639
1576.6635570063845 5221.860885050671
1577.4272363394157 5042.585722344117
1578.190730350747 5123.8497460798735
1578.9540390895163 5054.096642782385
1579.7171626048384 4765.507794938765
1580.480100945806 5111.2033931403985
1581.2428541614918 4914.863141897631
1582.0054223009538 5131.0621998956685
1582.767805413223 5178.530952850066
1583.5300035473156 5092.847782823476
1584.292016752228 5268.15908016393
1585.0538450769309 5223.579299145966
1585.8154885703807 4919.606218546991
1586.5769472815136 4981.4378253874565
1587.3382212592405 5083.41422363668
1588.099310552463 5381.72077186082
1588.8602152100484 4760.431681911576
1589.6209352808564 5179.868263345083
1590.3814708137234 5097.864269610288
1591.14182185746 4911.189370950205
1591.9019884608679 5180.214850441198
1592.6619706727215 4824.061007379
1593.4217685417734 5162.462423577059
1594.1813821167616 5458.377960010594
1594.9408114464022 4871.353683828114
1595.7000565793933 5099.4004489622175
1596.459117564409 5240.559168556369
1597.2179944501113 4992.703247904827
1597.9766872851324 5107.734759972921
1598.735196118092 5178.140831817478
1599.4935209975883 5360.85109135004
1600.2516619721973 5509.687052202949
1601.0096190904787 5053.3793122781435
1601.7673924009723 5213.18751703153
1602.524981952196 5057.603104977363
1603.2823877926476 5095.788575285148
1604.0396099708087 5214.971401979094
1604.7966485351371 5148.870105431537
1605.5535035340745 5173.068056195919
1606.3101750160404 5373.171968794495
1607.0666630294363 5108.881308314925
1607.822967622642 4854.819760027974
1608.5790888440224 5086.741564195005
1609.3350267419137 5334.064836224716
1610.0907813646445 5147.923733274917
1610.8463527605145 5170.732109584447
1611.601740977805 5191.971500209201
1612.356946064785 5171.5474986802865
1613.1119680696902 4833.623080806917
1613.8668070407512 4963.841611158499
1614.6214630261748 5057.367782604788
1615.375936074137 5039.685202549228
1616.1302262328118 5208.370953309038
1616.8843335503425 5162.334227274117
1617.638258074854 5022.8119164196705
1618.391999854457 5073.051476882718
1619.1455589372363 5232.136636358852
1619.8989353712623 5229.04606176355
1620.65212920458 4802.511390239495
1621.4051404852235 5051.127745161628
1622.1579692611976 4952.325406431962
1622.9106155804966 4841.934820489581
1623.663079491087 4863.273068155745
1624.4153610409248 5135.873328980421
1625.1674602779385 4993.405443780076
1625.9193772500403 4704.413416567868
1626.6711120051277 5208.01668630511
1627.4226645910676 5036.097921742014
1628.174035055721 4779.292289656078
1628.9252234469168 5086.408134153898
1629.676229812474 4878.097338468526
1630.4270542001905 5423.496019559499
1631.1776966578382 5055.069663357437
1631.9281572331747 5054.08688444594
1632.678435973945 5028.964386082981
1633.4285329278573 4972.742300699274
1634.1784481426203 4882.523905049429
1634.9281816659113 4980.229057287391
1635.677733545388 5285.3355021070965
1636.4271038286934 4963.762458777731
1637.176292563452 5114.391701924478
1637.9252997972635 5130.172236885323
1638.674125577716 5277.637698678218
1639.4227699523672 5487.368605596031
1640.171232968767 4849.254760193279
1640.9195146744423 5337.917936934792
1641.6676151168977 5392.743350868917
1642.4155343436178 5332.5740231078535
1643.1632724020765 5302.096672783484
1643.9108293397167 5278.563181787774
1644.658205203974 5031.846538630512
1645.4054000422566 5766.677727477107
1646.1524139019566 5287.884522151081
1646.8992468304423 5255.483332190384
1647.6458988750728 5260.242120757168
1648.3923700831765 5359.714711591175
1649.1386605020743 5189.464345362293
1649.8847701790564 5470.809892153983
1650.6306991614038 5412.709348339156
1651.3764474963682 5541.903504239892
1652.1220152311944 5140.446107243301
1652.867402413096 5391.033210216214
1653.6126090892776 5182.916355847631
1654.3576353069184 5637.185625807307
1655.1024811131829 5415.98240459474
1655.8471465552066 5390.099252526742
1656.5916316801213 5583.885458297864
1657.3359365350298 5307.655308198232
1658.0800611670165 5312.588438295168
1658.824005623148 5310.9149685354005
1659.5677699504722 5088.976878310361
1660.3113541960192 5363.646948436062
1661.054758406799 5194.71767213704
1661.7979826297997 5030.837920489553
1662.5410269119966 4929.689662473588
1663.283891300338 5274.12246862075
1664.0265758417645 4899.436977773366
1664.7690805831826 4994.027910194215
1665.5114055714948 5336.024532259496
1666.2535508535748 5529.710710187499
1666.9955164762814 4786.701420765189
1667.7373024864555 4915.606846342764
1668.478908930916 4961.999181539397
1669.220335856462 4611.824520619253
1669.9615833098778 4908.3358148814095
1670.7026513379296 4543.801482425862
1671.44353998736 4710.359632706521
1672.1842493048916 4875.190834148623
1672.9247793372379 4614.479245489367
1673.6651301310812 4842.2851885783
1674.4053017330934 4502.7298645995925
1675.1452941899242 4738.031460478915
1675.885107548207 4174.29776987444
1676.6247418545518 4291.03360940551
1677.3641971555535 4504.623984581269
1678.1034734977893 4550.462538095811
1678.8425709278108 4499.826470103929
1679.5814894921605 4621.954851499737
1680.320229237359 4357.084661375479
1681.0587902098978 4465.091021131763
1681.7971724562685 4399.559312643303
1682.5353760229264 4447.684726562597
1683.2734009563173 4314.886418361258
1684.0112473028657 4207.178341757191
1684.7489151089794 4216.360997787258
1685.4864044210462 4306.571192734198
1686.2237152854377 4003.8708607058024
1686.960847748498 4407.708016703343
1687.6978018565642 4001.5369022734785
1688.434577655944 3976.0314623605727
1689.1711751929379 3917.259912148516
1689.9075945138156 4057.360209430427
1690.6438356648396 3989.8841444446452
1691.3798986922448 3631.2696950731633
1692.1157836422499 3892.036214308864
1692.851490561059 3747.9354872661497
1693.587019494853 3856.2800225553283
1694.3223704897991 3679.2692232742506
1695.0575435920364 3386.48469148856
1695.792538847696 3951.2312801153066
1696.527356302886 3699.635561387849
1697.2619960036936 3517.923221560018
1697.9964579961907 3649.805411067143
1698.730742326432 3124.138683050177
1699.4648490404488 3147.0277279877705
1700.1987781842563 3430.760157333082
1700.9325298038548 3642.3333231698393
1701.6661039452174 3695.0971657916753
1702.3995006543082 3529.3827613534377
1703.1327199770658 3594.1530812111464
1703.865761959416 3256.5255754853465
1704.598626647261 3675.238543522265
1705.3313140864866 3302.1926696090823
1706.0638243229587 3294.7234634456777
1706.7961574025303 3605.0500278872228
1707.528313371029 3285.733102725925
1708.260292274268 2969.4356712529743
1708.9920941580403 3362.6800825656355
1709.7237190681226 3398.300081761265
1710.4551670502697 3373.789495685682
1711.18643815022 2896.657712702836
1711.9175324136959 3511.7298331272723
1712.6484498863938 3157.9459924579455
1713.379190614005 2994.538595278451
1714.109754642188 3160.7086231397284
1714.8401420165883 3146.8551104065673
1715.570352782839 3324.278858278408
1716.3003869865497 3344.3795795071155
1717.0302446733076 2965.3211788507297
1717.7599258886876 3088.7831762155506
1718.4894306782444 3361.64348484648
1719.2187590875183 3028.46377643596
1719.9479111620203 3230.62253355649
1720.6768869472544 3131.61888214052
1721.4056864887025 3333.47579527302
1722.1343098318284 3443.527124061481
1722.8627570220742 3048.237082334164
1723.591028104871 2911.9776648858087
1724.3191231256242 3002.3006973535676
1725.0470421297232 3070.0387641875177
1725.7747851625427 3187.3172583656033
1726.5023522694337 3162.1905761789144
1727.2297434957363 3059.2152982260304
1727.9569588867635 2858.7551390373574
1728.6839984878152 3247.0215702457517
1729.4108623441734 2705.552624939795
1730.1375505011038 3098.3606606567078
1730.8640630038426 2916.397396053053
1731.5903998976264 2860.0819743687266
1732.316561227657 3098.513252783443
1733.0425470391274 2931.529790976812
1733.7683573772065 3007.888496903467
1734.4939922870508 2868.6903381084676
1735.2194518137949 2979.320600920926
1735.9447360025606 3087.7582293035275
1736.669844898439 3007.157060195216
1737.3947785465189 2958.206237867519
1738.1195369918605 2732.4868040879987
1738.8441202795093 2866.9192110382037
1739.5685284544943 2956.20591554468
1740.292761561821 3035.4825321178305
1741.0168196464838 3177.5160847792645
1741.7407027534518 2900.478904060659
1742.464410927687 3018.0182628429825
1743.187944214118 2906.374797594677
1743.9113026576688 2753.277294118468
1744.634486303241 2992.0103069310435
1745.3574951957125 2881.4300528128506
1746.0803293799509 2879.377081196692
1746.8029889008048 2794.269551465145
1747.5254738031017 3139.4213226144043
1748.2477841316504 2710.271968108253
1748.969919931249 2863.679807440095
1749.6918812466665 2799.255743900658
1750.4136681226646 3247.288455071584
1751.1352806039777 2914.9996610227045
1751.856718735331 2729.527648543678
1752.5779825614281 2793.867283404627
1753.2990721269507 2876.3321757468593
1754.0199874765676 3074.2324982097534
1754.7407286549314 2678.646997509596
1755.4612957066693 2796.203316836886
1756.1816886763954 2766.928005098095
1756.9019076087097 2917.8437304781205
1757.6219525481865 2837.900695910942
1758.3418235393856 3081.5632546160746
1759.061520626854 2960.2824267501173
1759.7810438551096 2955.425042037646
1760.5003932686614 2675.3410900714744
1761.2195689119999 3042.008181543241
1761.938570829594 2732.002016876598
1762.657399065898 2855.184261170829
1763.376053665348 2710.8377485350684
1764.0945346723602 2704.082378483661
1764.812842131334 2964.2115295965136
1765.5309760866512 2568.3084902568967
1766.2489365826787 2807.0477912711485
1766.9667236637597 2821.552647457156
1767.684337374223 2569.3236366237725
1768.401777758383 2546.696464468542
1769.1190448605284 2655.470400898374
1769.836138724937 2650.495315345134
1770.5530593958665 2855.7274297158237
1771.2698069175603 3011.40816488347
1771.9863813342326 2801.75859285374
1772.702782690094 2698.932165431474
1773.4190110293293 2809.1741873184988
1774.1350663961111 2991.932850603155
1774.8509488345844 2551.596121373299
1775.5666583888924 2773.11260864035
1776.2821951031437 2971.6376428569642
1776.9975590214362 2716.99840098294
1777.7127501878585 3187.7850027012246
1778.4277686464684 2756.9188954050464
1779.1426144413108 3030.772537162863
1779.8572876164162 2889.7987535415236
1780.571788215797 2645.1936320938107
1781.2861162834415 2693.5591987625744
1782.0002718633277 2708.306261328117
1782.7142549994132 2607.1244550961137
1783.4280657356376 2802.241086263972
1784.141704115922 2602.2771016588827
1784.855170184177 2639.1417024993957
1785.5684639842839 2743.758592353378
1786.2815855601148 2510.4493619504724
1786.9945349555237 2854.493046036796
1787.707312214343 2612.098042510104
1788.4199173803918 2934.3337188869996
1789.132350497468 2580.1004738644524
1789.8446116093583 2697.9630884569206
1790.556700759822 2580.555425106569
1791.2686179926077 2378.372545685956
1791.9803633514493 2709.3490598663266
1792.6919368800554 2541.1221833424283
1793.4033386221236 2868.8534474858307
1794.1145686213295 2737.9046422609945
1794.8256269213307 3086.0721708290916
1795.536513565774 2963.999516851406
1796.247228598284 2486.6516754481845
1796.9577720624693 2542.5822229777577
1797.6681440019165 2595.30635030263
1798.3783444602013 2660.3940210888695
1799.0883734808776 2700.8017765580134
1799.7982311074884 2830.117143218273
1800.5079173835475 2596.6553810177365
1801.2174323525633 2871.8350315452244
1801.9267760580187 2488.2351933348045
1802.635948543386 2724.6125688291722
1803.3449498521113 2661.8573354531827
1804.0537800276325 2811.620977520087
1804.7624391133668 2618.7845458985294
1805.47092715271 2445.61951180489
1806.1792441890484 2446.384456320957
1806.8873902657433 2856.1996055740315
1807.5953654261448 2572.6341536979558
1808.3031697135812 2557.869380746878
1809.0108031713662 2608.753004953924
1809.71826584279 2672.1294960609393
1810.425557771141 2618.1121751544592
1811.1326789996747 3134.4824643213806
1811.839629571632 2725.318547582495
1812.5464095302468 2516.5404463673594
1813.2530189187182 2677.856252391828
1813.959457780249 2427.7826616969887
1814.6657261580076 2704.3158688037124
1815.371824095153 2607.720701047409
1816.0777516348262 2809.4279897796782
1816.78350882015 2401.919396588669
1817.4890956942272 2393.935189012457
1818.1945123001533 2649.6500705461444
1818.8997586809928 2570.738901769757
1819.6048348798067 2565.4790449842144
1820.3097409396287 2540.045718000444
1821.0144769034796 2824.82856063368
1821.7190428143622 2618.850682516454
1822.423438715261 2980.0181065488596
1823.1276646491478 2569.5585314761925
1823.8317206589727 2676.1454529797193
1824.5356067876692 2647.4166103686225
1825.2393230781581 2643.8205237555
1825.942869573335 2264.449693616733
1826.646246316086 2553.315013731533
1827.3494533492758 2673.297788154553
1828.052490715756 2676.463883315435
1828.7553584583547 2545.9190757286174
1829.458056619891 2656.076130905237
1830.1605852431585 2392.600935567106
1830.8629443709433 2303.379731804863
1831.5651340460063 2568.076206355468
1832.2671543110919 2594.5950075024693
1832.9690052089318 2493.9418298174505
1833.6706867822395 2445.685066607427
1834.3721990737104 2768.350778630135
1835.0735421260233 2613.466894724459
1835.774715981841 2649.1223903238806
1836.4757206838058 2908.2482605116843
1837.1765562745459 2222.8558533576092
1837.8772227966747 2380.7177115146333
1838.5777202927839 2650.608619384553
1839.2780488054523 2415.208117272332
1839.9782083772352 2469.1641667243234
1840.6781990506806 2834.0718050900077
1841.378020868313 2541.610318833499
1842.0776738726418 2473.8788304175296
1842.777158106157 2469.7604187009174
1843.4764736113375 2360.784208416715
1844.1756204306403 2752.484832337964
1844.8745986065078 2531.2163343995185
1845.5734081813607 2307.033422453613
1846.2720491976124 2361.730230592421
1846.970521697649 2415.7325035221206
1847.6688257238511 2404.3785710310253
1848.3669613185684 2471.424308278199
1849.0649285241452 2341.5343778798997
1849.7627273829057 2443.114648698982
1850.460357937156 2578.4462031793837
1851.1578202291857 2162.776451601497
1851.8551143012664 2485.8163660862187
1852.5522401956569 2683.5329536964687
1853.2491979545957 2601.973029696156
1853.9459876203055 2351.2116744472273
1854.6426092349902 2428.9513415710016
1855.3390628408451 2313.112852572029
1856.0353484800362 2643.389554723538
1856.7314661947203 2439.0103343768496
1857.4274160270397 2421.0323831490546
1858.123198019115 2403.926354866216
1858.8188122130487 2336.5976862246157
1859.5142586509319 2502.128699804539
1860.209537374838 2574.2879139491015
1860.9046484268183 2450.4860168164423
1861.599591848917 2794.372233399075
1862.294367683151 2318.641201161642
1862.988975971528 2406.39637514094
1863.6834167560355 2562.1095849348562
1864.3776900786452 2599.6193852697957
1865.0717959813119 2396.718539012988
1865.7657345059724 2340.9031216440553
1866.4595056945564 2509.2997865349907
1867.1531095889586 2486.80961261276
1867.846546231076 2272.985138070602
1868.5398156627743 2620.400155956679
1869.2329179259123 2384.5471626715253
1869.9258530623283 2686.24714993981
1870.618621113843 2257.950917668762
1871.3112221222636 2173.7773641204935
1872.0036561293764 2283.503991034492
1872.695923176956 2491.789971488075
1873.3880233067594 2483.9796109741874
1874.0799565605212 2331.8019883789766
1874.7717229799673 2447.239148899414
1875.4633226068036 2621.091472584689
1876.1547554827175 2507.621668666733
1876.8460216493859 2320.68480081396
1877.5371211484617 2394.164283300002
1878.2280540215852 2458.0144548770295
1878.9188203103804 2198.824463646975
1879.6094200564548 2476.064834495206
1880.299853301396 2309.518513844179
1880.9901200867826 2586.320443753442
1881.6802204541673 2447.959995149461
1882.3701544450942 2536.8311766367215
1883.059922101087 2281.666154254977
1883.7495234636517 2673.901744789743
1884.4389585742792 2326.6762125116425
1885.1282274744517 2374.571717343252
1885.8173302056166 2805.92074905547
1886.506266809225 2373.2780400957554
1887.195037326701 2232.9305260698698
1887.8836417994517 2431.943981480249
1888.5720802688702 2772.565311010028
1889.260352776333 2580.4676384442378
1889.9484593632042 2489.3270697023386
1890.63640007082 2444.6994318209513
1891.3241749405151 2327.395666133187
1892.0117840135954 2527.697649564361
1892.6992273313572 2303.4121940075624
1893.3865049350788 2255.8666891844323
1894.0736168660223 2666.22537477152
1894.7605631654333 2380.1083695654506
1895.4473438745408 2218.7174801634555
1896.133959034556 2694.5677082847606
1896.820408686679 2378.617615226184
1897.506692872088 2659.028782318009
1898.192811631945 2478.062244527611
1898.8787650073991 2227.307510742231
1899.5645530395832 2447.5795938788538
1900.2501757696118 2555.126471795763
1900.9356332385796 2155.7554990729227
1901.620925487574 2605.3636377537964
1902.3060525576602 2496.1072319013174
1902.9910144898859 2547.5812740303963
1903.6758113252872 2217.4508238979797
1904.3604431048789 2436.4559858732773
1905.0449098696663 2440.05084063829
1905.7292116606295 2363.398328296284
1906.4133485187394 2417.1513049650175
1907.0973204849488 2050.455108929713
1907.7811276001976 2326.280886546606
1908.4647699053967 2358.9227751480103
1909.1482474414588 2228.304534891435
1909.8315602492694 2179.0161265160127
1910.5147083696957 2564.0634812159137
1911.1976918436012 2490.8155643810383
1911.880510711815 2417.323080367987
1912.5631650151681 2432.021604513894
1913.2456547944657 2359.1270419753364
1913.927980090495 2278.71785851779
1914.6101409440362 2242.494376978225
1915.2921373958416 2378.939767568323
1915.9739694866603 2239.28619590365
1916.655637257214 2611.854298760773
1917.3371407482136 2350.9664486138763
1918.0184800003572 2592.643782298743
1918.6996550543154 2426.745986579792
1919.3806659507554 2400.5777984191645
1920.0615127303208 2470.780974252521
1920.7421954336423 2657.0360845964665
1921.4227141013343 2501.4409896936454
1922.103068773993 2466.5013871709957
1922.783259492202 2560.857318988842
1923.4632862965227 2243.08097014871
1924.1431492275078 2151.3487110694396
1924.8228483256917 2290.738859503657
1925.5023836315922 2441.628932625787
1926.1817551857057 2002.0200264980836
1926.8609630285227 2554.773220826285
1927.5400072005123 2357.810718316864
1928.218887742125 2082.022261973494
1928.8976046938005 1969.7653153136175
1929.5761580959588 2355.3052589898275
1930.2545479890086 2391.701574097885
1930.9327744133352 2235.646929433381
1931.6108374093164 2415.176957656094
1932.2887370173066 2545.208057291479
1932.9664732776473 1939.875111936623
1933.6440462306673 2278.18051873121
1934.3214559166754 2167.240860057401
1934.9987023759659 2422.1656622064775
1935.675785648813 2371.646407271812
1936.3527057754836 2058.3793857378014
1937.029462796223 2514.2394228571557
1937.70605675126 2239.4971935597578
1938.3824876808085 2215.335006827053
1939.058755625072 2085.4626009070425
1939.7348606242267 2215.601910747175
1940.4108027184448 2299.287092999623
1941.0865819478713 2515.032386095881
1941.7621983526478 2058.714266190177
1942.4376519728921 2053.3976535181064
1943.1129428487038 2143.918028560241
1943.7880710201734 2286.425868208314
1944.4630365273733 2381.1316989799134
1945.1378394103576 2019.0392069895122
1945.8124797091714 2003.7445256197109
1946.4869574638324 1988.3494026178905
1947.161272714353 2150.380906851523
1947.8354255007234 2300.1082969759054
1948.5094158629272 2189.1079441214815
1949.1832438409183 2474.518666224216
1949.8569094746435 2337.3072486106616
1950.530412804037 2408.2044764720695
1951.2037538690092 2405.50220217498
1951.8769327094578 2158.1115052651226
1952.5499493652678 2223.112322311491
1953.222803876306 2413.5755817338586
1953.895496282421 2228.5726421521667
1954.5680266234522 2215.557796183621
1955.2403949392155 2210.2254325333133
1955.9126012695142 2029.2862558048898
1956.5846456541403 2348.683288761811
1957.2565281328643 2138.318553120399
1957.9282487454457 2203.281766366771
1958.5998075316202 2449.320236994833
1959.27120453112 2379.7562326362486
1959.9424397836501 2268.047927016166
1960.613513328908 2504.1310267029103
1961.2844252065697 2540.471253264608
1961.9551754563017 2266.5914112152486
1962.6257641177453 2149.383077110563
1963.29619123054 2103.66670662315
1963.966456834296 1976.137334726124
1964.6365609686181 1945.8169209767802
1965.306503673086 2361.5119948280108
1965.976284987275 2073.085018214926
1966.645904950734 2262.4293693561617
1967.315363603002 1979.4427779185833
1967.9846609836077 2215.1243786636414
1968.6537971320486 2190.294580891548
1969.3227720878222 2083.3958418896646
1969.9915858904042 2089.978598342125
1970.660238579252 2360.419033131345
1971.3287301938108 2266.4632013828277
1971.997060773514 1925.4058988936454
1972.665230357772 2166.0593494542536
1973.3332389859843 1972.556211936447
1974.0010866975335 2089.13817572023
1974.6687735317864 2260.5766649345674
1975.3362995280932 2315.161146446073
1976.003664725793 2174.985852571257
1976.6708691642052 1883.2916845111401
1977.3379128826364 2095.519491122067
1978.004795920373 2271.0438250227517
1978.6715183166925 2061.1422515170498
1979.3380801108524 2437.112858925804
1980.0044813420973 2242.0835949306284
1980.6707220496555 1865.2929876769008
1981.3368022727373 2069.412256254599
1982.0027220505417 2249.0297626830334
1982.66848142225 1830.835855154311
1983.3340804270283 1834.5953709534642
1983.999519104027 2313.5958908194943
1984.6647974923835 2258.7423931779213
1985.329915631215 2336.3444876873477
1985.99487355963 2166.686719857703
1986.6596713167146 2353.8785859852064
1987.3243089415428 2100.120492206264
1987.9887864731754 2337.8383599930926
1988.6531039506553 2059.3186802678583
1989.3172614130071 2374.1379718151447
1989.9812588992481 2219.5402009707777
1990.645096448372 2038.4056536216103
1991.3087740993633 2169.8623554117667
1991.9722918911848 2155.6448735036565
1992.635649862792 2064.328423573089
1993.2988480531185 2336.398332493952
1993.9618865010852 2487.1057720168637
1994.6247652455968 1983.9974082423819
1995.287484325545 1854.7584359481284
1995.9500437798033 2202.5570605697694
1996.6124436472292 1909.0822862183172
1997.2746839666706 2270.1564825904816
1997.936764776954 2091.7682696005786
1998.598686116895 2243.8801072591546
1999.2604480252903 2478.368023176361
1999.9220505409212 2071.421150644446
2000.5834937025593 1889.6391674776867
2001.2447775489582 2039.7703919645617
2001.9059021188514 2144.7074150010367
2002.5668674509616 2073.3390485777336
2003.2276735839987 2075.9708547301466
2003.8883205566508 2010.8447232995004
2004.5488084075987 1945.5623895311262
2005.2091371755014 2050.2937060549466
2005.8693068990033 1972.1161498980523
2006.5293176167397 2226.381508547728
2007.1891693673224 1873.9006742365407
2007.848862189354 1826.9893889628827
2008.5083961214223 2060.5688375542895
2009.1677712020955 1852.893506076563
2009.8269874699254 2010.2703536483855
2010.4860449634598 2534.051031775157
2011.1449437212177 2417.9302833876673
2011.8036837817108 2301.621556156312
2012.4622651834325 2355.2030667558474
2013.1206879648653 2239.206297444282
2013.7789521644736 2089.8429306927533
2014.4370578207036 1940.0374867692658
2015.0950049719922 2152.557836920346
2015.7527936567585 2083.0000060665716
2016.4104239134067 2211.7433867233162
2017.067895780323 2599.935429440141
2017.725209295886 2571.2749724586706
2018.3823644984514 2542.4721128997435
2019.0393614263648 2057.3426422625225
2019.6962001179545 1897.3930948931752
2020.3528806115355 1892.5008422981787
2021.0094029454067 1887.6055540295001
2021.6657671578487 1987.3885788502655
2022.321973287133 1982.710982208601
2022.9780213715148 2000.600453025171
2023.6339114492293 1907.1006115841842
2024.2896435585026 1887.5541552265945
2024.9452177375442 2113.3925301125805
2025.600634024544 2401.513542119668
2026.2558924576842 2054.6931002350916
2026.9109930751292 2157.740124536096
2027.565935915025 1903.5924498278298
2028.2207210155066 2402.850311626954
2028.8753484146964 2275.367674310347
2029.529818150695 1864.2364451598667
2030.1841302615903 2167.1467992189623
2030.8382847854573 1977.0735738803228
2031.4922817603601 1856.2433857048807
2032.1461212243357 2126.9799311235115
2032.7998032154192 1789.518570384794
2033.4533277716218 2102.027504573011
2034.1066949309443 1901.814469319082
2034.7599047313688 2181.621715182728
2035.4129572108704 2246.052081384276
2036.0658524074006 2266.4686034442793
2036.7185903589016 2141.452976947675
2037.3711711032956 2051.6363385565137
2038.023594678496 2130.743521110483
2038.675861122394 1888.6162786134541
2039.3279704728757 1842.0009213296485
2039.9799227678031 1795.4487635121707
2040.6317180450278 1879.7686967569807
2041.2833563423865 1966.5811775913312
2041.9348376977014 2190.36118396238
2042.5861621487784 1920.3212313031418
2043.2373297334088 2244.6768239579574
2043.8883404893695 2092.0141905567098
2044.5391944544208 2298.4679355747244
2045.1898916663158 2120.5287491742015
2045.8404321627804 2231.8451370951634
2046.4908159815368 2019.5797884866456
2047.1410431602853 2295.292228162636
2047.7911137367173 2192.324780236386
2048.441027748504 2089.1343764833136
2049.090785233302 1827.5724428401631
2049.7403862287592 1866.5524166466234
2050.389830772503 1780.3746905358707
2051.0391189021466 1694.1661128682645
2051.688250655294 1977.2201077619095
2052.337226069527 1820.9380279190239
2052.986045182417 2137.3281126852785
2053.634708031521 2149.096356601619
2054.283214654375 2161.0281333215967
2054.931565088511 1696.9173650515938
2055.579759371436 1828.2680349767882
2056.2277975406523 2098.7710580138564
2056.8756796336384 2256.401157611179
2057.5234056878617 1693.0281019044712
2058.1709757407752 1854.6016395118786
2058.8183898298194 2053.422011384911
2059.465647992416 2087.85059620948
2060.1127502659747 2057.547659809835
2060.759696687888 1750.6726439565584
2061.4064872955405 2200.7892265688097
2062.053122126292 2309.938439799732
2062.699601217497 1765.1153214749324
2063.345924606485 1965.1928808577766
2063.992092330587 2132.611207813956
2064.638104427102 1775.9477756131553
2065.283960933324 2296.633302806188
2065.92966188653 2149.946070598645
2066.5752073239855 2164.50159742613
2067.2205972829397 1763.0326281201947
2067.86583180062 1892.3216667146814
2068.5109109142522 1864.736549823406
2069.15583466104 1930.4859974492551
2069.8006030781708 1996.2985990332588
2070.445216202821 2026.8430553796475
2071.089674072153 2394.8002359274738
2071.7339767233116 2013.856869923196
2072.3781241934303 1978.2782826796101
2073.0221165196253 2123.0594030348834
2073.6659537390024 2038.5054425492992
2074.3096358886505 2158.481205083593
2074.953163005637 1731.00287317992
2075.596535127028 1700.047242487654
2076.2397522898664 1606.1157549889626
2076.882814531182 1964.5658231886605
2077.5257218879924 2176.746758777389
2078.1684743973 1600.0286970743778
2078.8110720960885 1612.4985824670862
2079.453515021336 1830.5156445134587
2080.095803209997 2048.7366198825425
2080.7379366990135 1907.2760674990507
2081.37991552532 1876.0447259921064
2082.0217397258275 2074.9301362492397
2082.6634093374414 1730.5588052571977
2083.3049243970418 1981.520803203723
2083.9462849415067 2118.784212569158
2084.587491007689 1984.1444845310184
2085.2285426324324 2041.1075886415013
2085.869439852564 2058.993352372993
2086.510182704902 1603.971163474405
2087.1507712262483 2001.2349840279148
2087.791205453381 1617.17070314378
2088.4314854230743 2093.89159447778
2089.0716111720867 1940.113648762666
2089.7115827371617 1721.0638690628955
2090.351400155023 1745.2152177371506
2090.991063462385 1769.4981657224398
2091.6305726959527 1702.5105200069654
2092.2699278924047 1750.299237282225
2092.9091290884153 1798.2554030402018
2093.548176320641 1683.384284223756
2094.187069625721 1729.0878250951823
2094.8258090402887 1774.8910878375555
2095.464394600951 1973.7571951920913
2096.102826344313 1930.1716878196319
2096.741104306955 2099.123668221121
2097.379228525453 1707.4978158394376
2098.017199036358 1710.5747603651143
2098.6550158762147 1795.554150530836
2099.2926790815527 1880.7013626413814
2099.9301886888825 2013.84015124867
2100.5675447347076 1956.8638407740698
2101.2047472555114 1885.5492717412058
2101.841796287761 1814.0868691418527
2102.47869186792 1902.6193136364686
2103.1154340324265 1939.1131981767649
2103.752022817709 1892.4853656231553
2104.388458260184 1979.059804812347
2105.024740396251 2000.3190017684296
2105.660869262292 1888.0631849216766
2106.296844894685 1849.6207211029669
2106.93266732978 1811.1341709282156
2107.5683366039284 1561.9393919979852
2108.2038527534532 1972.5016547785358
2108.8392158146726 2018.146668718077
2109.4744258238843 1907.7615905478292
2110.1094828173755 1991.999321708327
2110.744386831422 2436.6337566394827
2111.3791379022787 2071.9796744448313
2112.01373606619 2123.0336192731766
2112.648181359389 1697.7560739824137
2113.28247381809 2109.2411050635287
2113.916613478492 1817.3048259697273
2114.550600376786 1923.9138353276849
2115.1844345491445 2102.3699471601226
2115.818116031729 1774.9880237902355
2116.451644860679 1927.8672250382679
2117.085021072133 1517.7235615873958
2117.718244702204 1855.951349922725
2118.3513157869984 1796.5445283965594
2118.984234362604 1701.5005883307629
2119.617000465092 1934.0996395219831
2120.249614130529 2284.563076871993
2120.8820753949585 1904.0684121649842
2121.5143842944162 1702.066664108347
2122.14654086492 1613.982228263613
2122.7785451424734 2076.318551843343
2123.4103971630702 2133.965186489689
2124.042096962681 2191.9806190435424
2124.6736445772767 1943.2977671237131
2125.305040042802 1853.3343482620403
2125.936283395191 1885.53144647819
2126.567374670365 1896.669415443527
2127.198313904233 1730.4001400873774
2127.8291011326855 1695.7027346930813
2128.4597363916037 1660.731227194421
2129.0902197168507 1946.894555664881
2129.720551144279 1769.2456716620752
2130.3507307097225 1980.9247150887927
2130.980758449008 2147.904946671598
2131.6106343979427 2182.829114078661
2132.2403585923203 2217.6796168239057
2132.8699310679276 2157.6409006795916
2133.499351860526 1972.648969254283
2134.1286210058715 1968.610663060504
2134.7577385397053 1719.660058666253
2135.3867044977487 1863.1817709038419
2136.0155189157176 2130.8644226891297
2136.644181829308 2236.258008793545
2137.2726932742025 1913.3838228000884
2137.901053286074 2218.4111796451984
2138.5292619005777 1862.5705264171806
2139.1573191533535 1888.0742910461836
2139.7852250800315 2030.6033543098315
2140.4129797162295 1956.9616806413803
2141.0405830975433 1573.3216355905956
2141.6680352595613 1603.8197966944601
2142.2953362378576 1634.3946413268604
2142.9224860679915 1902.557731910437
2143.549484785508 1714.7281120440832
2144.1763324259373 1870.8285780412066
2144.803029024799 1891.602292443
2145.429574617594 1965.5831971428197
2146.0559692398165 2011.63471817671
2146.682212926942 1701.9464125176269
2147.308305714432 1729.7753257262284
2147.9342476377333 2018.254779374141
2148.5600387322847 2069.0627728312634
2149.185679033506 2128.8865431799754
2149.8111685768017 1880.5716979609583
2150.4365073975678 1922.79943012949
2151.061695531187 1796.8423490357134
2151.686733013021 2056.6174583267384
2152.311619878423 1921.9067819716915
2152.9363561627342 1969.9966865192946
2153.560941901278 1617.0344747561742
2154.1853771293663 1866.057361015194
2154.809661882293 2074.2087482349316
2155.433796195348 2046.0493349109634
2156.0577801037944 1904.5054613197372
2156.681613642895 1961.9154372197277
2157.3052968478896 1792.8823145857561
2157.928829754006 1758.8002741725788
2158.552212396462 1814.8528429882765
2159.1754448104566 1892.9759620475402
2159.7985270311783 1651.8112521370215
2160.4214590938027 1456.9347755732242
2161.0442410334927 1479.9961755674801
2161.6668728853874 1800.2583048094482
2162.289354684628 1600.2241201149789
2162.911686466332 1775.060342456523
2163.533868265602 1961.8365516463514
2164.1559001175337 2211.0818502870616
2164.7777820572046 1922.3256402338811
2165.399514119681 1758.965029568589
2166.021096340013 1460.2136676591642
2166.6425287532384 1575.1454437324917
2167.263811394385 1690.3575984843635
2167.8849442984574 2008.4628680089197
2168.505927500455 1981.8674801288703
2169.126761035366 1955.4306026166523
2169.7474449381552 1797.110551039215
2170.367979243778 1907.4674164416258
2170.9883639871823 2018.203576811277
2171.608599203293 1741.452988479133
2172.2286849270276 2327.325383971488
2172.8486211932886 2406.747359342163
2173.4684080369625 1700.9775996212952
2174.0880454929265 1610.7718688817606
2174.7075335960417 1709.205221268942
2175.3268723811543 2022.143678794407
2175.9460618831 1830.033597106211
2176.565102136701 1458.4700947914448
2177.1839931767627 1522.122252367901
2177.802735038078 1585.9644929705341
2178.421327755432 1558.7839315708638
2179.0397713635866 1814.091637966531
2179.658065897298 1546.8019142760259
2180.276211391305 1529.3245818306798
2180.8942078803357 1511.7263686115834
2181.5120553991 1784.004076044219
2182.129753982299 1631.7876696342662
2182.7473036646206 1820.207929804453
2183.3647044807367 1902.930268414381
2183.9819564653044 1846.6557428344204
2184.599059652968 1790.3097990537103
2185.216014078367 2024.5215008232149
2185.832819776113 2051.2879513144417
2186.4494767808137 2078.000568426386
2187.065985127063 1797.3508788156687
2187.682344849436 1782.8500568805248
2188.298555982501 1763.4191785604992
2188.9146185608097 1743.842925895262
2189.530532618901 1847.1128593872465
2190.1462981912937 1696.3605817210287
2190.761915312507 1795.741044831945
2191.377384017036 1934.857968857223
2191.9927043393654 1754.0252327642452
2192.6078763139667 1446.0416632267938
2193.2228999753006 1556.739415782487
2193.837775357808 1667.68813066568
2194.452502495922 1361.4958620036437
2195.0670814240602 1636.8450777064054
2195.6815121766285 1582.2790552965002
2196.2957947880186 1514.5564711472048
2196.9099292926057 1446.702446292061
2197.523915724758 1910.3186967206202
2198.137754118825 1776.0396218678811
2198.7514445091456 1713.2145255778717
2199.3649869300443 1650.3198224864846
2199.9783814158327 1876.097471561201
2200.5916280008096 2141.2118847603724
2201.2047267192593 1832.2577901027846
2201.8176776054515 1786.0326449702084
2202.430480693649 1695.2790852298713
2203.0431360180955 1826.7641056838777
2203.6556436130195 1972.5574707536284
2204.268003512645 1575.1422778971785
2204.8802157511727 1964.025188486597
2205.492280362796 2001.8110627405251
2206.1041973816937 1770.9502893569224
2206.715966842032 1777.7576447060583
2207.3275887779655 1656.7234486027562
2207.93906322363 1798.1028409646206
2208.550390213153 1967.7314511930686
2209.1615697806465 1775.2779631821772
2209.7726019602105 1318.478754772038
2210.3834867859277 1498.6166663319605
2210.9942242918787 1798.7947949883073
2211.6048145121167 1728.9905899249957
2212.2152574806914 2457.524007669199
2212.825553231638 1573.5132608909078
2213.435701798975 2572.951006363619
2214.045703216707 1740.8379676963111
2214.655557518832 1297.3648549191357
2215.2652647393297 1393.5093183005283
2215.874824912169 1321.1600582396773
2216.4842380713 1653.7396664087942
2217.09350425067 1624.4872135811092
2217.7026234842033 1629.3993985928537
2218.311595805819 1993.6960908241715
2218.9204212494133 1577.7309908790842
2219.52909984888 2066.99539930293
2220.137631638092 2111.4141297551896
2220.7460166509154 2155.7909646224484
2221.354254921198 1818.0320573327463
2221.9623464827764 1894.357362222052
2222.5702913694713 1768.2631369396072
2223.178089615096 1897.877349603148
2223.7857412534486 1587.3404309439766
2224.39324631831 1447.638467092249
2225.000604843457 1570.0574535897294
2225.607816862641 1785.7017654665942
2226.214882409611 2001.6005109845319
2226.8218015180973 1859.988354499296
2227.4285742218217 1622.5828872692932
2228.0352005544864 1717.6109458361038
2228.6416805497847 1501.3713258362968
2229.248014241399 1671.6522970654019
2229.8542016629945 1456.57164674794
2230.460242848223 1837.3213914311877
2231.0661378307304 1760.751246603281
2231.671886644139 1684.140189573193
2232.277489322065 1558.7983690159358
2232.8829458981127 1353.3616533265688
2233.48825640587 1824.1037680659283
2234.0934208789095 2470.14814557577
2234.6984393507955 2136.7795142500427
2235.3033118550793 2247.5905188992556
2235.9080384252975 1731.3928642397962
2236.5126190949723 1472.8744448358798
2237.1170538976166 1618.6896054020451
2237.721342866729 1696.045360065522
2238.32548603579 1773.5302832888217
2238.9294834382763 1618.2545221467885
2239.533335107646 1500.8160358962532
2240.1370410773434 1694.88812961222
2240.740601380803 1889.2583456236057
2241.3440160514474 1657.1538660576139
2241.9472851226783 1699.668134004755
2242.550408627896 1852.6515269553815
2243.1533866004793 2005.9221699881396
2243.756219073799 1941.3196607255454
2244.3589060812064 1528.4324345477767
2244.961447656049 1581.4855072376067
2245.5638438316564 1772.1328725661601
2246.166094641343 1787.124661466595
2246.7682001184166 1566.7238392455397
2247.3701602961664 1700.2051477094017
2247.971975207871 1764.2104816838353
2248.5736448867974 1976.8358476925237
2249.175169366197 1835.9543053357156
2249.7765486793123 1493.8362450452576
2250.3777828593684 1815.2143868838316
2250.9788719395783 1971.5472463052988
2251.579815953146 1749.201269370585
2252.1806149332606 1575.7260949712595
2252.781268913097 1622.9801978686787
2253.381777925817 1505.9279670769433
2253.9821420045737 1713.1480248663277
2254.5823611825035 2116.6179855863334
2255.1824354927303 1576.1161370060004
2255.782364968365 1509.7766212709826
2256.38214964251 1443.392330916647
2256.9817895482483 1513.4665551419325
2257.5812847186553 1837.4057967376934
2258.180635186791 1446.75938112421
2258.779840985704 1777.296638969632
2259.37890214843 1860.1189890561332
2259.97781870799 2182.628801486862
2260.5765906973957 1816.7060692128684
2261.175218149645 1607.061991995356
2261.773701097718 1505.7673319507524
2262.3720395745895 1404.257498182449
2262.970233613216 1406.9200749100314
2263.568283246548 1486.7514054394128
2264.1661885075137 1533.3085736386886
2264.763949429038 1786.1012818912372
2265.3615660440246 1689.470604388306
2265.959038385374 1592.7130667830547
2266.5563664859637 1873.455590397177
2267.153550378669 1593.5772610692727
2267.7505900963424 1882.5638788547335
2268.3474856718312 1619.2167206745855
2268.9442371379664 1626.8999188037901
2269.5408445275643 1460.6724144644784
2270.1373078734377 1876.3185596298251
2270.7336272083758 1714.645709006063
2271.32980256516 1653.6785173855756
2271.925833976562 1638.527051891051
2272.5217214753357 1639.4174433716448
2273.117465094223 1640.2769766504287
2273.7130648659586 1718.7590748780954
2274.308520823257 1595.784221554188
2274.903832998827 1980.909669254272
2275.4990014253563 1683.691762250094
2276.094026135528 2007.86033361905
2276.6889071620117 2030.5548037557608
2277.2836445374614 2053.1977017627532
2277.878238294519 2092.0140845895326
2278.472688465812 1786.2290888616076
2279.066995083962 2243.1776956712156
2279.6611581815705 1811.3430184082085
2280.255177791232 1988.8594148398338
2280.8490539455233 2166.734024056056
2281.442786677013 2129.7196389053556
2282.0363760182554 1795.5798306035213
2282.6298220017943 1557.493860303683
2283.223124660155 1858.5127632345684
2283.816284025859 1523.4091771518129
2284.4093001314086 1329.8209142007363
2285.002173009292 1942.3660674992436
2285.5949026919952 1752.7614869988265
2286.1874892119777 1602.665381936947
2286.7799326016993 1744.1810300911643
2287.3722328936 1390.8201311143314
2287.964390120109 1403.1993325433973
2288.556404313642 1635.9492407897674
2289.1482755066027 1690.1321877611474
2289.7400037313873 1744.3315033705871
2290.3315890203703 1673.091519735584
2290.9230314059205 1650.7247126485483
2291.5143309203904 1628.3729758344778
2292.1054875961236 1488.9616185653417
2292.6965014654506 1986.1149769019132
2293.287372560684 1702.7077939264716
2293.878100914131 1649.7400018281708
2294.468686558086 1596.7122136850635
2295.059129524827 1547.573520131006
2295.649429846617 2116.14937446953
2296.239587555716 2025.9537003848286
2296.8296026843636 2095.031238383195
2297.419475264791 2164.128528623587
2298.0092053292137 1935.8705065671359
2298.598792909839 1889.491215448689
2299.1882380388597 1839.7106057424705
2299.777540748455 2137.4440164708176
2300.3667010707904 2084.300367678593
2300.9557190380256 1872.145924577921
2301.544594682302 2321.0173043180725
2302.1333280357503 2268.4448568833145
2302.721919130485 2215.856310375764
2303.3103679986198 2157.7123562328165
2303.898674672242 1876.0403326628887
2304.486839183437 1516.8634224452385
2305.0748615642697 1935.7722859655066
2305.6627418468015 1532.784469519099
2306.2504800630704 1692.7929800233112
2306.8380762451143 1557.2650697594613
2307.425530424949 1678.8668845156378
2308.012842634582 1800.7347279931496
2308.6000129060103 2008.8712517067222
2309.187041271214 1890.129167915676
2309.773927762164 1771.1470395290537
2310.3606724108213 1861.1837106830524
2310.9472752491274 1472.1458612933543
2311.5337363090184 1728.6205636593663
2312.120055622414 1814.1284505612507
2312.706233221221 1530.008807697133
2313.2922691373424 1384.4379578300725
2313.8781634026564 1524.7619626329576
2314.463916049037 1665.405422342347
2315.049527108342 1942.0324770813509
2315.6349966124235 2010.183398684873
2316.2203245931123 1885.5983338978542
2316.8055110822315 1561.0019707773154
2317.3905561115935 1610.6607450275023
2317.9754597129977 1470.2187701754924
2318.560221918229 1556.3136152347565
2319.1448427590603 1642.637839536203
2319.729322267256 1417.2171162769532
2320.313660474563 2005.5460786889355
2320.8978574127195 1909.979684370357
2321.481913113452 1814.255719053291
2322.0658276084705 1264.5390259104045
2322.6496009294806 1687.3606175060802
2323.233233108165 2069.564215433261
2323.8167241762058 1878.1189320527726
2324.4000741652617 1716.2640866435163
2324.983283106987 2032.6455081361487
2325.5663510330232 2120.877709664859
2326.1492779749933 1917.7636677397393
2326.7320639645204 1725.786919925034
2327.3147090332004 1327.4451793266312
2327.897213212629 1501.4374785347504
2328.4795765343843 1675.5551286500518
2329.0617990300307 1276.006151114037
2329.643880731124 1966.848795802005
2330.22582166921 1829.405956613183
2330.807621875816 1910.3840887228448
2331.3892813824623 1557.7032305893952
2331.9708002206517 1419.9999358842601
2332.5521784218818 1581.886834441551
2333.133416017634 1744.171506123296
2333.7145130393765 1637.0940960971425
2334.295469518571 1839.8970400287787
2334.876285486658 2015.8733478694
2335.456960975076 1579.2901710843485
2336.037496015242 1839.1851785578172
2336.6178906385667 1639.3564659153367
2337.198144876451 1503.347624741581
2337.778258760278 1367.028618803581
2338.3582323214214 1298.2206348574705
2338.938065591243 1906.6398049281645
2339.517758601087 2034.4265813740349
2340.0973113822965 1817.7883352453805
2340.676723966193 1732.581394916661
2341.255996384094 1647.1571915947661
2341.835128667295 1940.941181949022
2342.4141208470883 1785.4647921545122
2342.992972954751 1858.2984833110272
2343.5716850215467 1785.6286601959807
2344.1502570787306 1800.3995381419495
2344.7286891575386 1815.1091541144572
2345.3069812892045 2199.1698929450076
2345.885133504944 2011.2662026738185
2346.4631458359618 1728.9054502759318
2347.04101831345 1777.0947245765735
2347.6187509685915 1938.5994927277382
2348.196343832553 1658.9078513713096
2348.7737969364935 1473.141010463375
2349.351110311558 1643.4920972075774
2349.9282839888765 1710.9908297208792
2350.5053179995757 1442.8452218763491
2351.0822123747585 1471.9412583538538
2351.658967145526 1497.6595443946244
2352.2355823429643 1523.508622911397
2352.812057998144 1865.373550578584
2353.3883941421263 1568.5704199956797
2353.9645908059647 1893.730023369621
2354.540648020693 1823.5740804957393
2355.116565817336 1733.926685368548
2355.6923442269126 1644.1031041018346
2356.2679832804224 1607.0543672777621
2356.8434830088518 1410.761296212052
2357.41884344318 1668.8448761670625
2357.994064614377 1826.3951476023844
